timestamp,emg1,emg2,emg3,emg4,emg5,emg6,emg7,emg8
1501875089704925,-14,-4,8,-83,-26,-6,-1,-19
1501875089704925,-4,-12,-56,28,2,-6,-7,-20
1501875089705896,5,-15,-60,21,-27,-10,7,92
1501875089705896,18,58,47,-23,-2,-1,-2,-14
1501875089705896,-10,-84,-53,-35,13,12,20,71
1501875089705896,-22,33,71,70,-18,-27,-22,-71
1501875089709908,11,8,48,-103,-3,12,3,98
1501875089709908,-27,-44,-46,91,19,6,16,24
1501875089715913,22,60,-85,-22,-19,-12,-8,-57
1501875089715913,-1,6,24,2,17,15,4,0
1501875089725907,16,-17,15,-79,-40,-5,6,39
1501875089725907,21,28,-40,74,32,-11,-17,-70
1501875089732923,-16,-20,76,-37,-23,-2,-13,-27
1501875089732923,21,27,-17,21,13,2,7,31
1501875089746921,-32,-76,57,33,8,7,-4,-53
1501875089746921,22,49,-21,-67,-8,-12,10,90
1501875089754929,-16,12,-67,49,2,1,-14,-63
1501875089754929,45,36,39,53,-2,1,15,115
1501875089769931,-54,-31,-43,-32,-22,-16,-27,-128
1501875089769931,-11,-42,14,-64,2,-1,3,-7
1501875089777892,15,47,116,48,-2,-1,6,-14
1501875089777892,11,8,14,-71,40,13,7,29
1501875089790965,9,-22,-57,-43,1,-10,11,27
1501875089790965,-28,-10,54,99,-40,6,-29,-86
1501875089833904,31,13,-91,-91,-54,7,1,20
1501875089833904,-15,-27,-25,15,3,1,0,2
1501875089836942,-30,-60,-24,-29,34,3,-5,-74
1501875089836942,3,46,-34,9,-13,-2,3,7
1501875089837899,6,21,33,73,21,-2,3,-1
1501875089837899,11,68,25,-3,-3,-12,2,36
1501875089838899,10,34,16,-32,3,4,-8,-71
1501875089838899,25,-70,-58,66,-23,-13,6,97
1501875089843936,-47,48,101,-75,12,12,-21,-87
1501875089843936,18,-18,-20,-3,8,5,2,15
1501875089860899,-12,-29,-32,80,-17,-5,7,1
1501875089860899,-5,17,58,-45,21,7,0,-65
1501875089860899,25,36,45,85,-54,-11,3,72
1501875089860899,-10,-19,-13,-55,24,9,5,2
1501875089873936,23,62,40,-3,-3,-10,-5,-9
1501875089873936,-32,-80,-34,-55,-2,-1,-9,18
1501875089880939,-18,-58,-103,10,13,-11,-12,-71
1501875089880939,1,9,21,24,4,6,-1,11
1501875089903971,3,42,24,-38,-15,-1,7,26
1501875089903971,8,9,81,76,4,-7,-4,-8
1501875089904937,6,-30,-38,-13,5,-1,2,14
1501875089904937,18,22,-42,-55,-24,0,4,62
1501875089918964,-27,-19,-33,27,22,8,-9,-28
1501875089918964,7,43,40,-58,-13,1,5,10
1501875089919923,1,-45,68,6,47,8,16,-47
1501875089919923,-11,28,18,123,-16,-6,-20,-19
1501875089941917,-16,-57,-26,-90,-42,-12,-1,46
1501875089941917,-11,14,46,-5,23,6,-4,-22
1501875089941917,16,-61,-38,9,-8,2,12,28
1501875089941917,9,10,8,-14,-18,5,-2,-59
1501875089963945,5,23,-43,-57,18,-5,-5,9
1501875089963945,4,-17,-74,110,-40,-4,1,-41
1501875089964939,-8,8,39,-18,25,9,8,26
1501875089964939,-7,-8,34,-6,7,-7,3,-24
1501875089978975,7,29,65,69,40,12,5,53
1501875089978975,11,-5,-27,-92,-43,-9,-8,-7
1501875089979920,-21,21,-26,99,2,-1,-6,-28
1501875089979920,-17,-2,-1,-32,-64,-17,-9,-40
1501875090001953,-10,-94,-15,13,21,-3,-2,27
1501875090001953,53,42,23,34,21,3,7,102
1501875090001953,-42,-22,44,-26,-5,0,-3,-47
1501875090001953,-4,19,35,13,24,0,-6,16
1501875090023980,13,15,7,-3,-23,5,-2,-21
1501875090023980,-13,5,-30,44,29,5,2,11
1501875090024942,1,-7,1,-61,-38,-13,-5,12
1501875090024942,3,-38,-128,-19,4,-5,8,19
1501875090038922,12,38,87,-3,-5,6,0,12
1501875090038922,14,-5,12,-17,33,6,6,39
1501875090046987,7,62,20,36,-6,-2,6,-45
1501875090046987,-38,-22,-15,-14,-16,-7,-20,-41
1501875090061951,-8,2,48,53,5,-1,6,14
1501875090061951,-1,7,23,-58,13,-4,-21,-95
1501875090061951,2,16,-36,-13,13,0,0,82
1501875090061951,12,-17,-11,20,3,6,3,-10
1501875090083954,0,18,3,11,-10,7,8,25
1501875090083954,-9,11,-91,-29,2,-2,3,-17
1501875090084949,6,34,-27,-41,-23,-11,-9,37
1501875090084949,-13,-25,63,42,-9,-4,7,-19
1501875090098930,24,-66,-88,-32,54,7,-6,60
1501875090098930,-9,55,64,43,-22,3,3,-15
1501875090106988,12,-30,-45,-4,43,-8,-10,2
1501875090106988,-9,-4,32,6,-13,5,7,-38
1501875090121969,6,67,-32,-5,-53,-17,3,31
1501875090121969,-24,-52,34,-30,12,3,8,-26
1501875090121969,4,9,65,57,-5,0,-14,13
1501875090121969,18,16,-35,-35,6,3,4,39
1501875090143978,-11,-15,76,48,8,1,1,-13
1501875090143978,18,68,-44,-42,7,3,13,41
1501875090144953,-19,-14,22,30,-26,-9,-18,-58
1501875090144953,-14,-37,-18,-14,15,-2,-5,-9
1501875090158934,-1,14,-36,-64,-10,-2,-6,-42
1501875090158934,-16,-22,-7,22,-28,-7,-9,-27
1501875090166955,10,25,-2,-26,22,6,11,21
1501875090166955,12,21,-31,30,-6,-8,-2,-10
1501875090181971,-3,-39,-27,18,29,5,-3,-11
1501875090181971,-6,9,6,2,-60,-15,-8,16
1501875090181971,6,-26,-71,-6,41,22,12,34
1501875090181971,2,-65,21,-90,26,3,0,5
1501875090203961,-3,0,17,89,-40,-11,5,0
1501875090203961,-6,-16,-3,-23,2,0,2,8
1501875090204955,15,-28,-21,-20,-18,-1,-5,20
1501875090204955,7,46,77,32,38,6,7,-41
1501875090218935,5,16,-62,-29,-11,-3,-9,26
1501875090218935,4,-7,8,27,16,5,4,-56
1501875090225985,-19,-51,1,-36,-17,-14,-13,-6
1501875090225985,14,36,77,53,-10,0,-2,42
1501875090241969,-9,-44,28,-42,-13,3,4,-5
1501875090241969,11,30,-1,5,28,-1,0,80
1501875090241969,-12,-19,-29,5,-15,-6,-5,-45
1501875090241969,5,8,-76,1,4,-4,-6,19
1501875090263965,-6,5,107,15,-7,-13,-10,-24
1501875090263965,-1,-22,-116,-24,-4,2,0,9
1501875090264946,9,41,111,48,0,4,5,-3
1501875090264946,-6,-8,13,-64,3,0,2,25
1501875090278961,0,50,-1,8,-24,7,8,-48
1501875090278961,-5,-20,4,-72,15,-3,-5,3
1501875090286942,-16,-55,-104,22,-6,-12,-10,-26
1501875090286942,20,18,33,10,-43,6,6,55
1501875090301969,19,46,11,11,5,-2,8,11
1501875090301969,-20,-50,23,9,1,3,-4,25
1501875090301969,2,64,-62,-20,8,7,15,-35
1501875090301969,-15,-49,-29,-34,2,-6,-19,-65
1501875090323966,-19,4,-25,20,8,-4,-6,-55
1501875090323966,42,4,-17,42,-9,-1,-4,84
1501875090324935,-12,-9,-42,-1,1,-1,7,10
1501875090324935,4,12,71,5,8,1,2,4
1501875090338961,-10,-30,-28,-36,-17,-8,-9,-70
1501875090338961,-28,-39,-5,10,11,0,-1,-35
1501875090346943,38,58,83,32,12,4,-2,-2
1501875090346943,-44,-58,-54,-24,-1,-3,3,-32
1501875090361970,18,-6,-18,-29,-8,5,1,78
1501875090361970,-24,16,-36,5,-5,1,0,-99
1501875090361970,-5,-3,-45,20,19,6,8,-24
1501875090361970,16,-18,41,70,2,-3,-5,43
1501875090383997,-1,6,-26,-3,-20,-18,-19,-21
1501875090383997,-15,-23,45,-8,-9,11,9,-13
1501875090384968,13,60,-15,-22,19,4,5,22
1501875090384968,2,-20,-65,11,-3,-7,-6,-34
1501875090398007,-10,17,37,-30,-14,8,9,21
1501875090398007,33,-20,88,9,0,-9,-7,27
1501875090406986,-33,-26,23,-45,-14,-2,-8,-14
1501875090406986,13,30,-25,39,-11,-3,1,40
1501875090421947,33,17,-3,26,20,4,10,48
1501875090421947,-23,12,-13,9,4,0,1,-38
1501875090421947,-7,-11,24,-11,0,-6,-8,24
1501875090421947,-4,19,25,-16,6,0,-1,-23
1501875090443967,-8,4,3,-22,-14,1,-1,-6
1501875090443967,13,-11,-15,-19,-6,-6,3,45
1501875090444970,-4,-10,58,34,1,-3,-9,-44
1501875090444970,-8,0,-60,7,-12,-1,5,14
1501875090467000,-16,3,-24,-8,-3,1,-12,-29
1501875090467000,7,43,65,20,23,9,-2,-7
1501875090467935,-9,-62,-23,-60,-13,-5,3,18
1501875090467935,0,-1,-48,-59,-24,-1,4,15
1501875090481973,6,22,21,30,17,2,10,11
1501875090481973,1,-31,-17,47,-7,-10,-19,-31
1501875090481973,3,-2,-62,16,-13,-3,3,58
1501875090481973,-3,40,54,-16,14,1,3,-19
1501875090503979,-13,-41,-6,-20,1,0,-5,4
1501875090503979,-2,17,50,-20,2,5,1,-18
1501875090504975,10,27,18,17,2,-2,0,24
1501875090504975,-5,-11,28,18,-5,-2,2,0
1501875090526957,21,33,33,18,-3,-3,9,47
1501875090526957,-22,-28,-39,-43,19,-1,-5,-30
1501875090527950,6,-24,-18,-3,-23,-1,3,10
1501875090527950,13,38,-12,29,20,7,-2,-32
1501875090541954,-9,-46,-45,-19,-2,-2,5,52
1501875090541954,-6,34,-28,40,-10,-5,-8,-22
1501875090541954,-8,2,-9,-12,-15,-1,1,4
1501875090541954,10,25,10,-5,25,5,7,24
1501875090563940,3,-14,-22,20,6,0,-10,-31
1501875090563940,-2,-64,-37,15,-18,-4,-1,0
1501875090564943,6,35,51,-39,-3,-4,5,54
1501875090564943,11,-20,57,5,2,3,-5,7
1501875090587005,-17,-20,-62,8,0,-9,-13,-50
1501875090587005,-11,24,35,-28,-20,-8,-5,-12
1501875090587950,5,3,27,20,33,8,-1,-39
1501875090587950,-16,-4,-41,-3,-22,-4,0,2
1501875090601954,4,7,30,-13,15,2,4,9
1501875090601954,1,-6,17,27,-10,-10,-1,15
1501875090601954,5,22,28,-32,-11,6,8,-1
1501875090601954,13,8,-18,2,-2,-2,1,-13
1501875090623943,-29,-83,-52,-10,3,-1,-12,4
1501875090623943,-14,3,-13,-8,7,-1,4,-9
1501875090624944,12,-4,-33,6,-3,-2,-4,-17
1501875090624944,-23,-5,37,19,6,-4,-6,-14
1501875090646977,17,13,-18,-37,-26,3,13,7
1501875090646977,16,7,30,15,13,1,4,67
1501875090647955,-32,-29,-66,8,-4,-3,-7,-104
1501875090647955,3,-6,52,-69,-17,-5,-3,111
1501875090661971,-12,26,32,55,13,-8,-6,-46
1501875090661971,6,9,-83,-35,-28,8,9,4
1501875090661971,23,9,-9,34,15,6,10,62
1501875090661971,-31,17,26,-7,-16,-10,-25,-111
1501875090683993,4,-45,18,44,10,-5,2,63
1501875090683993,-31,5,-41,-96,-12,-7,-17,-97
1501875090684959,-14,3,7,14,-17,-13,-13,-8
1501875090684959,16,-28,-52,25,13,4,2,-6
1501875090706989,-2,41,43,-11,-7,3,1,-28
1501875090706989,26,19,83,12,12,11,12,58
1501875090707949,-36,-37,-3,19,-25,-15,-13,-76
1501875090707949,23,6,-11,27,15,4,9,61
1501875090721953,30,3,-2,-47,10,7,6,25
1501875090721953,-24,0,46,9,-5,-3,2,14
1501875090721953,-3,-14,-57,-5,-25,-1,3,6
1501875090721953,-3,2,59,-33,32,8,5,26
1501875090744021,-12,-26,43,29,8,-4,-2,-58
1501875090744021,30,16,-61,19,23,4,2,62
1501875090744988,12,-13,17,0,-25,-3,-1,22
1501875090744988,-12,-1,-54,35,24,6,-2,-23
1501875090767012,-8,17,-63,-90,-19,-2,2,-11
1501875090767012,34,13,45,2,18,5,5,38
1501875090767953,-30,4,80,12,2,-1,-5,-69
1501875090767953,12,20,27,65,-12,3,13,26
1501875090781961,-13,-34,-61,-75,-15,-5,-12,-83
1501875090781961,-4,-3,-46,62,-3,-6,-5,-47
1501875090781961,18,7,-70,-3,24,0,-1,42
1501875090781961,-7,-6,17,-32,-13,-2,2,-35
1501875090802994,-4,35,52,38,19,4,-7,27
1501875090802994,-12,-3,-11,3,-12,-8,-7,-36
1501875090811962,10,25,79,12,20,7,6,42
1501875090811962,-29,1,-15,-48,-18,-7,-9,-75
1501875090827028,19,22,-36,63,-2,-8,3,113
1501875090827028,-16,-50,30,-14,-11,-7,-19,-56
1501875090827956,16,16,-1,-15,23,8,13,44
1501875090827956,-12,-4,21,-6,-27,-9,-19,-5
1501875090850000,-18,6,-10,-28,0,1,-2,-35
1501875090850000,-5,3,-12,3,9,-1,5,23
1501875090850958,20,-14,70,7,-6,0,-4,22
1501875090850958,-4,-3,-76,-25,-4,3,5,-27
1501875090862990,33,11,52,32,-3,-5,9,28
1501875090862990,-37,-14,0,-13,14,-1,-10,-72
1501875090871979,-5,-14,16,-23,-15,-9,-3,1
1501875090871979,-6,-9,-66,-4,-22,-1,4,2
1501875090887035,11,22,0,56,22,6,10,24
1501875090887035,12,23,8,-28,-2,6,11,8
1501875090887973,7,-4,35,-68,-5,-4,-6,16
1501875090887973,4,11,-43,2,2,-2,-2,-4
1501875090910001,-13,-13,6,-1,-10,-6,-11,-64
1501875090910001,1,-18,-41,-14,-22,-8,-6,37
1501875090910962,-6,-6,-12,33,14,-1,1,-12
1501875090910962,18,20,-8,-58,0,-3,5,10
1501875090931995,-17,-2,-26,9,10,6,-9,8
1501875090931995,-3,-29,39,63,1,-5,-2,14
1501875090932964,28,5,-77,-29,-3,-2,2,38
1501875090932964,-17,-13,12,-1,-13,-6,-2,-5
1501875090947026,-8,24,17,1,-1,6,5,-28
1501875090947026,11,41,20,-19,-8,-1,2,33
1501875090947977,-9,-46,-83,54,4,2,-2,-12
1501875090947977,13,-8,-9,-17,2,1,-2,2
1501875090970007,-12,-8,-14,-26,3,-1,-8,-43
1501875090970007,-5,-2,-18,0,-2,1,4,29
1501875090970965,-6,2,37,16,-6,-7,-2,-12
1501875090970965,6,-3,47,36,18,10,3,23
1501875090992032,0,-18,11,-8,-9,-3,2,40
1501875090992032,-13,-5,-35,-25,-1,0,-4,-67
1501875090992976,6,-16,2,70,16,-2,-1,18
1501875090992976,1,5,27,-12,0,-2,-9,24
1501875091007007,23,4,12,28,-9,-4,8,72
1501875091007007,-21,-23,-29,-75,-30,-3,-3,-90
1501875091007967,-14,16,-15,-34,-10,4,2,-15
1501875091007967,6,-8,41,17,22,-1,-2,-2
1501875091030009,3,2,-40,13,-1,3,4,-11
1501875091030009,18,17,13,28,18,2,5,43
1501875091030009,1,25,58,-59,-12,-3,-2,-21
1501875091030009,-34,-64,-45,37,-14,-8,-10,-27
1501875091060011,4,11,-9,-56,-4,0,-7,-6
1501875091060011,2,-2,25,47,4,-1,-2,2
1501875091060970,-5,31,46,12,1,3,5,26
1501875091060970,-8,10,0,-5,20,3,-3,-24
1501875091066970,-10,-31,31,-4,-9,-8,-3,-31
1501875091066970,6,8,23,15,-10,-4,6,11
1501875091066970,12,26,-39,25,24,11,-11,-32
1501875091066970,34,-19,9,-36,-9,0,11,90
1501875091089973,-42,-18,15,65,8,-2,-9,-119
1501875091089973,14,2,-9,-10,-2,-1,9,38
1501875091090972,-14,-7,-58,-17,-27,-2,4,0
1501875091090972,13,48,50,37,30,8,0,5
1501875091112002,10,-7,25,-30,-5,-1,3,45
1501875091112002,0,-9,-16,9,5,3,2,3
1501875091113987,-13,-16,46,-13,-9,-12,-10,-9
1501875091113987,2,13,-5,0,-21,-4,3,30
1501875091126992,-3,-1,18,-20,-4,-5,-2,19
1501875091126992,-2,0,-28,1,-1,5,-7,-71
1501875091126992,3,-28,3,-1,-9,-1,2,36
1501875091126992,-5,10,4,7,16,0,3,-50
1501875091149989,2,4,-44,32,6,5,4,21
1501875091149989,-4,14,37,-27,12,1,-12,3
1501875091150991,21,10,42,-18,2,0,0,15
1501875091150991,-35,-17,-10,10,-9,-8,-9,-52
1501875091172016,4,3,-32,-3,-30,-8,11,26
1501875091172016,-1,-3,-19,16,28,9,-8,2
1501875091173980,-18,-15,-31,-12,4,3,1,-17
1501875091173980,0,6,28,9,4,3,4,8
1501875091186046,-9,12,19,-15,-6,-6,-13,-31
1501875091186046,0,6,-12,25,-10,-10,-3,-36
1501875091194978,2,-1,12,-10,-3,0,-5,55
1501875091194978,1,-12,-67,-21,-8,-6,-1,35
1501875091210020,14,-14,-33,-29,7,4,4,33
1501875091210020,-9,-17,17,10,-17,-5,2,14
1501875091210997,8,20,54,21,6,1,-3,-51
1501875091210997,-11,-18,-60,-20,-9,-5,1,-7
1501875091231979,-10,7,-2,10,4,-1,-9,-18
1501875091231979,-2,-4,-9,-27,6,-6,-2,60
1501875091233980,-9,-13,-30,-18,29,11,7,-40
1501875091233980,26,-5,-41,-16,-59,-3,3,54
1501875091246045,-38,6,50,29,-13,-5,-6,-24
1501875091246045,5,24,25,0,49,7,5,-36
1501875091255014,-24,-23,-22,-15,-38,-19,-7,-45
1501875091255014,1,-2,10,34,41,4,-2,5
1501875091270015,1,-8,-73,-33,12,23,13,-37
1501875091270015,1,2,43,18,-31,-8,-4,46
1501875091270983,15,24,53,14,26,-1,8,25
1501875091270983,30,-5,43,7,-63,-13,-4,47
1501875091292040,-2,-3,2,48,9,-9,-1,41
1501875091292040,1,7,-43,-88,-30,0,-5,-84
1501875091294008,5,-8,13,-4,20,0,-1,57
1501875091294008,-20,4,46,6,11,5,4,-46
1501875091306027,16,-14,-26,3,-33,-7,-4,76
1501875091306027,32,22,-9,15,49,9,5,109
1501875091321048,-26,22,41,-1,-28,-5,-7,-56
1501875091321048,-16,28,3,-14,-8,0,-1,-22
1501875091329998,6,-60,-56,-30,9,3,5,-4
1501875091329998,-33,-20,-41,11,-18,-13,-13,-80
1501875091330987,-29,-10,-32,11,-2,-5,-5,-31
1501875091330987,1,-1,-100,-46,33,18,5,34
1501875091351998,19,33,83,-12,-13,-3,3,16
1501875091351998,-18,-16,-35,8,-30,-11,4,-41
1501875091353987,5,-9,-55,-15,10,5,-10,0
1501875091353987,6,2,-1,27,8,0,-3,0
1501875091366035,6,-7,-63,31,7,-1,0,-23
1501875091366035,0,-19,-27,-9,3,-1,-5,1
1501875091375021,6,33,7,-15,-22,3,15,70
1501875091375021,-16,-22,31,3,6,-7,-15,-91
1501875091390028,5,1,26,-13,6,-12,-6,13
1501875091390028,14,17,-13,23,-8,0,0,30
1501875091390989,-9,11,56,27,0,6,-1,-91
1501875091390989,-6,-7,-59,-20,23,-6,-2,4
1501875091411990,-10,-10,36,-23,-6,0,-1,-13
1501875091411990,-5,31,-30,31,15,3,16,40
1501875091413989,9,-49,-12,-37,-30,-5,-11,9
1501875091413989,1,41,11,16,35,3,-2,1
1501875091425990,-7,-5,1,-1,-9,0,-6,-32
1501875091425990,-3,-8,57,5,11,-2,-5,0
1501875091434991,15,23,10,-5,-19,-3,9,31
1501875091434991,12,-29,19,23,14,9,0,-13
1501875091450046,-35,-21,-64,-42,-36,-10,-8,30
1501875091450046,7,-16,48,21,5,2,3,17
1501875091450992,12,7,32,11,-12,-1,-2,17
1501875091450992,-11,-36,31,-1,10,1,-3,12
1501875091472032,22,31,-26,-25,31,5,10,22
1501875091472032,-19,-15,27,15,-50,-7,-14,-64
1501875091473994,-13,-28,-80,-15,6,-10,-8,18
1501875091473994,3,20,-45,-26,-30,-7,-1,-15
1501875091486061,20,-25,17,32,-31,-5,1,41
1501875091486061,-4,44,8,-31,66,11,5,-2
1501875091495028,3,-22,-8,9,0,3,0,-9
1501875091495028,-18,26,29,1,-25,-12,-4,-51
1501875091510006,24,4,6,-9,12,10,6,39
1501875091510006,-26,-8,71,12,-30,-6,-6,-63
1501875091511005,1,1,-48,-1,18,4,2,-4
1501875091511005,-6,-15,-25,2,2,-6,4,-10
1501875091532063,25,34,26,27,14,4,4,45
1501875091532063,-1,-43,-38,-15,-19,2,-4,44
1501875091534006,-5,-3,-52,-20,10,-4,-8,1
1501875091534006,11,13,-7,15,-27,-6,2,29
1501875091546036,-16,-2,-34,26,17,-2,-2,-53
1501875091546036,13,-29,17,-70,3,7,2,5
1501875091555033,-31,-8,-48,8,35,-3,-16,-46
1501875091555033,0,-5,22,16,7,-1,-1,16
1501875091570068,-11,16,4,-9,-15,-5,-1,-18
1501875091570068,19,12,-14,2,-24,-2,8,28
1501875091570999,5,8,56,11,-15,-4,5,15
1501875091570999,-10,-4,6,-12,23,6,0,-21
1501875091592042,-7,12,55,-4,-7,-2,-4,-38
1501875091592042,7,-6,-65,21,-13,-1,2,35
1501875091594001,4,-8,-52,3,18,-4,3,6
1501875091594001,-3,-21,31,-5,21,6,-3,19
1501875091606040,2,-3,-47,0,-2,0,-8,-36
1501875091606040,-9,13,-23,-6,8,-2,-1,30
1501875091615034,9,24,-1,7,-25,1,6,-20
1501875091615034,-8,-37,36,6,-26,-5,2,-26
1501875091630045,-8,4,3,-25,8,5,-9,-51
1501875091630045,3,-3,-34,20,6,-3,-4,21
1501875091631004,-1,-2,-28,-10,-8,-5,-1,10
1501875091631004,6,27,25,-10,-6,0,5,10
1501875091652044,7,-4,35,28,-1,-1,3,6
1501875091652044,17,19,19,-16,6,4,10,8
1501875091654036,-1,-10,45,17,-1,3,-5,-24
1501875091654036,5,13,-63,-18,2,-3,-2,53
1501875091666041,-6,-11,12,10,35,1,0,-8
1501875091666041,4,20,4,-6,-34,0,1,-8
1501875091675038,10,-26,44,-21,27,4,7,14
1501875091675038,0,-13,34,40,-25,-10,-10,-4
1501875091690046,-8,0,-37,-33,25,11,4,0
1501875091690046,-6,17,53,-9,13,-1,-4,-12
1501875091691013,15,-5,-36,-6,-10,-1,6,24
1501875091691013,5,7,26,18,-15,2,-2,11
1501875091712054,0,10,32,30,53,-6,-6,0
1501875091712054,-17,-26,-65,-25,-27,-3,-2,-76
1501875091714020,-12,-11,-34,0,-14,0,-5,-12
1501875091714020,15,5,19,-6,-2,-8,4,-2
1501875091726052,-11,-12,22,-32,-28,-4,-4,59
1501875091726052,-2,-16,-71,20,11,-1,-5,0
1501875091735042,-1,20,25,10,-6,-6,-3,-1
1501875091735042,0,-19,-3,14,-29,3,3,1
1501875091750018,9,-3,42,-6,19,-8,0,20
1501875091750018,-12,4,5,-9,-10,3,9,53
1501875091751016,-2,13,22,-3,7,-1,-14,-23
1501875091751016,0,-13,21,26,5,-3,-1,3
1501875091772052,-4,-1,49,0,-41,-5,-6,-32
1501875091772052,-3,-20,-13,24,25,3,-3,-23
1501875091774010,4,18,-15,-13,39,11,14,22
1501875091774010,1,16,-8,6,8,-5,-7,18
1501875091786011,1,1,-49,-24,-37,3,4,-50
1501875091786011,-7,-10,29,16,8,-11,-3,10
1501875091795027,6,20,12,7,-29,4,-4,-3
1501875091795027,-14,1,12,-7,38,1,1,1
1501875091810056,12,47,-55,32,30,4,9,-22
1501875091810056,-20,-31,103,-3,-26,-9,-20,-39
1501875091811049,3,-20,-6,11,4,0,5,22
1501875091811049,-13,-15,-23,-28,-19,0,-3,-26
1501875091832082,13,20,-28,23,1,-1,5,48
1501875091832082,17,9,-14,-17,3,2,1,-22
1501875091834026,17,2,6,15,-19,-15,-10,71
1501875091834026,-18,10,-28,-46,6,12,1,60
1501875091846083,-6,-25,-14,-6,-22,1,7,16
1501875091846083,12,14,-14,34,8,0,3,15
1501875091855027,-10,-1,0,-16,-25,-3,-2,0
1501875091855027,10,-32,-67,-20,21,-3,4,11
1501875091870068,-1,2,3,8,-8,0,-8,-6
1501875091870068,-3,-18,-7,-20,28,3,2,33
1501875091871016,-1,8,-3,-8,-26,-2,7,-22
1501875091871016,14,41,-21,-23,-6,-1,-4,-7
1501875091892059,-16,-33,55,-15,-11,-5,-19,-3
1501875091892059,0,3,18,25,-9,1,-2,-42
1501875091894050,-13,-7,19,22,28,1,0,-4
1501875091894050,6,9,62,10,-47,-9,1,-2
1501875091915089,-7,-7,-67,-21,28,-4,-1,0
1501875091915089,-13,19,8,-9,4,3,-1,25
1501875091916020,-3,-16,-7,-2,-46,-7,1,-4
1501875091916020,-15,-5,44,22,36,8,-1,-28
1501875091929088,13,17,14,-14,-21,-1,-1,12
1501875091929088,1,-30,9,4,-6,-5,-11,5
1501875091936061,-14,-8,-5,-4,-11,3,3,-40
1501875091936061,-3,0,-3,1,3,0,-3,-31
1501875091952090,5,3,17,8,-4,-1,6,25
1501875091952090,3,10,4,-17,-6,-1,3,2
1501875091954021,3,12,-40,3,18,3,-5,-24
1501875091954021,13,8,91,34,-17,-3,4,10
1501875091975095,-11,-53,-61,-57,-9,-12,-14,3
1501875091975095,10,17,35,-7,1,6,7,17
1501875091976023,-3,-20,-47,13,10,-2,3,16
1501875091976023,-1,18,3,-28,-14,-3,-5,-45
1501875091990069,5,16,40,22,-16,7,11,6
1501875091990069,-5,0,-43,17,-19,-6,-9,0
1501875091991023,10,7,2,-55,39,5,5,18
1501875091991023,-4,-24,16,14,-12,0,-1,-11
1501875092012062,-6,22,-19,41,-15,-11,-6,-19
1501875092012062,-3,-13,27,-7,-17,-4,4,18
1501875092014025,15,21,-16,3,31,5,-1,5
1501875092014025,3,-18,-33,-13,-8,-1,2,24
1501875092035100,-16,20,32,6,4,0,-5,-68
1501875092035100,-10,-17,-60,-9,31,-1,4,-21
1501875092036026,0,21,28,8,-19,-6,-7,-6
1501875092036026,8,-8,-35,7,12,1,-4,-16
1501875092049091,-20,-15,-14,-9,-19,-3,-1,11
1501875092049091,14,18,2,2,-21,-3,0,3
1501875092056089,-4,9,19,8,5,0,6,12
1501875092056089,0,-17,-17,-14,43,2,0,-9
1501875092072029,1,-22,-14,20,6,-4,-1,-1
1501875092072029,10,17,42,5,11,1,3,21
1501875092074034,-11,-10,-12,2,10,1,-5,-5
1501875092074034,0,-4,-26,-15,-38,-10,0,7
1501875092095036,15,-5,4,8,36,2,-1,52
1501875092095036,-10,-11,15,4,22,9,4,-53
1501875092096031,1,19,20,20,-9,-1,4,2
1501875092096031,1,-28,18,0,-12,3,-5,0
1501875092109058,-16,-10,-8,-20,19,-3,-3,-28
1501875092109058,14,10,-46,-4,-22,-8,3,33
1501875092116036,3,-20,-23,-4,-22,0,-7,-15
1501875092116036,-8,17,0,5,12,3,4,-3
1501875092132068,0,-7,3,-22,-13,1,4,-2
1501875092132068,5,13,-7,10,16,2,-10,4
1501875092134033,-7,-21,-53,-9,0,-6,-3,-10
1501875092134033,-3,21,-64,-7,3,-4,2,13
1501875092155062,0,-35,24,20,-17,3,2,-18
1501875092155062,-1,2,-29,-13,20,4,-1,-7
1501875092156041,-10,-15,13,-20,-11,-8,-4,0
1501875092156041,-3,-15,35,5,-1,-2,3,2
1501875092169063,4,16,11,2,3,2,-1,-17
1501875092169063,-6,-7,23,4,-11,-6,-1,-11
1501875092176033,3,9,27,10,19,9,2,4
1501875092176033,19,14,-41,-8,-3,-3,5,54
1501875092192105,-25,1,-36,-29,-17,-6,-11,-66
1501875092192105,-2,-24,29,16,-2,1,-5,29
1501875092194034,-2,-8,41,-1,-16,-4,-2,7
1501875092194034,-5,5,22,12,-1,1,-3,-19
1501875092215126,10,27,48,10,4,-3,4,16
1501875092215126,2,-22,-6,-15,-16,1,-1,6
1501875092216037,-11,-1,-31,-24,21,-9,-4,-41
1501875092216037,3,3,-7,-8,-12,7,2,53
1501875092229100,2,6,-20,1,10,3,2,-12
1501875092229100,2,19,49,-14,-7,-4,-7,-17
1501875092236101,-3,-13,2,28,-13,-8,-8,14
1501875092236101,-13,-3,14,-7,-27,-4,-2,-29
1501875092252099,2,14,4,-7,19,1,-2,16
1501875092252099,1,-11,-34,-3,-2,-3,5,2
1501875092254039,11,17,-11,-5,12,3,6,10
1501875092254039,-4,11,-9,7,-7,-8,-9,-16
1501875092275086,-3,-8,0,15,9,2,3,-5
1501875092275086,3,3,-28,-13,-11,-1,-1,13
1501875092276042,13,36,31,20,20,5,19,90
1501875092276042,-14,-33,-2,4,-16,0,-14,-91
1501875092289084,5,-10,17,-34,-10,-1,-6,4
1501875092289084,-13,-7,-38,7,10,-6,-4,-14
1501875092296041,-1,-4,12,0,-8,-1,-3,8
1501875092296041,7,7,37,9,-15,0,6,24
1501875092312084,7,15,27,11,15,4,4,8
1501875092312084,-6,22,21,10,-7,-1,-8,-28
1501875092314074,2,-37,-27,-6,3,3,-1,17
1501875092314074,2,1,-57,-7,21,-3,0,-8
1501875092335079,-7,-6,-11,17,-26,-1,-3,10
1501875092335079,8,26,7,1,9,-1,7,22
1501875092336046,-7,-27,20,-14,10,5,-4,-24
1501875092336046,1,-7,-12,-2,5,-1,-2,9
1501875092349083,-2,6,-5,0,-11,-2,7,36
1501875092349083,-4,-1,6,0,-11,-4,0,-8
1501875092356088,17,2,-33,-14,-16,-2,8,44
1501875092356088,-7,7,18,4,24,1,-4,-7
1501875092372111,11,10,-6,6,-1,-3,2,29
1501875092372111,-13,-25,-29,14,6,11,4,-31
1501875092374068,3,1,9,-23,-9,-3,-4,-21
1501875092374068,-3,-4,14,-14,-1,-4,-3,0
1501875092395107,0,12,-21,0,-1,0,-2,-15
1501875092395107,14,-7,59,13,-28,-8,2,50
1501875092396048,-17,19,-7,-22,33,7,-3,-20
1501875092396048,5,-16,-52,-2,9,6,8,20
1501875092408087,-4,5,57,1,-3,-1,-4,-16
1501875092408087,2,-24,-63,-8,-2,-6,-5,11
1501875092417049,-10,8,51,20,-36,-6,-3,-27
1501875092417049,4,6,-39,-4,18,-2,-5,-3
1501875092433090,-6,-17,-37,-17,-7,-1,-1,-7
1501875092433090,-5,-1,52,6,-1,-7,-2,-14
1501875092434088,-10,8,37,8,11,1,-4,-10
1501875092434088,-1,-11,-16,-1,-19,-7,-3,7
1501875092455087,4,-14,-48,-15,18,7,2,13
1501875092455087,4,32,10,-13,1,1,0,-27
1501875092456062,-6,-5,5,9,1,0,3,-8
1501875092456062,-5,0,24,14,-17,-6,1,-7
1501875092468064,5,-8,56,-11,-3,-1,-10,-9
1501875092468064,-19,-10,-37,-17,8,-6,-3,-4
1501875092477064,1,-3,-7,16,-30,-2,-4,-26
1501875092477064,10,25,30,17,26,1,12,13
1501875092492085,2,16,-26,4,-10,0,7,22
1501875092492085,-11,-29,3,-28,-2,-3,-12,-23
1501875092494053,4,-17,-16,-3,9,1,2,13
1501875092494053,-6,11,-26,-14,-5,1,-4,-4
1501875092515123,-2,-13,6,6,-5,-5,5,30
1501875092515123,7,16,24,2,6,0,-7,-61
1501875092516054,1,-4,-58,-2,4,-11,2,-6
1501875092516054,-6,-14,11,-11,-23,5,-9,-51
1501875092528081,-16,-19,38,16,24,-1,-4,32
1501875092528081,2,-3,-40,-13,7,1,2,22
1501875092537068,6,12,52,23,-15,-1,5,8
1501875092537068,-6,18,-59,-12,21,1,2,-10
1501875092552126,2,-6,18,7,-22,-1,1,-11
1501875092552126,3,-5,-21,-6,2,-3,0,28
1501875092558096,-7,-14,5,15,3,-6,-2,23
1501875092558096,-6,2,49,-3,1,5,-8,-52
1501875092575105,-4,6,-23,0,-16,-5,-8,-39
1501875092575105,13,25,-20,9,-13,3,9,44
1501875092581095,-10,-30,12,-47,-4,-8,-12,-21
1501875092581095,5,-27,-30,5,16,-2,-5,27
1501875092588057,-8,-10,2,-27,-12,-2,-7,-13
1501875092588057,-2,8,-6,6,1,5,5,-6
1501875092597075,-1,10,28,18,-15,-5,1,5
1501875092597075,8,4,-9,7,-18,4,1,12
1501875092612119,1,-13,-15,0,46,0,0,-6
1501875092612119,-5,3,46,4,3,0,1,5
1501875092614072,-1,-7,43,-13,-20,1,-1,7
1501875092614072,-5,12,29,9,0,-7,-7,-16
1501875092635121,0,7,25,-2,-14,1,0,-4
1501875092635121,6,-13,-80,10,10,3,12,31
1501875092636061,-12,-22,-21,-13,16,-3,-19,-55
1501875092636061,0,5,12,-6,-7,0,6,17
1501875092648061,6,2,-24,-8,-19,-1,-1,-6
1501875092648061,-1,-13,4,-18,-18,-2,-1,25
1501875092657087,-4,10,-47,2,21,-2,-7,8
1501875092657087,-8,-10,-2,1,-20,-6,-1,-15
1501875092672122,3,18,-4,19,16,9,4,1
1501875092672122,-8,-22,-37,11,5,-9,-5,7
1501875092674095,19,-5,-28,-7,-7,7,7,6
1501875092674095,-10,-6,35,-10,-4,-3,-5,1
1501875092695117,0,-6,10,25,-4,-10,-1,-3
1501875092695117,2,19,18,-17,11,11,0,-6
1501875092696065,6,21,-43,1,-14,-1,4,-1
1501875092696065,0,-21,46,-1,12,1,9,40
1501875092708129,-6,-10,6,20,-44,-6,-12,-39
1501875092708129,-6,-3,16,-22,37,-3,1,25
1501875092717082,1,27,31,-11,4,0,-8,-44
1501875092717082,5,-3,-65,3,-3,-1,11,33
1501875092732093,-9,11,-19,-8,-1,3,-4,-31
1501875092732093,1,2,-36,-10,-5,-4,-7,-9
1501875092734066,-8,-19,56,6,-3,4,4,-12
1501875092734066,4,21,-5,-4,11,0,3,24
1501875092755141,3,-8,52,3,12,-6,-2,-5
1501875092755141,-1,20,22,11,-6,2,-4,-30
1501875092756069,5,0,-40,-3,-1,-2,9,30
1501875092756069,-13,-35,-27,16,-8,-4,-8,-36
1501875092768101,-5,13,-10,-27,1,-5,-6,23
1501875092768101,-4,-15,-33,-3,-29,-7,-2,-21
1501875092777097,-1,-5,-38,7,33,7,4,-33
1501875092777097,5,22,-16,4,-8,3,1,31
1501875092792082,6,-1,-3,3,22,9,6,18
1501875092792082,-5,-10,13,20,1,-1,-3,-26
1501875092794102,1,2,6,-17,-43,-7,1,25
1501875092794102,6,17,42,-3,27,1,0,3
1501875092815092,-1,25,40,-4,6,0,4,-14
1501875092815092,10,-21,-6,-3,-17,1,-1,19
1501875092816078,-10,-5,9,8,5,-4,-5,-31
1501875092816078,0,0,-25,-8,-13,-5,-1,6
1501875092837145,3,2,-32,-12,-13,0,4,14
1501875092837145,-8,-21,5,1,-1,-2,-6,-19
1501875092839104,-6,13,13,15,-10,-7,-5,1
1501875092839104,-1,-40,-15,-35,32,9,0,13
1501875092852115,0,-2,-40,9,0,0,1,-9
1501875092852115,6,20,32,10,-3,-3,2,3
1501875092854073,-3,24,4,1,-12,-1,0,19
1501875092854073,-3,2,-3,9,-4,-6,-8,-25
1501875092875146,0,-17,-17,-15,0,1,6,9
1501875092875146,-4,0,61,10,11,-3,-3,-9
1501875092876076,4,11,-58,-5,7,9,5,55
1501875092876076,-3,-12,20,-6,-28,-10,0,-15
1501875092897075,-19,-26,52,-7,-10,-6,-21,-54
1501875092897075,4,14,-16,0,23,4,-1,9
1501875092899111,6,-8,0,11,21,2,-2,0
1501875092899111,3,33,-5,9,-13,-3,-3,4
1501875092912139,-7,-25,18,-9,12,2,6,-17
1501875092912139,4,4,7,-2,-23,-6,-2,28
1501875092914109,4,9,65,7,-2,0,4,12
1501875092914109,-2,-19,-17,-8,15,5,-6,-33
1501875092935141,-1,24,44,19,5,-9,-3,-16
1501875092935141,-2,1,-3,-6,-10,1,-1,-15
1501875092936080,-1,-13,-34,-22,-8,0,2,1
1501875092936080,-6,-20,17,16,0,-1,3,11
1501875092957145,7,13,-30,-16,4,-2,-6,3
1501875092957145,-4,-10,19,7,3,-3,-4,2
1501875092959079,-6,9,33,3,7,-1,-1,-11
1501875092959079,4,-1,-13,12,-5,5,1,13
1501875092971142,5,-8,2,-2,1,3,8,12
1501875092971142,1,7,-36,-14,10,0,4,18
1501875092978119,-16,-21,12,-20,-28,-8,-12,-37
1501875092978119,1,4,-6,13,5,-2,6,17
1501875092995099,-2,-5,14,6,-5,-3,-10,0
1501875092995099,-8,5,-69,-12,3,4,-1,-34
1501875092996083,5,-3,-5,-3,1,0,0,14
1501875092996083,-1,22,6,-18,-3,-4,3,3
1501875093017142,7,-35,-10,14,-31,-7,7,5
1501875093017142,-8,-6,-4,-8,40,5,-9,-14
1501875093019115,1,-6,28,5,-3,0,-5,-9
1501875093019115,-6,6,-49,-6,-5,0,-1,1
1501875093031155,9,25,29,19,3,1,9,40
1501875093031155,-8,4,2,5,-13,-3,-1,-8
1501875093038126,-2,-21,-1,-12,-1,-1,-7,-15
1501875093038126,4,-7,43,-7,-6,-6,-2,14
1501875093055096,-13,-4,-92,-13,8,2,1,-22
1501875093055096,14,-5,-1,12,-27,-7,-2,28
1501875093056085,1,8,-69,-13,12,5,4,17
1501875093056085,5,23,64,2,-2,-3,5,12
1501875093077128,-6,-8,-4,-14,3,-1,-8,-37
1501875093077128,-10,-21,15,3,-8,0,-7,-24
1501875093079096,-6,1,12,4,2,-5,-3,-13
1501875093079096,3,-3,-1,3,0,-2,-3,17
1501875093092112,-5,-9,-72,-11,-3,-2,0,2
1501875093092112,7,23,38,-2,-8,1,8,-17
1501875093098130,8,3,2,5,-4,-3,-3,9
1501875093098130,-6,7,-18,-12,-15,-3,-3,1
1501875093115123,0,-11,31,6,13,2,3,18
1501875093115123,3,16,39,18,13,0,5,8
1501875093116090,0,-1,-23,-24,-18,-3,1,29
1501875093116090,6,18,48,14,16,4,2,-30
1501875093137129,6,12,6,-8,-5,2,-5,17
1501875093137129,-9,-10,-7,0,0,-5,-5,-13
1501875093139122,-2,-20,7,7,8,2,4,23
1501875093139122,-3,9,-5,0,-8,-2,-5,-43
1501875093152108,4,4,-8,-6,-7,-3,1,33
1501875093152108,-5,-19,-17,-7,6,1,2,1
1501875093158130,1,17,35,13,1,-1,0,-11
1501875093158130,-14,-67,-29,-10,-3,-3,-8,-6
1501875093175122,3,31,7,11,0,0,1,2
1501875093175122,6,-4,-34,-8,-12,2,10,44
1501875093176106,-9,-6,18,5,8,-2,-18,-67
1501875093176106,2,11,-27,0,-2,2,1,1
1501875093197110,-5,-11,11,-8,-4,-4,-7,-7
1501875093197110,-6,-7,-28,3,-10,-5,-1,6
1501875093199093,3,30,46,14,5,5,7,11
1501875093199093,3,-40,-43,5,9,3,1,-21
1501875093211136,-3,-19,10,6,-25,-6,3,46
1501875093211136,-14,-3,-56,-38,11,1,-16,-68
1501875093218163,1,15,-9,7,1,-5,3,5
1501875093218163,0,24,-21,-18,-18,-6,1,9
1501875093235150,0,-11,-14,4,-3,3,-3,1
1501875093235150,1,2,22,12,0,-4,-4,2
1501875093236096,-2,-16,17,11,14,5,-2,-18
1501875093236096,-7,-3,-4,-1,4,-1,-4,1
1501875093257139,5,19,23,-6,-7,-2,0,-1
1501875093257139,-2,4,-2,3,-10,-3,1,-16
1501875093259114,2,-15,-41,-6,-13,-3,-2,6
1501875093259114,5,2,-20,-9,0,1,9,40
1501875093271159,-4,-10,-22,10,2,-2,-5,-22
1501875093271159,4,20,46,-2,-3,1,-1,4
1501875093278138,2,-2,31,-1,-2,1,10,19
1501875093278138,-6,26,36,8,-4,-4,-11,-41
1501875093295117,1,0,-15,-13,14,0,-4,16
1501875093295117,1,-27,-11,8,5,1,8,32
1501875093296102,-6,8,14,7,-1,-4,-8,-22
1501875093296102,2,-15,66,-5,-8,1,0,5
1501875093317148,-3,3,-24,8,7,-2,2,-14
1501875093317148,1,-7,5,-19,-14,-4,-2,23
1501875093319101,1,-16,-45,3,10,2,2,-11
1501875093319101,-4,19,21,-3,-7,-3,-3,-7
1501875093331141,0,1,33,-5,-10,-4,2,-18
1501875093331141,-3,3,-14,-4,-3,-4,0,15
1501875093340137,-2,-15,-20,-10,4,0,0,24
1501875093340137,-3,8,-10,9,5,3,-9,-38
1501875093355110,5,8,11,-6,-2,-1,7,-5
1501875093355110,-4,6,-22,-8,-1,-3,-4,-1
1501875093356114,5,13,-12,-6,-12,-4,-2,9
1501875093356114,-4,-8,0,-10,3,-6,-4,3
1501875093377144,-6,-12,5,2,-14,-1,0,15
1501875093377144,3,8,-3,3,19,5,-1,-36
1501875093379104,-2,9,-29,-12,-2,-1,5,-3
1501875093379104,5,-6,19,2,-8,-3,4,-6
1501875093391137,-4,12,-16,-4,2,3,-6,-5
1501875093391137,5,7,6,3,-3,-2,2,1
1501875093400106,0,9,46,11,2,1,2,6
1501875093400106,-1,-41,-30,-5,-1,3,7,14
1501875093415124,2,-6,-38,-8,-5,-7,-4,29
1501875093415124,-7,-7,24,8,-5,-1,-6,-24
1501875093416107,0,7,-12,-1,8,0,-2,-6
1501875093416107,-2,9,35,9,-7,-3,-3,13
1501875093437106,-1,-15,22,3,18,2,4,-2
1501875093437106,7,-2,-5,-2,-12,-1,10,26
1501875093439131,-4,-1,7,3,-20,-5,-7,-23
1501875093439131,10,33,-25,1,32,10,4,-1
1501875093451169,-5,-37,-11,1,-9,-1,-7,-3
1501875093451169,-5,12,43,2,18,0,0,-18
1501875093460142,3,-14,9,-1,-20,-6,1,6
1501875093460142,1,3,-18,-6,-7,-7,2,21
1501875093475119,-3,17,-1,12,12,5,-3,-28
1501875093475119,1,-11,60,11,-5,-5,-2,25
1501875093476120,-3,4,7,-19,-3,-2,2,4
1501875093476120,1,4,-50,-2,5,0,-5,-14
1501875093497156,-4,-2,-16,2,10,-2,-4,-19
1501875093497156,2,-13,12,-5,-23,2,0,-6
1501875093499146,-6,-7,-44,24,13,-1,-4,1
1501875093499146,3,9,46,-25,2,9,8,22
1501875093511149,-4,-13,-31,-3,-8,-4,-11,-26
1501875093511149,-3,-3,41,-9,-10,-4,-1,10
1501875093520123,0,-13,-45,13,7,2,-2,-3
1501875093520123,-2,-1,-15,2,1,-1,-2,8
1501875093535129,-5,0,-23,-8,0,1,5,1
1501875093535129,-2,8,-29,1,-2,-1,-1,-22
1501875093536114,0,-9,2,-8,2,-3,-5,12
1501875093536114,-9,-14,8,7,-12,-5,-4,-31
1501875093557166,9,17,19,8,17,9,0,29
1501875093557166,-2,8,-15,-3,0,0,-5,-40
1501875093559115,-7,4,-11,-8,-9,-2,0,-10
1501875093559115,-3,-28,6,0,1,-4,-3,-3
1501875093571177,9,31,-6,-4,0,-4,5,25
1501875093571177,-5,-10,-27,0,-11,-3,-3,-7
1501875093580128,2,27,43,-10,9,-1,-1,11
1501875093580128,-10,-24,-16,3,-13,-7,-11,-33
1501875093595136,0,10,-13,-1,-15,4,9,23
1501875093595136,7,30,93,12,13,2,-5,1
1501875093596126,0,-38,-62,-15,4,-2,2,-7
1501875093596126,3,42,34,-12,-17,-2,-4,14
1501875093617158,-6,-61,-11,3,28,-2,5,-12
1501875093617158,2,9,-7,4,0,3,0,51
1501875093619118,-2,-26,-28,-11,-14,-3,-6,-30
1501875093619118,2,6,-3,12,-1,2,0,-6
1501875093631151,-1,19,3,-3,-3,-1,-1,8
1501875093631151,4,-28,14,-1,-2,-2,9,13
1501875093640155,-9,7,-11,-13,-6,-2,-5,-13
1501875093640155,-2,-5,-19,11,10,1,-1,3
1501875093655137,4,-11,0,2,-14,-4,2,-14
1501875093655137,-3,21,-53,-4,15,3,-4,-7
1501875093656121,2,-15,47,4,-6,1,4,8
1501875093656121,-5,-1,6,3,13,-3,7,37
1501875093677179,-2,15,30,-4,-4,-3,-17,-60
1501875093677179,0,-9,-45,3,-1,1,3,22
1501875093679121,3,9,0,-11,-2,2,-1,5
1501875093679121,-1,-1,-11,-1,0,1,0,4
1501875093691126,-4,16,53,-2,-5,-7,1,20
1501875093691126,0,-26,-48,-7,0,-3,-3,-27
1501875093700122,6,-2,-6,4,0,7,10,26
1501875093700122,-3,27,48,-4,-11,-5,-14,-29
1501875093715147,-1,-34,-2,4,3,-3,1,17
1501875093715147,-2,1,-32,0,-13,-3,-5,-9
1501875093716125,1,16,40,20,7,-7,-1,9
1501875093716125,0,-21,-7,-12,4,3,0,4
1501875093737163,4,6,-11,-12,-13,0,2,-6
1501875093737163,-5,-5,-29,-11,3,1,1,-4
1501875093739125,-1,-11,-9,-6,-4,1,4,1
1501875093739125,-1,-11,-12,3,-1,-7,-5,12
1501875093751135,-6,15,50,0,-12,-5,-6,-3
1501875093751135,-3,-10,-38,5,7,-2,-4,-28
1501875093760140,2,23,52,2,-1,2,1,4
1501875093760140,-3,-9,-13,4,-7,-2,-2,-13
1501875093775146,1,-2,-17,-6,7,0,1,-2
1501875093775146,1,21,23,3,-13,0,5,25
1501875093776128,0,-15,-10,-1,14,-2,-2,4
1501875093776128,-8,-5,-18,11,5,-7,-9,-35
1501875093797140,3,5,-45,-12,-4,2,-2,6
1501875093797140,-2,-8,-6,-8,-4,1,1,1
1501875093799128,-5,6,-43,-6,-4,-4,-3,-11
1501875093799128,8,0,43,-7,-13,1,10,30
1501875093820147,0,-3,-15,1,1,-4,-7,-19
1501875093820147,-8,-23,17,-2,-6,-2,-5,-12
1501875093821140,-2,7,-19,4,0,-4,-2,3
1501875093821140,1,2,-28,-10,6,2,1,-9
1501875093835146,-3,14,17,13,-13,-5,4,1
1501875093835146,-1,-13,3,0,23,3,4,5
1501875093836131,-2,2,26,6,7,1,-10,-9
1501875093836131,0,5,-3,2,5,2,0,11
1501875093857196,7,24,8,-1,1,3,6,13
1501875093857196,7,1,-15,0,1,-2,5,2
1501875093859131,-14,-23,-39,-7,-21,-2,-10,-27
1501875093859131,2,-1,-4,7,15,2,-1,0
1501875093880142,-7,-13,28,1,-12,-6,-3,0
1501875093880142,4,45,28,-15,9,1,5,-6
1501875093881134,7,11,10,7,-5,1,1,10
1501875093881134,-9,-31,-20,-20,-11,-5,0,-2
1501875093895150,5,5,-44,8,15,8,4,13
1501875093895150,-3,-3,16,1,-4,-7,-4,5
1501875093896142,1,22,28,2,0,0,4,-20
1501875093896142,-4,-18,56,11,1,-2,-9,-2
1501875093917205,-2,-8,22,-27,-15,-3,-5,15
1501875093917205,-1,2,5,7,-12,-1,-4,2
1501875093919170,1,-24,-74,-3,27,3,8,20
1501875093919170,-4,-2,-7,-2,-14,0,-3,-6
1501875093940146,-3,3,-9,13,18,1,-2,-22
1501875093940146,-1,4,17,-12,-19,-6,-6,1
1501875093941137,-1,-19,8,-3,-6,-2,0,3
1501875093941137,7,34,-14,8,-8,-2,9,14
1501875093954182,-5,-21,5,5,-2,2,-9,-28
1501875093954182,4,-6,12,4,25,3,-2,20
1501875093961211,-3,-8,-48,-3,-11,-4,-5,-7
1501875093961211,-3,11,42,-6,8,-1,-3,-38
1501875093977148,2,-1,25,-5,-19,0,4,2
1501875093977148,-5,-6,-18,6,-2,-2,2,28
1501875093979175,-4,-2,25,15,-9,-5,-7,-27
1501875093979175,-2,-30,0,-21,17,5,2,18
1501875094000157,-6,-11,-20,-6,8,-1,3,-8
1501875094000157,-1,-6,1,-3,-6,-6,-2,0
1501875094001141,2,11,25,2,0,0,1,20
1501875094001141,1,19,-4,5,-16,-2,0,-17
1501875094014142,5,-4,9,0,-10,-6,-7,10
1501875094014142,-6,-23,-14,-9,22,1,0,-7
1501875094021183,-4,8,-11,4,16,6,0,12
1501875094021183,5,8,-31,1,-5,0,5,5
1501875094037183,-8,-18,-19,-8,8,-1,-1,5
1501875094037183,2,25,10,-2,-43,-8,-4,-21
1501875094039164,5,-3,60,-9,17,0,2,22
1501875094039164,-5,-15,-21,3,2,1,-3,4
1501875094060155,-3,7,-36,-3,-6,-7,-7,-67
1501875094060155,-2,8,-26,21,20,0,1,10
1501875094061160,-5,-15,6,-26,-13,4,-3,-21
1501875094061160,3,14,-3,9,-14,-4,-2,-2
1501875094074152,-1,-17,-36,-9,14,4,-1,4
1501875094074152,-3,-8,24,7,-1,1,-2,-29
1501875094081158,-3,-6,11,-3,-9,-7,1,2
1501875094081158,9,9,0,3,-3,5,4,17
1501875094097168,2,-3,6,3,0,-2,4,29
1501875094097168,-1,11,6,8,-4,0,1,-3
1501875094099179,-5,-22,-20,-21,7,0,2,5
1501875094099179,-6,-6,-10,-9,-13,-5,-4,-19
1501875094120157,3,14,1,6,12,3,1,8
1501875094120157,4,1,44,3,3,4,-2,9
1501875094121178,-1,6,19,-4,-15,-5,-6,-28
1501875094121178,-8,31,18,6,6,-6,-4,26
1501875094134146,7,-15,-1,0,10,5,5,-1
1501875094134146,-2,-4,49,6,-5,3,-2,-6
1501875094141185,4,13,-13,4,-8,-2,2,7
1501875094141185,-4,-7,-40,-2,-8,-2,2,-5
1501875094157188,3,4,30,2,10,-1,1,35
1501875094157188,1,23,9,-2,-24,-6,1,5
1501875094159149,-3,-33,-28,6,16,9,-6,-6
1501875094159149,1,10,-17,1,-8,-6,-1,-19
1501875094180173,-9,-6,-12,-14,-16,-7,-7,2
1501875094180173,1,-10,-21,8,32,5,2,16
1501875094181152,0,35,53,-7,-11,-1,3,-6
1501875094181152,-4,-37,15,0,-6,-2,-5,2
1501875094194190,-4,8,-6,2,0,0,1,1
1501875094194190,1,4,-50,-12,12,3,0,3
1501875094201215,-1,-4,21,2,-14,-8,-2,5
1501875094201215,4,15,18,-3,11,3,-4,7
1501875094225154,-4,-4,12,-4,-19,-8,-4,-4
1501875094225154,-5,-16,-14,-14,-9,-2,-1,5
1501875094226154,4,13,-5,10,16,-2,3,9
1501875094226154,-1,-14,-17,4,-11,-4,-5,-34
1501875094247159,1,7,18,1,-15,1,-2,-11
1501875094247159,-4,-11,-53,-18,29,5,-1,4
1501875094249185,0,9,6,-3,-12,-2,-1,6
1501875094249185,3,-5,-14,-2,15,4,4,11
1501875094254170,-3,13,-47,6,-9,-2,3,11
1501875094254170,-7,-8,5,-8,-34,-11,-7,2
1501875094261229,7,6,-43,1,17,5,2,-4
1501875094261229,-7,-2,37,-3,3,0,-6,-11
1501875094277215,-3,-12,-4,3,7,1,-3,-16
1501875094277215,2,2,1,-8,-11,-5,-2,0
1501875094279159,0,3,-36,1,-11,-4,2,7
1501875094279159,-2,-28,-1,1,8,1,2,-6
1501875094300172,-2,8,64,8,4,0,-1,17
1501875094300172,-2,5,-12,-8,-2,-2,-1,-8
1501875094301158,0,2,-5,6,-1,-2,-2,-6
1501875094301158,3,8,-20,-7,12,3,5,12
1501875094313231,2,-15,9,-5,-3,-4,-1,14
1501875094313231,-1,13,-23,-5,-6,3,-2,-46
1501875094322196,0,-9,-1,3,11,3,1,5
1501875094322196,-1,-7,-34,-15,-22,-4,-2,5
1501875094337192,-1,16,5,7,4,-3,3,2
1501875094337192,-6,-18,24,5,-9,-8,-10,-16
1501875094339162,-4,-18,-32,7,7,-4,-3,-7
1501875094339162,5,18,85,-4,5,4,6,17
1501875094359232,4,12,18,-1,0,1,-6,-11
1501875094359232,-2,-4,-9,-2,-2,1,-2,-14
1501875094361169,1,10,25,0,-13,-4,-4,1
1501875094361169,-9,16,-23,7,-3,-5,-1,0
1501875094373227,-4,-52,-73,-5,11,6,5,3
1501875094373227,2,6,-11,-5,10,5,4,17
1501875094382204,-1,3,11,10,5,0,-3,1
1501875094382204,1,9,-4,-11,-5,1,-2,3
1501875094397180,-1,20,5,-6,-13,-4,-2,-33
1501875094397180,3,-11,-12,18,-3,-1,0,-26
1501875094399162,-2,-15,-37,-5,10,3,3,10
1501875094399162,-3,-10,58,4,1,-2,-2,-4
1501875094420194,-2,3,20,8,2,3,0,-2
1501875094420194,7,11,5,-8,-8,-3,2,22
1501875094421198,-3,7,44,2,-21,-9,-5,-3
1501875094421198,-2,-18,-44,-6,15,6,-1,-17
1501875094433190,-1,8,8,0,1,1,-2,4
1501875094433190,-3,-1,-3,5,0,-3,0,5
1501875094442204,0,5,24,-8,-4,2,1,-4
1501875094442204,0,-2,-16,3,0,-4,-1,9
1501875094457167,3,-16,1,-5,-2,-3,0,-4
1501875094457167,-8,-1,2,-5,-4,-2,-3,-3
1501875094459170,-3,-1,-11,12,-7,-3,0,-7
1501875094459170,-1,0,15,4,8,5,0,-7
1501875094480189,5,2,-20,-4,11,0,1,11
1501875094480189,-2,-12,32,-1,-6,0,-1,0
1501875094481169,-4,-8,18,3,-5,-3,-8,-46
1501875094481169,-1,14,39,-6,-2,-5,-4,-2
1501875094493236,-2,-2,-17,1,-3,-2,1,0
1501875094493236,4,-1,25,-14,-21,-4,0,44
1501875094502177,-7,2,-48,-4,25,4,-3,-44
1501875094502177,5,4,-11,8,5,1,3,-1
1501875094517212,-2,6,21,-2,-10,-4,-3,-5
1501875094517212,4,7,0,12,17,3,0,8
1501875094519173,2,17,-36,-7,-18,-4,1,22
1501875094519173,-1,-26,14,6,9,2,-3,2
1501875094540184,-3,-4,-63,-26,-14,-1,-1,1
1501875094540184,-7,-13,3,5,3,-2,-4,-20
1501875094541176,1,21,13,-7,-2,-1,3,28
1501875094541176,-6,-19,-41,3,-4,-6,-1,-26
1501875094553237,3,29,18,0,-6,-1,1,21
1501875094553237,-6,-24,-6,2,4,2,-10,-36
1501875094562211,-4,-32,-20,-22,-8,0,-3,5
1501875094562211,0,5,-36,2,2,-5,-1,1
1501875094577174,2,11,35,10,2,2,3,10
1501875094577174,1,10,14,-5,8,-5,0,-12
1501875094579174,4,0,-27,5,-6,-3,0,16
1501875094579174,-5,-15,11,-21,-2,2,-6,-20
1501875094599235,-4,-3,-5,4,-6,0,-2,-12
1501875094599235,-1,-16,-25,-14,-8,-7,-2,7
1501875094601208,0,4,19,9,7,1,-1,-1
1501875094601208,2,7,-8,-6,-14,-3,1,21
1501875094613242,-5,-6,-7,-3,6,-5,-4,-14
1501875094613242,0,4,13,4,-4,-1,-1,1
1501875094622191,0,-4,22,0,-3,0,1,11
1501875094622191,1,21,1,2,-2,-2,2,19
1501875094637241,-2,-24,-25,9,-3,2,0,-33
1501875094637241,-1,1,-15,-10,-10,3,4,12
1501875094639188,0,0,-15,-6,14,-2,-4,-7
1501875094639188,2,-5,-23,9,0,-1,3,23
1501875094660191,0,1,29,-8,-5,-3,-5,-17
1501875094660191,-5,1,13,4,3,-2,-3,-24
1501875094661216,-1,8,8,-5,-8,-2,-3,0
1501875094661216,-5,-13,22,4,8,1,-2,-17
1501875094673217,1,0,-25,-8,-2,-2,4,27
1501875094673217,2,3,-5,5,9,0,1,12
1501875094682178,-4,-7,12,9,23,7,-2,-39
1501875094682178,-1,16,5,0,-12,-2,-3,-12
1501875094697180,0,-2,39,3,6,2,1,-3
1501875094697180,-1,-1,-19,-4,-21,-5,-2,-1
1501875094699190,0,4,-11,-2,-1,-1,-1,12
1501875094699190,-1,-15,-31,-3,1,-4,-2,4
1501875094719226,-1,-1,-22,0,3,-1,-3,-6
1501875094719226,2,7,3,0,-2,1,0,10
1501875094721219,1,-6,0,0,-3,0,1,9
1501875094721219,0,4,6,-1,-5,-3,-3,-9
1501875094742246,-3,1,-3,-3,-1,0,-3,5
1501875094742246,1,0,4,5,11,1,1,3
1501875094744211,-2,-5,13,-4,-6,-1,1,0
1501875094744211,-1,0,-1,-4,-8,0,-1,2
1501875094756230,-1,0,-3,0,-1,-3,-1,7
1501875094756230,0,1,-5,0,4,1,1,-6
1501875094763250,0,-3,6,-5,-8,0,-1,-5
1501875094763250,-1,2,6,2,-4,-4,-1,5
1501875094780217,-3,-2,7,-1,4,0,-2,0
1501875094780217,3,3,6,-1,3,4,0,6
1501875094781185,-2,-6,-7,-3,-9,-4,-2,-1
1501875094781185,0,2,13,-1,2,0,0,0
1501875094803205,-2,-3,-28,-1,3,1,0,-6
1501875094803205,0,4,57,5,-2,0,-3,2
1501875094805194,-1,-4,12,-7,-9,-4,-2,1
1501875094805194,0,2,16,0,0,-2,-2,1
1501875094817187,-1,0,2,1,0,1,-1,-3
1501875094817187,1,-6,-28,-1,4,0,1,0
1501875094819187,-3,-3,-27,-2,-3,-3,-1,0
1501875094819187,-2,-3,-8,-6,-3,0,-2,-2
1501875094840208,-1,-3,2,-2,-2,0,-1,1
1501875094840208,0,0,-1,-2,1,1,1,-2
1501875094846219,0,0,5,0,0,0,1,0
1501875094846219,0,6,8,7,-3,1,0,2
1501875094862248,-2,-2,1,-5,2,-2,-4,-4
1501875094862248,-1,3,-7,1,-3,-2,1,0
1501875094864225,-2,-7,19,-4,-1,-2,0,-2
1501875094864225,-3,-8,-6,0,-4,-2,-2,0
1501875094876254,2,4,-4,-1,0,0,0,0
1501875094876254,-1,-3,8,-3,-1,-4,-2,-3
1501875094883256,-1,-3,1,-2,-2,0,-1,1
1501875094883256,-1,4,16,6,5,2,0,0
1501875094899257,-1,-6,-46,-12,-10,-3,-2,-1
1501875094899257,2,10,-21,9,8,4,2,3
1501875094901191,2,1,67,2,4,0,1,-1
1501875094901191,-3,-7,-15,1,-3,-4,-2,-2
1501875094922233,1,-1,-26,11,9,1,-2,-1
1501875094922233,-3,-2,-4,-12,-24,-6,-3,-3
1501875094924198,2,2,-29,6,7,3,2,3
1501875094924198,4,4,31,-6,-2,5,3,3
1501875094936264,-3,1,26,3,-16,-7,-5,-1
1501875094936264,-4,-9,-8,-2,9,-2,1,-2
1501875094945202,-2,9,18,0,2,-2,-3,0
1501875094945202,-2,-16,-42,-7,-3,0,-1,-1
1501875094960195,-1,0,8,-2,1,1,1,2
1501875094960195,-1,0,7,-1,-8,-3,-2,-2
1501875094961195,-2,5,-16,-2,-9,-1,-2,-1
1501875094961195,-1,2,-26,-3,6,2,2,-1
1501875094982263,-2,-5,80,-1,-3,-2,-2,-2
1501875094982263,0,2,-22,-4,3,-1,-3,-1
1501875094984205,-2,-8,-13,-2,-4,-3,-3,-2
1501875094984205,1,-2,3,-2,-3,0,-2,-1
1501875094996222,-2,-2,52,2,-2,-2,-3,-2
1501875094996222,-1,-5,-4,3,4,2,0,1
1501875095005200,-1,6,4,1,1,1,0,0
1501875095005200,-3,-4,-22,-9,-7,-5,-4,-5
1501875095019237,-1,3,-34,-8,1,-1,-1,-3
1501875095019237,1,2,-9,5,2,-1,3,2
1501875095021198,0,-8,-9,-2,-8,-4,-4,-2
1501875095021198,0,3,14,-3,1,-1,2,2
1501875095042238,-1,0,3,6,7,3,3,0
1501875095042238,-2,0,-2,-2,1,3,-2,-1
1501875095044221,0,2,-5,20,3,0,1,1
1501875095044221,-2,-2,-12,-9,-2,-3,-4,-4
1501875095056248,-5,-7,3,54,-1,-2,-1,-3
1501875095056248,-4,-9,-16,-80,-6,-7,-5,-3
1501875095065201,1,8,16,-30,2,0,1,0
1501875095065201,-8,-4,-14,-17,-1,-3,-2,0
1501875095087236,15,2,-6,46,-3,-2,-1,0
1501875095087236,2,2,23,46,2,2,1,7
1501875095089214,-15,-8,-14,17,-8,-5,-3,-13
1501875095089214,3,7,-44,-47,7,-1,1,2
1501875095102264,-4,1,17,-3,2,0,-2,-3
1501875095102264,3,-6,11,13,-1,-1,-1,1
1501875095104204,6,0,-12,-10,1,4,2,2
1501875095104204,1,5,35,22,12,3,0,0
