timestamp,emg1,emg2,emg3,emg4,emg5,emg6,emg7,emg8
1501876310452603,2,2,-12,-51,2,-7,28,73
1501876310452603,4,41,-18,74,-3,-3,-8,-37
1501876310456622,4,-14,-6,-79,-8,0,17,91
1501876310456622,-4,0,8,6,-9,-8,2,-75
1501876310457592,6,-3,26,38,8,4,23,-20
1501876310457592,-2,-6,6,-32,-6,-2,5,-19
1501876310457592,5,22,-3,8,18,0,-18,-49
1501876310457592,-5,44,1,15,8,4,-11,-5
1501876310466624,8,-51,-26,-12,-16,-13,-29,-47
1501876310466624,-4,11,-19,-36,-7,-4,9,21
1501876310469627,-16,-60,13,72,7,-6,-18,-68
1501876310469627,15,85,22,-31,-5,5,15,11
1501876310484624,4,-49,-3,-13,18,-8,16,107
1501876310484624,-7,13,-8,-4,-32,7,-12,29
1501876310493614,5,12,-21,12,-11,-4,-2,-32
1501876310493614,-1,-28,-10,-9,24,-10,-6,7
1501876310501619,-11,23,20,23,-20,12,8,43
1501876310501619,-12,-7,16,-55,-1,-7,-14,-51
1501876310523625,1,-13,-41,-31,9,3,-4,-5
1501876310523625,-1,-25,21,-6,4,-7,-18,-32
1501876310564590,15,-31,23,26,1,-5,-28,-48
1501876310564590,-3,-7,-15,19,-6,0,4,-32
1501876310568654,-15,-3,-9,-67,-6,-4,-1,82
1501876310568654,15,2,19,33,-9,-10,7,30
1501876310569603,-5,44,-5,-36,-18,-6,-6,-18
1501876310569603,-7,-47,-2,6,3,-4,-1,11
1501876310570605,5,19,-27,-19,8,9,13,-23
1501876310570605,-1,47,23,-5,-2,-9,-3,2
1501876310574634,10,-30,6,6,9,13,9,57
1501876310574634,9,66,11,40,-7,-3,-16,-43
1501876310583590,-32,-80,-32,-62,14,0,-8,-54
1501876310583590,-12,-18,-19,37,-22,-7,10,78
1501876310589636,8,51,28,3,6,3,-2,-36
1501876310589636,1,-40,-36,-12,-9,-4,9,34
1501876310604634,11,21,44,46,11,5,2,9
1501876310604634,-11,10,4,11,8,5,-11,-54
1501876310612663,11,-7,-19,-51,-27,-17,4,58
1501876310612663,2,-18,10,17,19,15,-11,2
1501876310635655,7,48,3,-22,-29,-11,3,-42
1501876310635655,-8,-14,16,10,20,4,-15,8
1501876310636607,-4,-11,-42,-12,1,7,31,58
1501876310636607,-4,11,15,-37,-5,-4,-10,24
1501876310650666,-2,-12,-3,43,-23,-8,-9,-37
1501876310650666,1,29,-18,-13,20,4,-4,-23
1501876310651602,-12,-6,20,46,-4,4,7,-42
1501876310651602,14,31,-8,-32,-35,-6,11,106
1501876310672666,8,-56,9,38,50,19,2,33
1501876310672666,13,-60,14,-26,-8,0,-8,-25
1501876310673596,-21,-23,-53,4,-3,-11,-9,-10
1501876310673596,-8,21,11,-17,-15,-5,-5,-42
1501876310695664,-5,-17,-2,2,-17,-11,-11,-30
1501876310695664,1,-5,-14,-74,-3,6,-1,-22
1501876310696609,3,-35,-9,39,34,0,-10,82
1501876310696609,-20,-34,-2,-5,-9,7,4,-51
1501876310710662,17,57,12,13,-6,-2,25,80
1501876310710662,-2,-33,-18,-7,15,-2,2,-6
1501876310711600,11,23,33,57,-21,-8,-8,19
1501876310711600,14,26,5,-15,47,16,2,1
1501876310732641,-7,3,-14,-58,-10,-4,-3,52
1501876310732641,-17,-29,8,2,-21,-1,2,-31
1501876310733599,-1,4,-5,7,-14,-5,1,-16
1501876310733599,1,-11,0,13,10,-8,-9,46
1501876310755665,6,42,8,23,15,7,13,52
1501876310755665,13,22,-15,-4,-10,1,7,-23
1501876310756602,8,37,17,-20,1,-5,-19,76
1501876310756602,0,3,13,14,11,5,4,21
1501876310770646,0,-24,-8,-8,7,2,9,-16
1501876310770646,-14,2,-5,14,-14,-6,-22,-6
1501876310771607,-2,0,-16,-5,-13,2,28,-10
1501876310771607,-5,2,1,-9,2,-4,-2,-49
1501876310792664,0,-4,12,16,-6,0,-18,-8
1501876310792664,12,14,-5,9,-21,-4,21,77
1501876310793644,-20,-12,7,-25,28,8,-10,-106
1501876310793644,-22,13,-12,57,-29,-11,-26,-81
1501876310815625,6,-24,11,2,5,-3,-17,7
1501876310815625,1,62,7,-45,15,7,14,10
1501876310816605,-8,-63,-51,-45,-19,-11,-62,8
1501876310816605,2,6,6,-4,0,-3,81,12
1501876310830664,-3,-7,13,30,-20,-8,-21,-55
1501876310830664,-4,20,-14,17,16,0,-22,-43
1501876310831624,-2,62,23,-10,10,13,24,-10
1501876310831624,-7,-32,-8,-12,5,-7,-36,45
1501876310852676,3,23,5,7,-7,3,-7,41
1501876310852676,2,-27,16,16,-10,-9,-20,-52
1501876310853607,-3,33,-7,18,1,-4,11,-19
1501876310853607,14,-72,-23,-11,-16,4,10,42
1501876310875641,-32,-2,-22,-5,25,-9,-6,-75
1501876310875641,4,23,3,11,5,2,6,59
1501876310876608,-3,-28,-9,-59,-11,-5,-38,11
1501876310876608,-6,29,20,-6,-1,-10,-10,-42
1501876310890677,12,6,16,-5,-17,6,22,-6
1501876310890677,-6,-24,-20,-17,7,-4,9,28
1501876310891610,-11,-42,4,39,15,-2,1,-29
1501876310891610,1,15,2,6,14,4,6,4
1501876310912670,9,3,7,-2,-2,-2,-3,58
1501876310912670,-4,51,29,25,-2,1,0,-35
1501876310913610,5,-6,13,43,12,3,32,17
1501876310913610,-8,-30,-23,12,-14,-10,-26,39
1501876310935656,-7,-11,-5,32,-14,-6,-2,-35
1501876310935656,0,0,-10,-5,14,4,-2,-44
1501876310936648,5,-2,-9,-11,-9,-4,-2,4
1501876310936648,-2,-12,-1,-6,8,3,-15,-6
1501876310950654,26,98,-1,-8,18,4,12,30
1501876310950654,-15,-108,-7,10,-18,-2,-4,36
1501876310951639,-9,-39,-5,40,-5,-4,4,-31
1501876310951639,7,44,-11,-67,-5,-5,8,115
1501876310972685,-21,-5,-7,7,-1,0,-3,-90
1501876310972685,1,1,6,4,1,-4,-19,19
1501876310973627,7,50,15,8,-2,6,4,-27
1501876310973627,-2,-9,0,-8,23,6,-3,-6
1501876310995663,3,17,-1,26,-30,-11,-5,-40
1501876310995663,2,-31,-18,12,8,5,-3,40
1501876310996619,-12,-15,-1,-39,6,4,17,28
1501876310996619,9,47,21,55,-29,-4,-7,8
1501876311010679,-9,-58,-43,-82,11,0,-10,11
1501876311010679,5,0,15,16,-5,-4,2,7
1501876311011630,7,29,-16,-19,-13,1,13,-1
1501876311011630,-1,11,12,-18,-2,6,-3,-34
1501876311032618,4,20,15,38,12,0,-4,52
1501876311032618,-9,-1,-11,-27,-28,-7,-24,-35
1501876311033617,-8,6,6,-1,22,-9,5,10
1501876311033617,-10,-32,-13,-3,-12,8,36,-46
1501876311055666,12,28,0,9,-3,8,-2,64
1501876311055666,-8,11,7,32,-3,-8,-10,-74
1501876311056618,2,-10,9,-68,-8,0,-10,12
1501876311056618,3,22,-19,6,-1,-1,-12,-8
1501876311070663,-7,-66,26,31,19,-1,-14,-3
1501876311070663,3,10,-44,-59,-11,4,39,29
1501876311071620,-5,4,-2,12,14,-1,-19,-10
1501876311071620,1,-6,1,-3,-29,-5,-4,3
1501876311092689,3,-19,-5,-30,-7,2,1,14
1501876311092689,10,-2,21,15,10,-1,0,78
1501876311093633,-9,-16,8,39,-16,4,11,-29
1501876311093633,9,35,16,-7,31,-5,-1,15
1501876311115621,-6,-31,4,33,-2,2,0,2
1501876311115621,-1,-32,-18,12,-24,0,1,9
1501876311116622,11,-1,4,-14,26,1,5,13
1501876311116622,-9,-14,-13,0,-17,-11,-28,-35
1501876311129633,2,24,9,-7,-11,-2,30,28
1501876311129633,10,19,22,24,-8,3,5,10
1501876311137688,-14,-64,-4,0,1,-2,-8,-64
1501876311137688,-6,0,14,21,16,5,-4,16
1501876311152636,-7,-15,-32,-5,-1,-4,-6,-11
1501876311152636,-1,50,14,-10,-8,-6,-9,-32
1501876311153633,6,-21,-11,36,-4,1,2,38
1501876311153633,-2,-13,8,10,4,-2,-2,-20
1501876311175686,-10,-11,-16,-42,-1,-4,-8,-40
1501876311175686,6,29,2,7,7,5,17,76
1501876311176625,4,39,26,12,-3,-6,-19,-14
1501876311176625,-3,-62,-22,-3,-7,4,5,0
1501876311189637,-7,-1,16,7,-9,-4,19,-18
1501876311189637,-11,-27,-11,-28,-10,-9,-22,-47
1501876311197670,7,29,5,-15,3,7,10,13
1501876311197670,3,19,-18,21,-1,-3,-17,4
1501876311212674,6,1,-2,-2,-13,-3,8,7
1501876311212674,1,12,10,24,8,-3,10,7
1501876311213627,-17,-14,-13,-81,1,0,-12,-25
1501876311213627,6,15,16,6,-16,-7,-14,39
1501876311235632,4,-3,-11,-6,30,10,-2,-12
1501876311235632,-10,-28,-15,28,-6,0,5,-5
1501876311236643,6,19,-2,-7,-3,-2,-5,19
1501876311236643,-2,-20,-9,-8,-3,-1,27,29
1501876311249642,-19,21,-6,15,-11,-15,-25,-81
1501876311249642,7,20,2,-45,6,7,-9,-7
1501876311257630,-18,-52,-9,42,-4,-8,-3,-10
1501876311257630,2,15,-6,-20,5,4,14,-11
1501876311272668,3,-34,10,41,-1,-2,-9,42
1501876311272668,5,35,8,-33,7,-1,0,20
1501876311273630,-2,-27,-12,-2,-17,-3,-1,11
1501876311273630,5,41,20,27,8,4,20,4
1501876311295699,-10,-5,2,-39,2,2,-14,-71
1501876311295699,-9,-50,-26,6,7,-3,3,9
1501876311296633,8,15,23,-7,-12,-6,-6,47
1501876311296633,-4,-3,-28,29,11,-1,-1,-36
1501876311309633,2,44,12,-36,-13,2,3,30
1501876311309633,0,-10,20,35,4,1,3,-19
1501876311317667,1,2,-10,9,23,3,17,10
1501876311317667,-5,-7,-4,0,-11,-4,-18,-21
1501876311332667,5,38,9,12,6,-1,7,20
1501876311332667,4,-5,-3,15,23,7,4,22
1501876311333635,2,37,7,34,-5,2,3,-19
1501876311333635,12,17,3,-8,0,3,-25,39
1501876311355669,3,-11,-6,-1,-4,-2,31,-32
1501876311355669,-14,-20,0,8,-9,-5,-13,-2
1501876311356637,6,-8,1,-2,15,15,1,34
1501876311356637,-9,-3,2,6,-9,-6,-6,-39
1501876311369680,3,39,-10,-65,-13,-2,-4,-21
1501876311369680,4,-25,-3,-3,2,-3,36,76
1501876311377704,-2,0,6,-8,-20,-5,-25,-89
1501876311377704,-8,-9,-3,-28,0,0,8,4
1501876311392649,0,0,-3,28,7,2,-12,38
1501876311392649,3,20,-5,-21,3,-6,-15,-30
1501876311393671,-2,-8,15,-16,-17,-3,12,20
1501876311393671,5,23,-26,-22,-15,-3,6,2
1501876311415673,-2,-56,12,27,24,-1,-5,49
1501876311415673,-2,-15,-13,-5,-5,-4,-21,-52
1501876311416640,-6,-17,1,3,0,-6,-6,-5
1501876311416640,-3,-22,16,15,-9,-6,3,-24
1501876311438710,2,12,-18,2,-7,-4,4,43
1501876311438710,5,41,-1,-19,1,9,5,12
1501876311439671,-2,-19,4,40,2,-2,11,29
1501876311439671,-16,-45,-3,-40,-6,-2,-19,-29
1501876311452680,8,10,4,10,-1,-3,-6,31
1501876311452680,-4,-1,8,18,-2,-7,-2,-17
1501876311453642,-5,-19,-28,-66,-8,-1,-6,-53
1501876311453642,5,17,-1,10,2,2,9,11
1501876311475714,-2,-17,14,17,4,-3,-4,-14
1501876311475714,-2,-4,-6,4,1,6,-3,-17
1501876311476657,3,32,-13,-11,-13,-1,9,11
1501876311476657,1,-4,11,-1,29,-1,0,16
1501876311489684,-5,-13,-29,-50,-15,6,7,-20
1501876311489684,4,3,25,25,-6,-7,-8,2
1501876311497702,-1,4,-22,13,-3,-1,1,8
1501876311497702,1,18,36,-21,1,1,3,11
1501876311512715,2,-17,-8,20,-3,-7,-5,4
1501876311512715,6,9,-4,34,11,4,-5,33
1501876311513645,5,-17,-6,-34,-1,4,11,56
1501876311513645,-10,-25,-15,11,-6,-11,-14,-22
1501876311535689,5,37,15,15,5,4,0,6
1501876311535689,-12,-30,-14,-31,-24,0,9,-50
1501876311536647,5,11,13,47,27,1,-4,34
1501876311536647,4,-1,4,-17,-6,2,15,-2
1501876311558713,-5,6,-8,-28,-5,-4,-9,-12
1501876311558713,-2,-37,-1,-11,-14,-4,-4,-3
1501876311559659,-1,21,-13,16,-1,-7,1,1
1501876311559659,0,7,10,-2,3,9,0,14
1501876311580650,0,3,-8,-3,-15,-2,-9,5
1501876311580650,-9,-19,-36,26,-2,-2,1,-32
1501876311581649,-3,32,13,-17,7,1,-3,-18
1501876311581649,-4,-17,-1,-5,-4,-5,-14,-52
1501876311595694,-2,-2,3,34,3,0,8,30
1501876311595694,4,-20,-17,-25,-21,-7,1,-3
1501876311596662,-5,-6,4,-2,23,3,-23,-2
1501876311596662,8,33,12,17,6,3,19,73
1501876311618712,1,-10,-4,22,-9,3,1,-20
1501876311618712,-4,2,4,-13,15,-2,-10,-27
1501876311619654,-3,-3,8,24,-21,-2,-3,-9
1501876311619654,-1,-9,-10,-3,-4,-2,-2,3
1501876311640715,0,-7,6,-19,0,-2,4,20
1501876311640715,-2,27,10,4,4,-7,-1,-6
1501876311641685,10,24,14,12,13,10,12,40
1501876311641685,-11,-37,4,8,-6,1,-9,-45
1501876311663654,4,4,9,6,5,-2,-25,22
1501876311663654,-8,-20,-24,-14,-8,1,31,3
1501876311664667,2,13,1,-11,-14,-2,0,24
1501876311664667,-2,8,10,30,26,2,3,2
1501876311678723,-5,-28,-16,-16,-2,-1,-16,-26
1501876311678723,2,22,12,-20,15,5,2,26
1501876311679666,5,14,-1,2,-18,-3,-1,3
1501876311679666,0,-14,-17,2,-10,-4,6,-6
1501876311700722,-2,-14,-2,-8,5,-1,2,-11
1501876311700722,9,13,33,28,19,5,-2,30
1501876311701657,-4,-11,-25,-7,-6,-4,3,-39
1501876311701657,-4,23,-6,-22,6,3,-9,-38
1501876311714702,-7,-28,-13,-21,-6,-2,3,0
1501876311714702,1,27,3,-9,-14,-6,-6,-17
1501876311722718,0,-46,17,23,-2,3,2,7
1501876311722718,-2,-3,-12,1,14,-1,2,4
1501876311737700,-1,58,6,0,-7,-11,-6,26
1501876311737700,-5,-82,-12,-27,-6,7,-12,14
1501876311738675,-1,-2,-20,-12,-3,-3,12,-9
1501876311738675,-7,-2,13,-1,-2,-1,8,-3
1501876311760664,-2,-10,-13,7,7,3,9,-10
1501876311760664,-1,22,8,4,-17,-7,-17,-8
1501876311762663,6,26,12,6,-5,-4,0,1
1501876311762663,-4,-23,-13,14,-1,2,-3,29
1501876311774660,-8,-6,-7,-63,-6,0,-16,-68
1501876311774660,3,6,6,13,14,-3,-13,-8
1501876311783660,-5,-14,-8,-5,-4,4,34,10
1501876311783660,4,17,-9,7,-7,-4,-7,-8
1501876311797724,-2,-12,17,0,0,0,-3,15
1501876311797724,-1,6,-8,-2,-5,2,-1,9
1501876311798694,2,-1,5,-15,3,-8,2,15
1501876311798694,-2,-11,-1,7,-9,0,-2,9
1501876311820725,5,17,13,56,9,2,-11,-17
1501876311820725,-7,-6,-23,-6,-24,-8,-3,-80
1501876311821698,5,-3,-21,3,22,5,-10,-18
1501876311821698,6,-4,24,-6,-6,-3,22,27
1501876311834724,1,2,-21,-8,-8,-1,3,-43
1501876311834724,-7,-5,9,26,11,0,0,27
1501876311842731,-9,26,22,19,-10,-2,-29,-30
1501876311842731,8,-30,-34,-33,8,-5,6,35
1501876311857706,0,-20,4,2,9,3,8,-18
1501876311857706,-2,6,7,-16,4,-1,4,38
1501876311858667,2,5,13,50,-16,-3,-1,17
1501876311858667,-2,14,11,-15,-5,-1,-8,-6
1501876311880736,3,8,-22,38,23,2,-8,29
1501876311880736,2,11,3,-30,-19,4,-11,-23
1501876311881702,-8,-4,8,21,16,-2,4,-8
1501876311881702,4,15,7,-35,-10,1,-6,10
1501876311894713,-1,-3,-8,8,-22,-9,12,34
1501876311894713,-2,15,6,0,1,-2,16,-13
1501876311902733,6,18,4,9,13,6,-6,-4
1501876311902733,-8,-29,10,8,-2,-3,-3,16
1501876311917706,1,3,-6,-1,0,3,4,8
1501876311917706,-4,-8,-18,-15,3,-2,2,-23
1501876311918703,4,-1,16,26,-22,-4,-8,26
1501876311918703,8,27,-23,-76,9,3,-4,3
1501876311940731,-22,-39,10,-4,-13,-3,-5,-27
1501876311940731,11,9,-22,-4,6,-3,-8,23
1501876311941708,-17,-47,-2,-6,0,-12,4,-21
1501876311941708,1,30,2,52,19,8,-17,-31
1501876311954732,8,31,19,-36,-23,0,21,5
1501876311954732,-10,-53,5,37,2,-8,-5,11
1501876311962733,-2,-24,-39,-50,-10,-2,-27,12
1501876311962733,-3,17,-2,-23,1,-6,23,-14
1501876311977679,-1,14,11,-11,-7,-7,-12,-16
1501876311977679,15,8,19,2,14,20,5,39
1501876311978705,2,12,-2,-29,0,-8,7,-14
1501876311978705,7,-12,-5,52,-6,-1,-1,49
1501876312001698,-11,-15,-12,-53,-15,-10,-16,-41
1501876312001698,-5,52,11,13,11,3,10,34
1501876312001698,-10,-2,-6,-57,-12,-1,-23,-31
1501876312001698,-6,-12,-6,-15,3,-5,2,-59
1501876312023749,4,-14,4,35,5,-3,-12,3
1501876312023749,1,2,-2,32,-2,-7,2,18
1501876312024686,1,11,-10,-25,-7,5,19,1
1501876312024686,-4,-4,3,30,4,3,-9,-6
1501876312037743,7,4,-7,-11,-8,4,4,20
1501876312037743,5,1,13,8,23,-3,0,-9
1501876312038677,-7,-6,-25,-64,-9,1,-1,-27
1501876312038677,4,9,8,8,-25,-2,-1,7
1501876312060721,1,-10,7,37,19,1,-1,40
1501876312060721,-16,-24,-4,-34,-15,-4,-2,-37
1501876312061691,10,31,26,20,6,-4,-11,-7
1501876312061691,-2,-7,0,9,26,-2,-3,-8
1501876312083750,9,-1,-15,-44,-13,1,11,10
1501876312083750,10,-4,2,-22,-15,8,7,6
1501876312084693,0,-5,20,42,15,-5,9,37
1501876312084693,-2,-9,-2,16,-21,-12,-4,5
1501876312097735,-1,1,11,21,13,8,6,22
1501876312097735,4,16,-1,-2,4,1,-2,0
1501876312098712,-1,-23,-11,-10,-12,-2,10,42
1501876312098712,-15,5,19,20,25,6,-16,-101
1501876312120745,0,7,-21,11,-3,2,5,-14
1501876312120745,-1,-1,3,-39,-25,-4,-4,-2
1501876312121721,-1,1,17,59,17,-2,-10,-4
1501876312121721,-1,-16,-28,-53,-6,0,13,40
1501876312143725,5,8,11,24,1,-2,-1,2
1501876312143725,-2,11,9,12,7,5,0,-41
1501876312144696,-1,-7,-11,11,-14,-6,-4,14
1501876312144696,4,0,-7,-31,-17,-3,-2,23
1501876312157756,-9,-5,-18,-5,18,0,3,18
1501876312157756,-14,-11,-34,-32,-18,-10,-14,-61
1501876312158683,1,2,10,-2,3,0,2,9
1501876312158683,-4,14,12,18,14,3,-10,-83
1501876312180750,-6,-21,9,7,-7,0,-3,-9
1501876312180750,-5,-14,-20,-51,-17,-7,-2,13
1501876312181722,-3,12,-11,-49,13,2,-9,-20
1501876312181722,9,8,3,30,4,3,10,21
1501876312203728,1,4,-13,-18,-13,-1,9,9
1501876312203728,1,-14,15,40,23,-5,-12,-18
1501876312204698,-3,9,-26,-29,-29,-1,8,23
1501876312204698,0,-5,-1,1,-10,2,-1,48
1501876312217750,-1,-6,19,24,15,0,-4,-33
1501876312217750,5,2,-19,19,9,5,13,40
1501876312218700,-2,-11,8,0,-5,-5,-6,-4
1501876312218700,0,-2,-2,-13,-3,-4,-11,7
1501876312240759,-9,5,-4,5,2,4,7,-6
1501876312240759,0,1,12,8,4,0,-1,11
1501876312241726,3,-1,-10,7,6,6,-1,-19
1501876312241726,15,22,13,22,-13,-5,5,46
1501876312263752,-6,-8,6,-24,-2,-1,0,-49
1501876312263752,1,-8,-5,18,8,2,0,14
1501876312264701,1,17,3,6,-8,-3,-6,-14
1501876312264701,-9,-17,1,-22,-14,-2,9,0
1501876312277757,3,18,11,-1,7,-6,-7,-8
1501876312277757,-4,-37,8,48,11,8,15,-2
1501876312278722,-2,-7,-38,-45,17,0,-2,29
1501876312278722,-3,-2,-11,-8,-15,-4,-11,-29
1501876312300709,7,0,20,9,-22,-9,-8,31
1501876312300709,-5,34,-13,2,19,5,7,-43
1501876312301727,-7,-23,25,9,3,6,-3,10
1501876312301727,-2,-16,-6,13,-14,-7,-9,10
1501876312323751,1,22,-18,3,-13,-2,12,54
1501876312323751,0,-12,28,4,17,-2,-16,-43
1501876312324711,2,-5,1,5,-5,-2,-7,-14
1501876312324711,-7,7,-2,-12,2,2,-5,1
1501876312337758,4,-17,10,48,-8,4,15,-1
1501876312337758,6,8,-8,-49,-12,-14,-8,54
1501876312338712,-3,4,-10,7,3,0,9,-51
1501876312338712,-5,-16,-5,-13,-5,-6,-5,-18
1501876312361696,-5,-13,5,34,22,3,-6,22
1501876312361696,-2,6,-20,-8,-7,3,-17,1
1501876312361696,-6,-5,10,17,-4,1,2,-39
1501876312361696,3,20,5,-14,-5,-4,-13,14
1501876312383735,-7,-31,-20,-13,8,-10,0,-63
1501876312383735,-5,-2,16,-69,-15,0,14,30
1501876312384709,6,15,-14,-1,-6,-4,-8,1
1501876312384709,-4,-19,-17,8,4,-2,8,34
1501876312397759,-10,13,-5,-9,6,5,-20,-62
1501876312397759,0,-15,-8,22,4,4,7,36
1501876312406732,5,19,21,14,1,0,7,-9
1501876312406732,-5,-6,-21,-7,3,0,-1,4
1501876312420757,-3,-18,-6,-18,7,-1,-10,15
1501876312420757,2,31,6,16,-12,-4,-3,-2
1501876312421737,-5,-11,4,6,-10,-2,3,-5
1501876312421737,11,7,10,-2,2,2,9,21
1501876312443699,-3,-8,-21,-10,-3,1,-5,-42
1501876312443699,-5,-6,15,30,-2,0,11,-4
1501876312445711,6,0,8,4,13,-4,-6,-4
1501876312445711,-12,4,3,-5,-3,0,-7,-25
1501876312457733,12,-11,7,-1,11,4,-3,28
1501876312457733,-1,-6,-7,-16,-6,-5,-2,24
1501876312466736,-2,-7,-10,14,-10,1,0,-21
1501876312466736,-3,8,7,1,-1,-2,0,18
1501876312480759,1,1,1,-15,2,1,-5,-2
1501876312480759,10,7,-4,2,-1,3,-7,-8
1501876312482701,-11,-21,14,6,7,-8,-1,13
1501876312482701,4,4,-5,17,13,2,24,5
1501876312502771,-8,9,-5,-5,-31,-9,-10,-4
1501876312502771,-5,11,0,7,3,-5,-13,-19
1501876312511739,3,-6,-8,-19,2,6,-2,4
1501876312511739,1,-14,6,17,26,6,-3,-1
1501876312517705,5,10,0,-14,2,0,15,86
1501876312517705,-5,-26,-2,22,-15,-7,-1,-74
1501876312525704,1,21,4,5,3,-4,-14,21
1501876312525704,-4,-14,10,2,-20,-1,3,-60
1501876312540764,0,3,-16,-34,1,2,3,33
1501876312540764,-1,10,-12,0,6,0,11,1
1501876312542705,9,6,-6,-52,-5,-1,-6,17
1501876312542705,-9,-1,1,2,-4,-5,-18,-49
1501876312563712,3,-3,9,7,-3,0,11,-2
1501876312563712,-4,-18,-4,3,-2,3,5,6
1501876312565707,2,1,1,8,8,0,4,12
1501876312565707,3,19,6,-20,5,-2,-6,-25
1501876312577728,4,2,3,39,-17,-7,-4,-3
1501876312577728,2,-4,-3,-23,11,0,-2,46
1501876312586707,-6,-4,-7,4,-3,0,1,-48
1501876312586707,5,2,12,-14,1,8,7,19
1501876312600718,-15,-8,-26,-2,-9,-8,-5,-42
1501876312600718,6,-1,8,14,9,5,4,28
1501876312602708,2,10,3,23,-14,-5,-6,24
1501876312602708,-7,-13,-7,-28,-16,1,8,-2
1501876312623751,-3,-3,6,0,21,1,-7,-9
1501876312623751,1,20,4,-4,-16,-8,-11,-3
1501876312624724,-6,-2,6,17,16,5,14,7
1501876312624724,4,10,-8,15,3,0,9,3
1501876312637729,0,3,4,-9,-10,-2,-2,12
1501876312637729,-9,-22,-27,-10,3,-3,-12,-16
1501876312646711,-4,-13,-7,-7,3,0,-1,-8
1501876312646711,-3,7,-3,3,3,-4,-13,-2
1501876312660785,7,21,13,-12,-1,4,15,-28
1501876312660785,-7,-24,5,9,-10,-5,2,4
1501876312662721,5,-5,-17,-55,0,-2,-1,18
1501876312662721,-1,-7,-12,-2,4,0,-8,-7
1501876312683755,-7,9,6,-8,-12,-5,-4,-3
1501876312683755,8,3,8,2,10,-1,4,-9
1501876312685711,-2,-7,-7,10,-21,-3,0,-8
1501876312685711,2,0,-2,18,14,-5,4,22
1501876312697733,-1,-23,-9,-16,0,-2,-1,4
1501876312697733,3,43,-10,-10,-23,-6,-16,43
1501876312706715,-8,-19,12,4,9,5,3,-50
1501876312706715,2,3,7,-7,-2,3,-9,1
1501876312720716,-4,-2,14,27,0,1,-6,-9
1501876312720716,1,-21,-2,-3,5,-4,-3,26
1501876312722726,-6,-8,0,12,0,-1,15,-17
1501876312722726,-1,-7,1,3,-11,-4,-5,-1
1501876312743757,-7,9,-3,-22,29,4,-1,-7
1501876312743757,5,16,-2,8,-16,-1,2,-41
1501876312744730,-9,-17,1,2,-7,-7,-18,36
1501876312744730,-1,-1,-10,-14,-6,-5,7,-1
1501876312757747,5,11,-9,4,6,1,8,52
1501876312757747,-14,-5,5,-21,-10,-2,-5,-55
1501876312766717,-2,-20,-3,8,4,-7,-7,7
1501876312766717,2,29,8,-1,-20,4,-1,9
1501876312780751,-6,-36,8,23,1,5,-4,3
1501876312780751,4,23,-5,-42,14,5,14,10
1501876312782731,-2,-2,-10,-1,-2,-3,-12,-32
1501876312782731,-3,-3,-2,20,7,-6,1,14
1501876312803732,-2,-10,-10,-53,-16,-1,3,-14
1501876312803732,1,12,16,32,-4,0,3,10
1501876312804738,-3,-1,-7,-16,-9,-3,0,11
1501876312804738,5,-1,18,-7,-2,0,2,33
1501876312817728,8,11,-3,27,-1,1,3,15
1501876312817728,-10,-11,-26,-18,3,-5,-13,-59
1501876312825734,4,-3,6,7,8,6,-3,38
1501876312825734,-3,-10,6,69,23,10,14,-36
1501876312840721,-4,-7,-9,-48,-41,-10,-5,-27
1501876312840721,1,0,0,5,16,5,5,24
1501876312842724,6,24,-6,2,17,7,0,19
1501876312842724,-12,-22,-15,-11,-11,-6,-10,-18
1501876312863761,5,4,16,15,1,-5,-6,56
1501876312863761,-4,0,1,-4,-16,-4,4,-24
1501876312865724,3,12,-4,7,-12,-1,-5,-36
1501876312865724,-2,-20,-5,-11,5,1,3,22
1501876312877724,-4,25,1,-6,-1,0,-8,-52
1501876312877724,-10,-36,16,37,4,-1,0,6
1501876312886726,-2,-7,-10,-35,-4,-1,-5,-13
1501876312886726,6,-1,-28,16,-8,-3,-4,4
1501876312900786,-7,-5,1,-44,10,-3,-5,-5
1501876312900786,2,-3,-4,-25,-14,0,4,21
1501876312902737,-5,-2,13,53,27,5,4,1
1501876312902737,4,32,4,-71,-17,-3,-3,-9
1501876312930768,6,-11,-1,56,18,0,0,1
1501876312930768,-4,1,3,-33,-4,-1,1,17
1501876312932727,-2,6,-1,-9,-17,2,11,18
1501876312932727,7,5,11,2,-5,-8,-5,-5
1501876312936787,-12,-10,-1,25,6,-1,-10,-51
1501876312936787,0,-11,-6,-10,12,3,-4,-3
1501876312946736,-5,-17,2,-2,-9,-6,-3,9
1501876312946736,-1,-1,-5,-10,5,-1,-1,-16
1501876312960796,2,0,-1,-1,-11,-3,-1,-3
1501876312960796,4,-2,-3,16,3,0,2,4
1501876312962739,-5,4,-13,-24,-1,-1,-2,6
1501876312962739,12,-1,14,13,-3,4,12,62
1501876312983772,-6,28,5,13,5,-1,-5,-89
1501876312983772,-10,-18,-5,17,-2,-3,-4,-14
1501876312985730,12,16,11,-24,-4,-1,12,13
1501876312985730,-14,-1,-8,-14,11,1,-16,-19
1501876313005797,-4,-6,-30,-13,-11,-6,1,3
1501876313005797,7,41,7,35,-13,0,-2,22
1501876313007733,2,-41,14,8,0,-4,-6,-31
1501876313007733,1,-11,-26,-17,1,6,15,8
1501876313020800,7,10,6,10,3,2,1,30
1501876313020800,-8,-10,4,11,-5,-8,-9,-38
1501876313022741,4,24,-5,-34,-12,-6,2,7
1501876313022741,-2,-5,10,22,6,1,3,12
1501876313043745,4,-10,1,16,27,0,-2,0
1501876313043745,-10,-12,-6,-5,-1,6,-6,-18
1501876313044733,-7,0,-8,10,-10,2,4,12
1501876313044733,-9,-6,-5,-20,-21,-9,-13,-51
1501876313065775,12,16,6,13,25,3,1,40
1501876313065775,14,-10,-1,-23,-14,3,7,47
1501876313067746,-6,0,-13,2,-1,0,8,-14
1501876313067746,-5,12,12,20,-2,-4,6,15
1501876313080769,10,-3,2,-14,-16,-1,2,25
1501876313080769,-4,10,5,0,27,3,-10,-34
1501876313082738,-4,-19,-16,-4,-11,-4,7,15
1501876313082738,-2,-1,6,-1,9,-4,-9,-55
1501876313103778,-5,9,-13,-4,-15,1,2,40
1501876313103778,-3,-18,8,0,-15,-8,-6,6
1501876313104752,0,1,-7,-15,18,2,-5,19
1501876313104752,1,18,8,16,3,6,4,-24
1501876313125781,-1,-4,11,-20,-11,2,-2,-8
1501876313125781,2,-3,-3,10,6,5,5,13
1501876313127752,-5,6,1,22,-12,-2,3,12
1501876313127752,-7,-16,-13,-32,-17,-10,-16,-70
1501876313140806,0,12,2,15,-10,-10,5,3
1501876313140806,-3,-2,-2,-22,3,2,-6,-22
1501876313147766,-1,1,11,16,9,-1,-10,-25
1501876313147766,-4,-19,-5,17,-2,-2,6,36
1501876313163782,-3,8,4,4,-3,0,0,-21
1501876313163782,6,13,5,10,-2,-5,2,19
1501876313164754,10,-9,10,-26,-9,-2,-6,9
1501876313164754,-4,-11,-16,2,9,3,-5,2
1501876313193787,-2,6,3,-1,-4,-1,2,25
1501876313193787,-3,-22,-15,0,-3,-4,8,7
1501876313194744,-3,3,5,8,9,1,-6,-53
1501876313194744,7,-6,-3,-5,4,0,1,22
1501876313200744,-1,-11,-1,-3,-3,0,5,11
1501876313200744,4,3,-10,-9,17,4,-1,6
1501876313207758,-5,-28,-2,15,-21,-7,-3,40
1501876313207758,-3,-5,20,1,4,0,4,6
1501876313223788,-4,-1,-19,-18,-1,2,-5,-15
1501876313223788,-2,2,7,0,9,-1,-5,3
1501876313224744,4,7,-19,5,1,0,6,42
1501876313224744,0,12,2,1,6,0,-4,-29
1501876313245815,-5,-11,6,-3,-6,2,0,-17
1501876313245815,-7,-33,-1,-3,-6,-4,2,-1
1501876313247754,1,15,4,9,-5,-7,-4,9
1501876313247754,3,-4,1,-5,0,0,-6,-7
1501876313260794,-2,11,-15,-7,-5,5,2,6
1501876313260794,3,12,-4,-6,6,-2,-10,-35
1501876313266813,6,17,-7,-7,-17,-4,0,-10
1501876313266813,-7,-17,13,3,7,-3,8,44
1501876313283815,3,0,1,2,0,-4,-8,-25
1501876313283815,-7,-10,-8,-5,-3,-1,-1,-3
1501876313284761,0,7,2,-5,-3,0,-4,-15
1501876313284761,1,15,6,7,5,-6,-2,22
1501876313305814,-7,-32,-7,-4,-7,0,4,1
1501876313305814,-7,14,-7,5,2,3,1,-45
1501876313307760,-3,16,3,11,0,3,-1,-8
1501876313307760,4,-7,-19,-10,0,1,-3,-6
1501876313320799,-3,-28,11,-10,6,1,2,41
1501876313320799,-2,-18,-8,-5,-19,-8,0,42
1501876313327772,-6,1,8,5,17,4,-2,-44
1501876313327772,3,6,-17,-2,-15,-3,-3,26
1501876313343815,-3,12,-7,-25,4,-2,8,-2
1501876313343815,12,21,2,4,-5,-3,-6,19
1501876313344789,-8,-11,4,-7,9,0,1,-9
1501876313344789,6,4,6,9,2,-1,3,40
1501876313365754,-2,9,9,7,-1,-4,-10,-70
1501876313365754,-10,-16,12,-1,3,3,5,6
1501876313367764,3,1,-14,1,-2,-1,3,5
1501876313367764,-2,-1,-9,-8,-13,-2,-13,-12
1501876313380827,-3,-4,8,16,33,1,1,-6
1501876313380827,15,0,15,8,-4,-1,1,50
1501876313387781,6,24,-2,-1,-5,6,10,21
1501876313387781,0,-28,0,-14,-2,0,6,18
1501876313403793,-7,-1,-9,-4,-13,-9,-11,-40
1501876313403793,-3,10,10,8,5,2,7,10
1501876313404765,1,0,-5,4,1,-2,-6,-3
1501876313404765,-2,4,11,7,-8,-3,-7,-49
1501876313425824,-1,-3,-2,9,13,-1,-4,17
1501876313425824,2,26,-5,0,7,10,10,2
1501876313427767,-6,-30,-11,-13,-10,1,-7,-8
1501876313427767,-2,-2,8,29,6,0,-1,14
1501876313440812,6,-3,-3,-11,-19,-3,-1,-11
1501876313440812,3,4,-10,-8,-21,-8,2,-5
1501876313447792,-6,31,14,7,20,-3,-5,27
1501876313447792,-4,1,-2,-8,22,12,7,-49
1501876313463797,-6,-27,1,9,-6,1,-6,37
1501876313463797,-5,-5,4,-1,0,1,3,-24
1501876313464781,1,-11,-19,-7,-20,-7,-4,-7
1501876313464781,4,8,5,-7,11,-3,-1,32
1501876313485826,-9,0,-11,17,-9,-1,0,-32
1501876313485826,6,18,0,-20,-6,-3,4,-20
1501876313487772,-5,-20,14,1,4,-5,-15,-4
1501876313487772,-5,0,-12,-6,5,2,-2,9
1501876313499798,6,-2,-7,-1,-11,-1,6,-7
1501876313499798,2,-19,11,8,4,10,3,-12
1501876313508795,23,22,-9,16,-13,-5,-1,5
1501876313508795,-15,5,-9,-26,-9,-2,2,-1
1501876313523825,-6,13,24,6,6,-1,0,17
1501876313523825,2,-11,-32,-24,-16,-11,-15,-9
1501876313524796,26,1,9,5,13,6,1,-12
1501876313524796,-8,14,1,2,-12,-8,-4,10
1501876313546834,12,-8,-12,-3,2,5,4,16
1501876313546834,-12,4,-11,-5,-2,-4,0,22
1501876313547768,-14,-14,6,-6,7,0,-4,-26
1501876313547768,4,11,-5,3,-14,-2,-3,-16
1501876313559802,7,-4,7,-7,4,-1,1,18
1501876313559802,-11,9,-3,10,-8,-4,6,6
1501876313568798,-9,0,5,-2,-1,6,-3,-21
1501876313568798,1,-23,-5,-13,-9,-11,-4,-4
1501876313583813,-7,6,-8,-7,9,6,-3,-3
1501876313583813,2,-7,2,-4,-3,0,-5,-10
1501876313584772,-8,2,-5,4,-2,-4,7,7
1501876313584772,-14,-11,2,-6,-2,2,0,-21
1501876313605766,15,29,-3,-2,-7,-4,-5,24
1501876313605766,3,-14,13,11,7,-1,1,8
1501876313607766,-3,-9,-13,-17,-5,-1,7,6
1501876313607766,1,-18,-8,8,3,-2,-8,-28
1501876313619807,-4,-2,-4,-4,5,1,5,13
1501876313619807,-6,25,11,4,11,-2,0,-18
1501876313628801,-1,-18,4,3,-6,0,-7,-17
1501876313628801,4,4,-4,1,-7,0,1,-26
1501876313643831,-5,-9,2,0,0,-5,-8,-10
1501876313643831,-2,8,0,-3,-2,1,-4,1
1501876313644773,-8,-5,1,1,0,0,2,-9
1501876313644773,10,9,-17,-6,-1,0,7,15
1501876313665813,-7,-28,4,6,-5,-2,-4,-12
1501876313665813,3,26,-5,-11,3,-1,-2,-17
1501876313667783,6,9,0,-7,-13,-7,8,52
1501876313667783,-13,-31,6,11,11,2,-11,-16
1501876313679815,-4,6,-4,-3,7,4,-2,-7
1501876313679815,3,-13,-1,4,0,-1,-2,6
1501876313688806,1,10,6,2,-5,-4,4,17
1501876313688806,-5,30,2,6,2,-1,-10,19
1501876313703814,-3,-26,6,-6,-5,-5,-3,18
1501876313703814,2,-18,-29,0,7,1,-2,8
1501876313704809,-2,3,6,-2,-11,1,1,14
1501876313704809,1,0,0,-2,3,-2,1,-32
1501876313725843,-6,15,3,-2,-9,-2,-5,-35
1501876313725843,0,13,-1,-5,-1,-10,-4,14
1501876313727790,-5,-28,-4,3,9,9,5,10
1501876313727790,1,-1,9,5,-5,1,6,39
1501876313739816,1,4,-9,-5,-3,-4,0,-2
1501876313739816,6,2,-5,-10,-5,-1,6,11
1501876313748790,-8,0,-1,5,4,-2,-11,-66
1501876313748790,-1,4,0,-7,-6,-1,0,37
1501876313763815,5,9,1,8,6,0,2,-2
1501876313763815,-11,-24,5,4,-2,-1,-5,4
1501876313765776,-9,23,5,0,3,1,-8,-66
1501876313765776,5,-26,0,4,-5,2,4,31
1501876313785839,-1,18,-7,-7,-6,-1,4,15
1501876313785839,-18,-37,4,3,2,-8,-4,3
1501876313787779,6,9,-5,-1,-9,4,1,31
1501876313787779,-4,-5,12,2,18,0,-2,-45
1501876313799817,-3,6,-8,4,-5,3,5,-2
1501876313799817,4,7,-6,-8,-2,2,-9,-52
1501876313808810,6,-18,3,14,12,-3,0,19
1501876313808810,2,14,-1,-7,-11,-4,5,23
1501876313823824,-6,-15,-5,-19,-7,-1,-6,-50
1501876313823824,4,33,6,12,-7,4,0,12
1501876313824794,9,-24,-7,-10,13,-6,-2,17
1501876313824794,-10,10,3,0,2,3,-5,-31
1501876313845844,3,2,-3,16,-8,-5,0,40
1501876313845844,-9,1,10,7,8,0,0,-50
1501876313847788,-7,-6,-5,6,-8,0,5,16
1501876313847788,1,-40,-12,-26,-11,-5,-10,-28
1501876313859847,-2,11,4,4,3,-9,-5,10
1501876313859847,7,-9,1,-1,6,10,6,12
1501876313868782,-5,12,5,6,3,-1,0,20
1501876313868782,5,13,4,3,-1,-4,0,-34
1501876313883848,-2,-5,-21,-21,-23,-5,-7,-10
1501876313883848,3,12,-2,0,23,3,4,-1
1501876313884783,-3,-11,3,-3,1,0,2,15
1501876313884783,-6,-19,-3,3,-12,2,3,16
1501876313905827,12,8,8,-5,-2,-1,-3,28
1501876313905827,-18,-34,-6,0,-5,-7,-11,-55
1501876313907816,1,18,4,-1,-1,3,-1,-31
1501876313907816,11,27,-10,-2,3,-1,2,26
1501876313928809,-10,-8,0,7,3,3,8,8
1501876313928809,1,8,2,0,-24,-1,1,4
1501876313929785,-3,-6,-1,5,12,-7,-5,-1
1501876313929785,7,14,10,1,6,8,0,1
1501876313943818,6,-11,-9,-11,-1,3,8,50
1501876313943818,-4,10,-8,-2,-7,-5,-14,-32
1501876313944786,-6,2,-4,-1,-2,1,-1,-18
1501876313944786,3,1,8,2,-3,1,2,22
1501876313965820,-3,2,9,0,6,-5,-3,-21
1501876313965820,2,-17,-10,-8,-8,-5,1,12
1501876313967788,5,-4,-3,22,30,0,4,17
1501876313967788,-2,8,-2,-44,-23,1,0,-5
1501876313988833,0,-7,6,5,5,1,0,-17
1501876313988833,3,17,5,7,-5,-2,0,21
1501876313989788,-8,6,0,-15,-18,-4,-5,5
1501876313989788,2,8,-3,12,6,0,5,4
1501876314002856,-4,-9,1,0,-5,-3,-9,-33
1501876314002856,12,9,2,-2,1,-1,6,53
1501876314009796,-1,-5,-3,-1,13,4,0,-30
1501876314009796,-1,7,-7,11,22,5,3,12
1501876314025829,5,2,8,9,-11,-11,-5,15
1501876314025829,-9,7,-4,-19,12,10,2,-4
1501876314027801,-4,-20,-2,-5,-17,-1,-7,-13
1501876314027801,-1,-18,-7,1,-19,-12,-1,-5
1501876314048834,-2,-7,-4,-2,7,7,0,-6
1501876314048834,8,22,10,-12,-2,-3,4,53
1501876314049792,1,6,1,-6,-17,-2,-2,-30
1501876314049792,-5,-18,-1,6,-17,-11,-5,14
1501876314062857,-3,-18,0,-4,31,7,0,-6
1501876314062857,1,5,-15,-10,-22,-8,3,17
1501876314069810,-2,17,-2,-8,9,1,-9,-7
1501876314069810,-2,12,7,24,3,-4,-3,-12
1501876314085864,6,-39,-3,-6,-6,4,6,30
1501876314085864,-10,-24,-4,2,4,3,-2,-24
1501876314087794,-1,-6,2,1,-9,-6,3,18
1501876314087794,-4,-13,-6,-6,7,-1,-3,7
1501876314115798,-1,27,-3,-8,-7,2,-3,-4
1501876314115798,4,-13,-6,-9,-2,0,4,-19
1501876314117809,-4,-19,0,10,7,1,-2,20
1501876314117809,1,18,0,0,-3,-3,-2,-11
1501876314122862,-5,19,4,-4,-11,-2,-1,-35
1501876314122862,10,-11,5,10,25,4,1,-6
1501876314129834,-1,20,-3,-2,-9,-2,-3,0
1501876314129834,-1,-6,-4,-4,10,5,4,24
1501876314145830,-6,-16,-18,-1,-9,-4,-5,-6
1501876314145830,1,-5,-2,0,-6,-8,-5,0
1501876314147798,-4,-11,0,-1,-14,-3,3,3
1501876314147798,4,18,0,-4,23,2,0,-16
1501876314168868,-5,-10,-7,-4,-4,-1,4,0
1501876314168868,-1,4,13,9,-4,4,0,21
1501876314169799,0,10,-2,-12,-3,0,-3,14
1501876314169799,10,-2,-20,-2,-10,-3,2,-18
1501876314182849,-2,15,3,2,2,-5,-3,-1
1501876314182849,-2,3,-2,4,4,-5,-5,-22
1501876314189799,3,12,20,8,-2,5,5,2
1501876314189799,-6,-6,-13,-17,-9,-3,0,-17
1501876314205865,2,1,7,-4,-3,-2,-6,8
1501876314205865,-2,3,-1,-12,0,0,-5,-4
1501876314207840,-2,-26,-14,0,5,-3,1,13
1501876314207840,-1,-9,8,-8,-9,-1,3,24
1501876314228831,-10,-1,0,2,-1,-6,-6,-62
1501876314228831,2,6,-3,2,1,0,4,48
1501876314229804,-1,-14,-4,-2,-6,-2,-4,-23
1501876314229804,-3,9,-1,7,8,5,-6,-11
1501876314242823,-2,-2,3,-2,-18,-4,2,8
1501876314242823,-1,-8,6,2,14,-7,-1,21
1501876314249850,4,15,-8,0,-3,1,-3,-11
1501876314249850,-3,-8,-5,4,-11,-1,0,12
1501876314265841,2,3,2,1,20,9,0,-5
1501876314265841,-1,15,-3,15,-6,-5,2,-3
1501876314267805,1,-17,-12,-43,-23,-3,2,7
1501876314267805,-7,0,11,9,-8,-3,0,-1
1501876314288878,0,-20,-5,5,12,2,4,36
1501876314288878,-8,-13,-4,5,5,0,-6,-49
1501876314289806,-1,6,-6,-22,-22,-5,-1,7
1501876314289806,-3,4,6,1,21,2,-5,-18
1501876314302805,6,27,6,1,1,-2,4,11
1501876314302805,-6,-49,-7,9,11,6,-1,-14
1501876314309851,4,0,-4,7,0,-4,4,25
1501876314309851,0,5,1,-6,-12,-2,-7,19
1501876314325867,0,-8,-7,-2,-13,-6,0,-10
1501876314325867,-3,10,1,-9,-6,-5,-7,-34
1501876314327821,-6,9,-3,6,11,9,-1,-6
1501876314327821,1,8,16,12,-2,-2,4,8
1501876314348852,0,-11,-23,-15,0,0,-2,-3
1501876314348852,5,6,2,-1,-14,-5,6,52
1501876314349812,-8,-13,2,1,1,-6,-7,-54
1501876314349812,-2,-14,-1,10,18,3,-5,12
1501876314362820,-1,8,8,-9,-6,1,-6,-29
1501876314362820,2,11,1,-1,-4,5,1,6
1501876314369852,0,1,-6,3,-4,-4,-1,2
1501876314369852,-1,-3,-11,-2,-5,-5,-1,3
1501876314385844,-1,0,5,6,15,1,0,0
1501876314385844,0,6,1,-9,-25,-1,0,-7
1501876314387814,-2,2,1,-1,19,-2,2,25
1501876314387814,-3,-10,-1,6,-9,-5,-8,-37
1501876314408884,1,-3,6,11,10,5,5,20
1501876314408884,-2,9,7,5,-10,6,4,13
1501876314409813,2,10,-7,-18,0,-2,-3,-36
1501876314409813,-3,-15,-8,-6,-25,-8,3,4
1501876314421885,1,-9,-4,4,19,-2,-10,3
1501876314421885,-2,-7,-4,0,14,-2,-5,-23
1501876314431814,-3,1,3,5,9,-5,-1,2
1501876314431814,-2,-5,-4,-4,-1,11,4,2
1501876314445885,0,23,6,-1,-18,-4,0,24
1501876314445885,-4,-2,4,-10,-11,-2,-4,-47
1501876314447826,-4,-25,-16,3,-3,3,-1,9
1501876314447826,-1,2,-6,-23,18,-2,-1,0
1501876314468856,-3,-7,-4,4,-9,1,-1,-2
1501876314468856,7,2,-3,-13,5,-1,8,19
1501876314469817,3,21,10,14,-1,1,-2,9
1501876314469817,0,-10,5,4,-28,-3,-6,-33
1501876314481857,-8,-8,-4,-5,24,3,-3,-5
1501876314481857,0,-5,-9,3,9,-1,5,23
1501876314490885,1,4,3,2,0,0,1,8
1501876314490885,4,4,0,4,-2,-3,-3,-2
1501876314505856,4,-9,2,-5,-7,-3,2,18
1501876314505856,-6,22,6,4,-12,-4,-6,-16
1501876314507821,4,-14,-4,-3,2,-5,-3,-1
1501876314507821,-5,-2,-9,4,-1,0,0,5
1501876314528896,1,-10,-3,-1,-9,4,3,-10
1501876314528896,-1,-2,-2,-16,-10,0,-1,9
1501876314529820,-4,-1,1,5,14,-1,-3,-10
1501876314529820,4,12,1,-2,0,-4,-4,6
1501876314541890,-12,-6,7,-2,-5,1,-3,-42
1501876314541890,5,5,-2,5,0,2,-3,2
1501876314550842,-1,0,5,4,-13,-3,2,-4
1501876314550842,-4,-8,-5,-13,28,-1,0,4
1501876314565858,2,12,3,3,-7,2,4,25
1501876314565858,-2,-1,-1,-1,7,-2,-1,-13
1501876314567845,-2,1,1,-1,-12,-3,-1,-6
1501876314567845,3,11,0,2,6,0,1,12
1501876314588884,-2,-3,-1,-8,-8,0,-2,3
1501876314588884,4,-10,0,8,-7,-6,-4,12
1501876314589824,-5,-2,-7,-12,1,4,-1,-11
1501876314589824,5,5,-1,0,-4,4,8,14
1501876314601883,1,-4,-1,2,7,-5,-3,16
1501876314601883,-6,-5,-12,-3,-6,2,-2,-13
1501876314610863,1,-2,1,-6,-10,1,4,8
1501876314610863,-3,-15,1,4,7,-1,-2,-4
1501876314625873,-4,-15,-4,0,-14,-12,-8,-18
1501876314625873,-6,-5,1,0,-17,-1,-2,-12
1501876314627826,1,16,2,-4,7,4,0,8
1501876314627826,2,-1,0,-1,8,-2,-2,22
1501876314648897,-1,0,-1,-2,-11,-7,1,-39
1501876314648897,-5,-4,0,8,7,1,-1,20
1501876314649828,1,3,1,1,-7,-1,-1,-4
1501876314649828,-4,1,-1,-5,-18,-3,4,-5
1501876314661827,0,12,-3,7,17,9,-5,-5
1501876314661827,1,12,7,-3,3,-3,-8,-7
1501876314670863,0,-2,4,6,3,-2,0,28
1501876314670863,-8,-2,-2,4,-4,-5,-10,-45
1501876314685899,6,-4,-8,-11,7,5,8,27
1501876314685899,-5,-5,-6,-15,5,-4,-3,-16
1501876314687850,1,-3,4,-3,-9,3,0,1
1501876314687850,2,-12,-3,16,10,2,5,14
1501876314708895,-5,1,0,-18,-11,-2,-2,-28
1501876314708895,0,11,1,7,4,2,1,3
1501876314709834,-2,-19,1,-2,-6,-7,-5,-1
1501876314709834,4,2,2,-3,6,1,0,15
1501876314721872,3,-14,2,11,-7,-1,4,7
1501876314721872,-4,-5,-5,-4,-3,-8,-2,-13
1501876314730887,5,16,0,5,9,3,-1,11
1501876314730887,-6,-17,-6,-4,5,3,1,-7
1501876314745876,2,1,6,8,0,0,3,-7
1501876314745876,-1,0,-8,-2,-1,1,0,5
1501876314747852,-8,-2,-4,1,-16,-6,-6,-20
1501876314747852,1,3,2,-7,6,5,2,9
1501876314768908,1,20,5,7,6,1,-1,25
1501876314768908,3,-19,-3,4,0,-1,1,15
1501876314769838,-6,4,-7,-14,-8,-7,-3,-23
1501876314769838,-4,-5,1,-8,-5,-1,0,9
1501876314781875,-2,4,-5,0,-3,3,-2,-10
1501876314781875,4,-3,6,11,10,5,5,16
1501876314790888,-6,-2,-3,-8,15,1,-12,-36
1501876314790888,-2,8,-1,-5,-19,-5,-6,-11
1501876314805910,-4,-8,-5,-5,1,-4,-1,5
1501876314805910,2,-9,2,1,-2,-1,-2,2
1501876314807873,3,-2,-1,3,-9,-3,3,8
1501876314807873,-7,-2,0,-1,17,-2,0,-10
1501876314828909,4,6,2,-1,-7,2,1,38
1501876314828909,0,-2,-4,-4,6,2,0,-23
1501876314829837,1,10,5,-1,0,-4,-1,-10
1501876314829837,1,-21,-4,1,-4,1,-3,-13
1501876314841897,-3,-4,-3,1,-5,-5,-3,5
1501876314841897,-3,-3,-5,-1,2,-2,1,13
1501876314850855,0,1,4,4,9,2,1,24
1501876314850855,2,12,6,6,-6,-3,-3,-8
1501876314865841,2,7,1,0,2,0,3,-1
1501876314865841,-5,-14,-7,-14,-17,-3,-4,3
1501876314867852,-5,-1,-3,7,15,3,0,-21
1501876314867852,2,0,-3,-2,-7,-3,3,24
1501876314888885,-4,-5,-8,1,1,-5,-13,-65
1501876314888885,0,10,0,-9,-6,-2,-2,0
1501876314889842,1,-8,-2,-1,0,0,4,21
1501876314889842,3,16,7,-2,-6,-1,4,-49
1501876314910908,-1,-3,3,3,1,3,1,31
1501876314910908,-8,-6,2,0,3,0,-7,3
1501876314912852,-3,-10,-12,-5,-11,-3,1,-4
1501876314912852,-2,-1,-2,5,0,-5,-1,-5
1501876314925885,4,5,2,3,14,2,3,9
1501876314925885,-1,-3,3,-10,-5,1,-1,-7
1501876314927855,0,-8,1,2,0,2,1,-1
1501876314927855,-5,7,-6,-4,-4,-1,-9,-9
1501876314948880,-2,-9,11,2,-2,-8,-1,0
1501876314948880,-5,6,1,-6,8,6,-2,-22
1501876314949858,-2,-4,4,8,0,-1,3,-13
1501876314949858,0,-4,-10,-6,-6,2,-2,3
1501876314970920,-4,13,0,-4,4,-3,-4,-8
1501876314970920,4,-6,-2,8,-6,-3,0,12
1501876314972856,5,-3,1,-5,0,0,1,2
1501876314972856,-4,1,2,-1,-10,-1,-1,20
1501876314985908,1,2,-3,-5,-11,-2,-1,18
1501876314985908,1,3,4,7,7,-1,0,-10
1501876314987867,0,-4,0,-5,-5,-1,-2,3
1501876314987867,6,-2,-7,-1,-4,1,5,27
1501876315008916,-12,-18,-4,-7,0,2,-7,-26
1501876315008916,0,8,0,4,0,-1,4,7
1501876315009847,-2,10,3,3,5,-1,-9,-32
1501876315009847,-4,-18,-3,-2,-6,0,-2,6
1501876315030914,-3,-5,-3,-2,-1,-4,1,2
1501876315030914,-1,-7,-8,-1,6,1,0,-28
1501876315032862,-1,0,-7,-1,-9,-8,0,18
1501876315032862,-1,7,3,2,18,9,2,8
1501876315045869,-1,-2,-8,-1,-12,0,-2,-16
1501876315045869,0,-1,3,0,-1,-2,-2,7
1501876315051913,1,10,-1,-3,-6,1,0,0
1501876315051913,2,-5,0,-1,-8,-2,0,4
1501876315068917,-5,-16,-4,1,4,-3,1,-9
1501876315068917,0,1,-3,-1,-1,-2,-3,-4
1501876315069859,2,0,3,-2,8,4,7,20
1501876315069859,-4,6,-2,-2,-4,-6,-8,-6
1501876315090920,-1,-1,-1,-1,-7,0,-3,-4
1501876315090920,-4,0,7,2,1,-1,-3,-23
1501876315092864,-3,3,-13,-3,-5,-2,-6,13
1501876315092864,-1,-12,1,-4,-4,-3,-4,-3
1501876315105867,0,28,7,2,8,2,4,-3
1501876315105867,1,-13,-1,2,-6,-1,4,16
1501876315111895,-12,-3,-3,1,3,-6,-9,-20
1501876315111895,3,-3,0,-7,-5,4,5,26
1501876315128921,3,5,-3,2,-1,3,3,3
1501876315128921,7,16,2,-1,0,-3,1,24
1501876315129855,-1,-11,8,3,2,-1,2,5
1501876315129855,-1,-4,2,2,-4,-6,-9,-11
1501876315150929,-4,-6,-17,-10,-7,-3,-9,-32
1501876315150929,-1,3,-7,-4,-2,3,4,22
1501876315152875,2,3,-3,-3,-11,0,-3,-9
1501876315152875,-5,-13,-2,-1,13,-2,4,4
1501876315165872,0,3,8,8,4,0,-4,18
1501876315165872,-3,-9,-4,5,-1,-3,-1,7
1501876315171892,-3,3,-1,-16,-9,1,-2,-38
1501876315171892,5,16,2,2,-1,0,3,13
1501876315188918,6,2,7,0,-9,0,4,33
1501876315188918,-7,-8,-18,-7,17,-1,-2,-5
1501876315189858,8,1,1,10,-3,3,-6,23
1501876315189858,-9,8,5,-2,-5,-6,-5,-62
1501876315211905,1,-16,6,4,2,2,1,12
1501876315211905,2,-7,-12,-10,-11,2,4,50
1501876315212869,-11,-7,-1,-4,7,3,4,-52
1501876315212869,5,26,-5,-1,-6,-3,-1,-3
1501876315225879,-4,-28,3,-3,-3,-9,-6,-5
1501876315225879,-3,6,4,0,-3,-1,-5,-53
1501876315231897,2,-6,4,5,7,-1,5,25
1501876315231897,0,-1,-3,-3,-1,-2,0,38
1501876315248936,-7,7,-2,-2,-2,1,0,-43
1501876315248936,0,-2,-2,0,-6,2,-3,-10
1501876315249871,1,-5,18,8,12,-1,3,36
1501876315249871,5,-8,13,13,2,2,2,7
1501876315270930,0,2,-10,2,-4,-1,8,11
1501876315270930,0,6,0,-16,-15,-8,-6,37
1501876315272874,-5,-8,-9,-9,1,5,-3,-52
1501876315272874,2,-7,18,6,6,6,6,27
1501876315284934,-3,9,-10,-2,-2,-4,2,36
1501876315284934,-6,-1,8,10,2,-3,-9,-84
1501876315293865,0,-2,8,4,-7,-8,-2,20
1501876315293865,-4,-18,-39,-17,-3,1,-2,-13
1501876315308906,0,-5,-2,-3,4,1,-5,7
1501876315308906,3,13,5,-3,2,-2,3,34
1501876315309880,0,2,-5,-1,-3,2,6,12
1501876315309880,-2,-10,2,4,2,-2,-5,0
1501876315330938,3,3,-9,-3,5,-1,-2,-58
1501876315330938,-4,-2,9,-2,0,2,1,-13
1501876315332866,-8,-9,-9,-4,-3,-3,-12,-11
1501876315332866,1,10,8,2,-1,0,-1,-6
1501876315345882,2,-2,-18,-5,-7,-3,5,14
1501876315345882,-3,0,6,0,0,-1,-9,-7
1501876315351887,-1,-1,1,-1,-3,-5,-1,20
1501876315351887,-3,4,-13,-5,-4,0,-1,-67
1501876315368910,2,12,12,1,1,3,0,41
1501876315368910,-8,-29,-8,-3,-2,-2,-2,-23
1501876315369869,12,11,-6,-1,1,0,9,55
1501876315369869,-15,1,2,-1,-5,-9,-10,-34
1501876315390931,3,3,4,-2,7,8,6,23
1501876315390931,-2,-3,-11,-1,-1,3,5,-2
1501876315392881,-4,-4,0,3,3,-2,-4,3
1501876315392881,6,-9,-5,-8,0,0,4,46
1501876315404942,-5,-2,4,0,-5,-4,-6,-41
1501876315404942,3,-6,-2,-4,0,-6,1,24
1501876315413872,3,14,12,8,4,2,2,-22
1501876315413872,6,-4,4,-1,1,4,5,53
1501876315428941,-12,-8,-10,-3,-11,-7,-10,-38
1501876315428941,-2,1,9,9,7,0,0,-8
1501876315429881,3,15,-12,-10,-4,2,-1,-21
1501876315429881,-8,-22,0,6,-2,-2,-3,4
1501876315450873,4,-6,2,-20,-5,0,7,10
1501876315450873,2,-1,12,4,-1,-5,-8,41
1501876315452873,-12,-14,-35,-11,0,0,-11,-92
1501876315452873,-2,8,15,8,-2,-3,1,-11
1501876315464914,-3,-3,-7,-6,-1,4,-6,-19
1501876315464914,3,9,5,-1,-4,-5,3,-7
1501876315473883,2,-19,10,-3,0,-2,5,35
1501876315473883,-3,20,-29,-6,-7,-7,-10,-28
1501876315488875,7,-15,2,8,7,3,6,41
1501876315488875,-1,-5,-8,-1,-5,4,1,-7
1501876315489877,-3,13,7,7,5,0,0,21
1501876315489877,-5,-4,-1,-5,-3,-9,1,-2
1501876315510939,2,-9,12,3,-1,6,-6,7
1501876315510939,4,10,1,5,11,-2,4,35
1501876315512888,6,-6,-11,-7,-6,5,0,0
1501876315512888,-6,-2,1,0,2,-2,-2,-22
1501876315524885,3,13,7,4,-6,-8,-6,-13
1501876315524885,-6,0,8,-1,-5,2,0,-8
1501876315533879,3,-15,-5,6,-4,-5,0,17
1501876315533879,-1,6,-2,-8,0,5,0,-4
1501876315548950,-1,6,-3,-1,-2,-20,-6,-4
1501876315548950,0,0,3,4,2,19,4,-25
1501876315549880,4,8,-10,-1,-1,-3,9,51
1501876315549880,-3,5,0,-17,-7,-4,-10,-60
1501876315570879,-8,-6,-3,2,8,5,5,-1
1501876315570879,-1,-10,-31,-8,-6,-13,-9,-18
1501876315572880,-3,0,16,9,1,10,-1,-4
1501876315572880,7,7,3,4,0,4,7,40
1501876315584924,4,0,-4,1,2,-5,-1,-7
1501876315584924,-11,-2,-3,-3,-3,-3,-4,-17
1501876315593916,0,-11,-8,-6,-4,-3,-5,-2
1501876315593916,-1,6,7,0,-7,-8,-8,-6
1501876315608919,2,-5,0,1,2,1,1,14
1501876315608919,1,6,1,3,2,3,8,0
1501876315609884,-4,-13,-1,-2,-5,-3,-2,2
1501876315609884,4,14,1,2,3,5,4,-5
1501876315630924,-10,-18,1,3,6,-2,1,-1
1501876315630924,1,-6,6,-1,-7,-6,-7,-10
1501876315632894,-7,-2,4,-4,-1,-6,5,10
1501876315632894,5,14,-9,-3,-10,3,-3,-36
1501876315644891,-4,6,-2,-3,11,2,-6,20
1501876315644891,3,-4,-4,1,-3,-3,4,64
1501876315653896,-7,10,6,0,-1,-3,-4,-71
1501876315653896,-1,-13,-12,2,-1,-4,-1,32
1501876315668922,2,9,-1,-3,-8,1,1,-4
1501876315668922,-2,-11,-1,-3,2,-1,-5,-17
1501876315669887,1,6,0,-4,3,0,0,22
1501876315669887,-4,-11,12,7,-2,-3,0,-15
1501876315690887,-4,14,-6,3,-3,3,-5,-40
1501876315690887,5,6,0,-1,1,0,7,15
1501876315692898,3,4,3,-3,-2,1,-4,-9
1501876315692898,-5,-38,-9,-9,18,1,-2,38
1501876315704958,-1,17,4,4,-7,-15,-7,-1
1501876315704958,-2,6,3,1,-2,14,0,-11
1501876315713921,0,8,-9,-6,0,2,2,19
1501876315713921,-2,2,-4,3,-1,-1,-5,-1
1501876315728930,-1,-14,4,1,-6,3,2,1
1501876315728930,3,8,-3,-5,0,-9,1,-11
1501876315729892,-7,3,-7,6,-3,-5,-13,-30
1501876315729892,1,-16,-1,-6,-6,2,5,29
1501876315750931,6,4,0,3,1,-3,0,14
1501876315750931,-10,-3,-2,-8,-9,-2,-9,-67
1501876315752923,4,-7,1,4,5,8,6,18
1501876315752923,2,0,4,2,-3,-4,2,-20
1501876315764901,-5,3,-2,-5,1,-1,-5,-3
1501876315764901,-5,-9,-1,0,3,-5,-1,7
1501876315780913,1,14,3,-1,-5,-4,-5,-1
1501876315780913,-5,-6,8,4,3,2,1,9
1501876315787931,1,1,-4,-5,0,3,3,-32
1501876315787931,3,-8,-5,2,2,0,-1,7
1501876315794939,-4,-4,3,-6,-9,-6,-3,1
1501876315794939,-3,-8,-17,-2,9,0,0,-20
1501876315810956,1,1,5,-1,-14,-1,5,35
1501876315810956,-3,7,-6,-4,4,-2,3,4
1501876315812931,-1,-17,3,0,-1,-3,-7,-14
1501876315812931,-1,5,3,3,-4,2,-6,-31
1501876315833969,0,-1,-4,-6,-7,-2,1,8
1501876315833969,3,16,10,7,2,4,-1,3
1501876315834905,0,-10,-11,-11,-13,-23,-7,2
1501876315834905,-1,-7,-18,-19,4,14,2,14
1501876315848938,0,-2,6,4,4,-2,0,33
1501876315848938,-5,5,-10,0,-9,-1,0,-40
1501876315849908,0,-3,-1,-1,8,-2,2,5
1501876315849908,0,13,8,9,-5,-1,-6,-11
1501876315870959,-4,-5,-6,-4,-2,-1,2,-10
1501876315870959,9,-17,0,-3,5,-3,9,98
1501876315872909,-11,9,-1,2,-13,-3,-15,-82
1501876315872909,2,-2,1,0,4,1,-2,0
1501876315893975,-4,-6,-3,1,0,4,-1,-19
1501876315893975,-1,8,1,-1,-5,-3,-3,14
1501876315894919,1,-21,-6,-1,1,0,-5,-2
1501876315894919,1,10,12,1,-6,-7,1,18
1501876315908970,-4,-2,-10,0,2,0,-3,-26
1501876315908970,-3,6,-1,-6,-3,-2,-1,-7
1501876315909907,3,5,3,2,5,2,0,-6
1501876315909907,1,0,7,3,-1,-4,-1,30
1501876315930945,3,-1,-2,1,-3,-1,3,-2
1501876315930945,1,-14,-9,-8,0,-1,-4,-20
1501876315932930,0,10,3,-4,7,9,6,15
1501876315932930,-1,-4,3,7,4,-4,-1,1
1501876315953947,2,9,2,-2,-5,-1,0,10
1501876315953947,-3,-3,1,-1,-4,-2,1,19
1501876315954904,-2,9,4,3,2,-1,-2,-6
1501876315954904,2,-11,-15,-2,-8,0,-2,-3
1501876315967976,-5,-2,-7,-7,3,-4,-5,-1
1501876315967976,3,-8,10,2,0,-3,6,23
1501876315974967,-4,-3,-1,0,4,3,-4,8
1501876315974967,-6,8,2,-1,-1,-3,3,-23
1501876315990971,5,-12,0,0,2,1,-3,10
1501876315990971,-4,1,9,1,-3,-1,-4,-10
1501876315992916,2,-5,-8,2,0,0,9,36
1501876315992916,-4,4,-1,-8,-8,-6,-4,-30
1501876316013983,2,-3,3,0,4,1,1,29
1501876316013983,1,6,1,3,0,-2,-7,-21
1501876316014909,-2,3,2,0,-9,0,4,-1
1501876316014909,0,-7,-5,-4,10,-2,5,11
1501876316027971,-1,-4,3,2,-8,2,-3,-4
1501876316027971,-6,-9,-12,-4,7,-8,-6,-1
1501876316034948,9,-6,4,4,4,8,11,39
1501876316034948,-7,31,1,0,-8,-5,-14,-52
1501876316050980,1,-23,-3,-2,2,-1,0,4
1501876316050980,5,-11,0,1,-9,-4,3,10
1501876316052940,-4,-5,-15,-5,-8,-5,-10,-40
1501876316052940,-4,3,4,-2,5,-1,0,28
1501876316073986,-4,4,7,5,-2,2,-5,-26
1501876316073986,-1,16,-26,-12,-4,-3,-7,-10
1501876316074910,-1,-11,-5,-12,3,-1,1,0
1501876316074910,5,-15,-2,0,-2,-3,3,28
1501876316087972,-3,16,3,4,-1,-2,-3,-36
1501876316087972,1,5,7,2,6,3,3,-15
1501876316094973,-1,-5,-3,-1,-6,-1,2,8
1501876316094973,5,4,-5,-5,-2,-1,5,37
1501876316118959,-14,-16,-2,-1,5,-4,-8,-42
1501876316118959,-1,15,9,7,-3,5,1,6
1501876316119913,0,-2,-3,-1,-1,-1,-8,-20
1501876316119913,1,-1,-1,-2,-2,-1,0,-2
1501876316133983,3,1,-5,-2,-6,-1,9,30
1501876316133983,-7,-2,-6,0,2,-3,-11,-18
1501876316134924,-1,23,10,6,1,-1,0,13
1501876316134924,4,-18,1,2,-1,0,1,1
1501876316147977,-2,10,-15,-8,0,1,-2,38
1501876316147977,-6,-3,7,-1,-10,-1,-1,-39
1501876316154913,-1,-7,2,0,9,0,3,12
1501876316154913,4,3,7,4,1,2,8,40
1501876316170957,-5,-4,0,-1,-7,-4,-6,-81
1501876316170957,7,1,0,0,5,0,-2,32
1501876316172950,-8,-8,0,0,-7,1,-2,-22
1501876316172950,-4,-2,-4,-5,-3,-5,-3,-9
1501876316193952,2,10,4,1,7,5,3,8
1501876316193952,0,-16,-5,-2,-3,0,-1,-11
1501876316194941,-1,3,7,3,0,-2,0,18
1501876316194941,0,0,3,-1,-2,1,0,-13
1501876316207989,4,3,-1,-1,-7,-3,0,26
1501876316207989,-2,1,0,2,1,0,-1,-2
1501876316214978,-2,-8,-21,-7,-1,-1,2,9
1501876316214978,6,9,1,6,-4,4,6,13
1501876316230960,-3,0,1,-6,-1,-6,-7,18
1501876316230960,2,-5,0,-2,-3,-3,-1,14
1501876316232931,-3,-7,7,1,1,0,-2,-15
1501876316232931,-5,-9,-11,-1,-6,-5,-9,-29
1501876316253961,4,7,1,0,5,4,7,-6
1501876316253961,-2,-2,-1,1,-3,5,-2,32
1501876316254938,1,6,3,-3,-4,-5,0,12
1501876316254938,-7,1,-1,-4,-3,-1,-4,-28
1501876316267960,0,10,-10,-2,2,-1,5,14
1501876316267960,-3,-24,1,-1,1,-2,-2,9
1501876316274963,1,5,4,5,-3,1,2,-29
1501876316274963,0,2,8,4,7,0,-4,1
1501876316290986,0,-3,1,1,-3,-4,-3,-6
1501876316290986,1,3,-21,-7,0,-3,6,25
1501876316292954,-1,2,-3,-5,-9,-2,-9,-17
1501876316292954,-1,-5,-6,0,0,1,-2,-1
1501876316313967,-3,2,0,1,-5,2,0,-21
1501876316313967,0,5,5,1,6,1,3,-22
1501876316314923,3,-4,-3,-4,1,-3,-1,24
1501876316314923,-6,1,2,0,2,0,-1,-22
1501876316328963,3,0,3,-1,0,4,2,8
1501876316328963,0,-5,1,-1,-6,-6,0,17
1501876316335964,-4,1,-3,-5,-2,2,-2,-6
1501876316335964,0,-4,7,0,1,4,-2,-5
1501876316350957,-2,-14,-4,5,-2,-4,2,9
1501876316350957,-1,6,-1,-9,-4,-5,0,-14
1501876316352926,-1,-8,0,2,0,-1,-2,-11
1501876316352926,-3,6,-1,1,3,-2,-1,-5
1501876316373987,6,-7,4,3,-1,-3,1,25
1501876316373987,-4,-5,-13,-4,1,0,0,-10
1501876316374929,-3,-7,5,1,-1,-1,3,10
1501876316374929,0,-7,-12,-5,-5,-1,2,16
1501876316395972,-5,-2,-6,-5,0,-10,-12,-19
1501876316395972,2,2,10,8,1,6,-3,-32
1501876316397960,2,9,-2,-1,0,1,3,10
1501876316397960,-3,-9,2,4,0,-1,-1,4
1501876316410992,-2,-5,-14,-15,-5,-6,0,7
1501876316410992,0,9,3,1,-8,-6,-3,-12
1501876316412941,-1,-12,-4,-3,3,5,3,8
1501876316412941,1,2,3,-1,0,2,5,38
1501876316433930,-2,3,7,3,1,-1,-9,-33
1501876316433930,0,6,6,3,-4,-1,-2,-7
1501876316434930,3,2,-5,-4,4,-3,0,7
1501876316434930,-4,-12,-6,-2,-5,-1,-7,-30
1501876316446972,-4,-21,3,-3,5,-1,1,1
1501876316446972,-2,-3,4,5,14,3,1,-6
1501876316455973,-3,7,-5,-3,-6,-5,-2,-2
1501876316455973,9,0,1,0,-3,-4,5,32
1501876316470980,-14,3,0,-2,-11,-4,-10,-68
1501876316470980,7,12,8,-3,-4,4,1,5
1501876316472942,0,-21,1,2,4,3,6,29
1501876316472942,-3,2,-11,-6,-3,-2,-5,-49
1501876316494008,4,3,1,1,3,-1,-3,17
1501876316494008,-3,-13,-3,-3,-7,-6,-6,-2
1501876316494943,-7,14,7,2,4,0,-3,-13
1501876316494943,-1,-14,-6,-4,-3,2,-2,1
1501876316507001,1,-5,-2,-1,-1,2,6,41
1501876316507001,-4,7,-6,-5,-5,0,-4,-35
1501876316515936,-1,-3,-2,2,4,-2,-2,-34
1501876316515936,-3,-11,12,2,-2,-3,-1,8
1501876316530994,4,4,0,4,9,2,2,31
1501876316530994,-3,-2,-11,-4,-2,0,0,-17
1501876316532968,-3,8,-1,-9,-11,-3,-5,-27
1501876316532968,-2,10,-9,2,1,-4,-3,25
1501876316554006,-1,9,10,-2,-5,2,-5,-9
1501876316554006,1,-27,-4,3,1,-3,4,-13
1501876316554944,1,8,0,1,1,0,-1,11
1501876316554944,-1,-8,-5,-4,-3,-3,-2,-2
1501876316567009,1,7,6,-1,-2,0,4,16
1501876316567009,-6,1,-7,-4,-3,-1,-2,15
1501876316575957,0,-2,-1,-2,-5,-5,-3,-4
1501876316575957,1,21,3,4,10,7,2,22
1501876316598961,-5,-17,-5,1,-3,-3,-2,-30
1501876316598961,-4,-5,9,0,-2,-4,-3,-10
1501876316599940,-4,-11,-3,-1,-7,0,2,34
1501876316599940,-2,1,3,-2,-1,-8,3,-9
