timestamp,emg1,emg2,emg3,emg4,emg5,emg6,emg7,emg8
1501875879302998,15,64,-61,-37,-8,1,2,54
1501875879302998,-24,-53,-41,-17,-22,-10,-9,-8
1501875879303981,-6,-78,-27,63,7,-5,6,9
1501875879303981,11,28,11,-29,18,7,5,-3
1501875879304979,24,13,19,114,-6,-1,17,72
1501875879304979,-5,-9,17,-60,37,20,9,-23
1501875879308024,28,127,44,-36,4,-5,-8,-95
1501875879308024,-37,-105,-84,40,8,3,-7,64
1501875879315039,-2,56,45,-36,-52,-12,-11,-82
1501875879315039,15,55,-3,37,14,-3,4,24
1501875879322990,-16,-69,-21,1,-86,-8,-12,35
1501875879322990,-8,-39,18,68,77,-2,-6,-60
1501875879330026,1,5,9,-3,28,2,-8,14
1501875879330026,0,-4,13,-92,-29,1,4,-23
1501875879345043,13,12,-37,-22,20,-4,1,28
1501875879345043,27,73,39,-31,-41,10,19,75
1501875879353009,-34,-67,-9,76,15,1,-4,-30
1501875879353009,-9,-78,-38,-18,12,-7,-22,-46
1501875879376046,-8,35,6,-48,16,7,17,26
1501875879376046,0,-21,49,68,-54,-19,-4,-6
1501875879376983,4,-13,-48,-94,27,-2,8,-20
1501875879376983,26,99,48,17,16,10,3,25
1501875879391003,-38,-83,-44,-24,-3,3,-4,-22
1501875879391003,18,108,3,34,15,0,2,27
1501875879430990,16,53,-3,9,-10,1,6,1
1501875879430990,-3,-48,-2,8,-14,5,1,-17
1501875879432005,12,-1,48,-54,32,4,3,7
1501875879432005,-2,13,-85,-16,-15,-12,-3,-7
1501875879436023,-20,-41,11,17,14,3,-17,-37
1501875879436023,12,43,-8,-63,-60,-3,12,31
1501875879437024,-9,39,-1,4,48,-5,-6,11
1501875879437024,-4,-27,-23,-52,6,2,-9,-26
1501875879442026,3,9,-5,-14,11,-2,8,36
1501875879442026,2,0,69,14,-11,1,0,-40
1501875879449998,-4,16,-46,18,16,0,2,29
1501875879449998,4,12,28,-47,-19,0,-3,18
1501875879464998,5,23,25,60,-11,-3,1,8
1501875879464998,-5,-45,35,7,2,1,7,16
1501875879472046,1,10,-21,-13,-53,-12,-10,-2
1501875879472046,-1,-30,27,3,7,11,12,19
1501875879480995,3,10,-24,-43,5,-5,-21,-78
1501875879480995,8,40,-19,28,42,1,4,18
1501875879503061,2,5,20,60,-41,-8,15,40
1501875879503061,18,-34,-22,-33,28,15,-22,-44
1501875879505031,-29,-22,42,3,-14,2,1,28
1501875879505031,-6,2,-12,41,4,-3,-14,-26
1501875879517009,2,-6,-10,-18,6,7,10,29
1501875879517009,-5,0,23,33,-14,-15,-9,-14
1501875879525994,9,17,25,-25,32,12,11,14
1501875879525994,-15,-41,-78,-28,-9,-5,-9,-7
1501875879541066,-1,-20,12,44,-56,-3,-13,-33
1501875879541066,-1,47,11,3,72,6,21,43
1501875879542031,12,-7,16,33,-24,2,4,29
1501875879542031,-28,21,0,-81,37,-4,-12,-58
1501875879563009,12,15,-62,-64,-16,4,-4,-12
1501875879563009,7,-22,26,-30,-16,-8,6,65
1501875879565007,-8,32,-20,5,-1,1,-7,-23
1501875879565007,48,32,33,62,3,-3,24,125
1501875879577048,-44,-98,-32,-45,13,-2,-39,-120
1501875879577048,-8,54,-8,24,-13,-3,1,-2
1501875879585998,2,-34,-97,-20,-4,-12,-2,14
1501875879585998,-5,-3,-1,48,-12,1,15,5
1501875879600997,-8,59,3,3,43,-5,-5,-5
1501875879600997,-7,-44,6,30,-29,-3,-6,22
1501875879602998,-11,13,26,14,11,1,1,-21
1501875879602998,13,60,32,24,-21,-3,-2,26
1501875879623028,3,-21,15,-6,30,-7,14,41
1501875879623028,-9,36,-4,-12,-14,5,-13,-113
1501875879625005,7,-41,-51,24,3,-3,0,42
1501875879625005,-15,-18,-5,-118,9,-1,-16,-6
1501875879637000,14,12,-5,38,-20,3,12,33
1501875879637000,-22,-66,36,19,-31,-9,-5,2
1501875879646007,-5,5,-3,-35,0,2,3,-36
1501875879646007,-4,-38,-7,27,21,1,-5,4
1501875879661002,21,30,5,-44,-5,2,8,20
1501875879661002,-14,-12,-62,10,4,-2,-11,6
1501875879663003,-13,-19,32,40,-24,-4,-4,9
1501875879663003,-6,13,4,7,0,8,4,-39
1501875879683037,-8,-20,66,-12,-57,-2,-7,-29
1501875879683037,11,28,-8,47,51,-2,18,42
1501875879685003,-2,6,-11,-13,2,-3,-14,-37
1501875879685003,10,23,2,50,-13,-6,-7,-8
1501875879697042,3,5,-1,9,28,14,14,37
1501875879697042,3,21,-8,-58,-45,-10,-2,-58
1501875879706005,8,24,19,-13,7,6,8,35
1501875879706005,-11,-43,3,59,12,0,-14,-81
1501875879721078,1,20,-28,-34,3,-4,-8,-3
1501875879721078,-5,-5,17,16,-15,-5,5,-20
1501875879722006,3,-7,-7,-61,9,-2,1,13
1501875879722006,8,0,8,26,-10,5,0,23
1501875879743016,13,36,36,32,29,2,5,6
1501875879743016,5,-49,-26,2,-20,2,7,22
1501875879745041,-17,-21,-20,24,6,-3,4,-10
1501875879745041,-5,27,-50,-99,14,-4,-5,9
1501875879766049,9,-27,25,-1,-28,-4,-2,11
1501875879766049,-8,3,-7,24,15,5,6,8
1501875879767008,2,0,44,43,-13,-5,-6,-45
1501875879767008,-10,-24,8,-20,12,-1,5,9
1501875879781076,-1,34,-9,-7,-13,-5,-19,-23
1501875879781076,13,7,-4,6,8,0,-6,0
1501875879783010,-5,6,15,-6,6,-2,-4,8
1501875879783010,-4,-22,-53,29,-7,-1,4,-26
1501875879803047,-14,-9,-8,-8,-28,1,6,11
1501875879803047,9,34,26,-50,21,-2,2,14
1501875879805011,3,-17,-25,3,-1,-1,1,30
1501875879805011,22,35,9,14,37,10,9,-5
1501875879826079,0,-67,15,36,2,-3,0,-27
1501875879826079,-20,-10,-6,25,8,-3,-11,15
1501875879828012,9,2,17,13,-21,10,24,12
1501875879828012,-4,21,-41,-102,-33,-11,-15,0
1501875879841082,-8,-4,47,53,18,-9,-18,-27
1501875879841082,5,-17,0,-9,3,12,11,-5
1501875879843012,3,8,7,-12,2,-8,-7,3
1501875879843012,-1,1,-5,25,4,4,7,16
1501875879863058,-5,8,26,12,-2,1,12,30
1501875879863058,9,20,-40,-5,-33,-6,-6,-10
1501875879865024,4,20,42,28,32,7,-2,-2
1501875879865024,1,-9,48,-28,-41,-13,-6,7
1501875879886080,-1,-27,-48,-6,19,6,4,-2
1501875879886080,-7,5,22,3,6,1,7,29
1501875879888026,4,18,-37,-45,-17,-5,-1,37
1501875879888026,-15,2,25,60,1,-4,-12,-34
1501875879900059,-4,-32,-35,-18,-23,0,6,13
1501875879900059,4,18,40,50,2,0,-4,13
1501875879907080,6,-10,-32,-24,4,0,2,-21
1501875879907080,-11,-31,-29,-29,-19,-5,-6,5
1501875879923055,10,17,1,21,-2,-1,2,-26
1501875879923055,-4,-31,-14,21,15,3,-4,-5
1501875879925018,0,36,22,-54,9,-7,-4,-24
1501875879925018,6,-33,-6,71,-5,2,21,102
1501875879946085,-28,4,-14,-23,1,-1,-35,-106
1501875879946085,18,2,33,17,-8,-4,4,56
1501875879947031,-6,-5,-21,-5,-8,2,0,2
1501875879947031,2,6,41,-33,7,-2,-12,-52
1501875879960085,1,-6,-12,37,0,-4,9,-9
1501875879960085,8,9,10,-32,25,13,14,45
1501875879967039,-2,-31,-26,4,-35,-13,3,58
1501875879967039,-3,25,10,29,48,9,-8,-5
1501875879983086,-3,9,8,-8,-12,-1,1,10
1501875879983086,-5,47,9,39,8,-5,-13,-120
1501875879985021,16,-18,-54,-79,-20,5,30,127
1501875879985021,-11,-20,15,25,-14,-4,-11,-89
1501875880006064,15,27,-21,32,-22,-3,9,33
1501875880006064,-7,0,29,31,39,8,-9,-72
1501875880007057,-7,-20,36,24,3,-1,-4,-28
1501875880007057,-7,-7,5,-67,-22,-6,-4,16
1501875880020067,-13,-8,-43,-46,-46,-5,-5,-17
1501875880020067,3,-1,16,-1,59,-3,-6,-7
1501875880027086,1,9,-37,43,-2,5,9,58
1501875880027086,7,19,30,-8,4,0,-2,56
1501875880043062,0,-26,-2,-47,10,-2,3,-49
1501875880043062,3,13,-3,-73,-32,-3,7,65
1501875880045035,-13,-5,-34,1,4,-2,-24,-69
1501875880045035,-6,-26,2,28,12,3,7,3
1501875880066089,7,4,-31,-17,6,-5,10,95
1501875880066089,7,4,28,-23,-34,-8,-4,43
1501875880067054,-13,16,30,34,16,0,-10,-73
1501875880067054,15,-13,-17,-62,-16,-1,7,-10
1501875880080027,-16,-18,-5,14,-19,2,8,31
1501875880080027,-10,12,21,12,44,4,-7,49
1501875880087067,0,-23,-32,-12,-6,-2,-3,23
1501875880087067,16,48,9,67,3,-4,-2,27
1501875880103089,5,-62,34,-8,30,2,3,30
1501875880103089,-6,-18,-41,-10,-55,-11,4,15
1501875880105037,0,38,-2,-59,30,4,-21,-111
1501875880105037,-1,-9,-13,-4,-22,1,6,47
1501875880126066,-6,1,4,86,70,2,-4,-22
1501875880126066,-5,7,-11,-65,-63,-11,3,-6
1501875880127042,14,17,54,66,29,0,8,99
1501875880127042,-7,-18,-45,-27,-8,1,2,-100
1501875880140070,11,41,51,-13,-12,-1,-17,-34
1501875880140070,-11,-29,-26,41,2,-2,4,-54
1501875880147090,1,-8,9,-39,-27,-6,-9,37
1501875880147090,3,19,17,13,38,5,17,64
1501875880163072,2,9,18,-10,-26,1,3,19
1501875880163072,-7,-49,-17,0,10,5,-6,-42
1501875880165030,-5,12,3,38,1,-4,2,-10
1501875880165030,-10,-10,28,18,-13,-4,-13,7
1501875880186072,11,10,15,-16,15,0,14,60
1501875880186072,-9,10,-36,-2,-13,-3,-12,-44
1501875880188033,0,-46,4,-19,-17,1,3,0
1501875880188033,-5,-6,-7,-23,10,0,2,-13
1501875880200079,2,18,-5,55,18,3,-9,-32
1501875880200079,6,25,14,-22,2,1,3,43
1501875880207101,0,1,25,48,-13,-5,3,-41
1501875880207101,3,20,-60,-11,-6,0,1,37
1501875880223073,2,-16,-19,-15,-25,-3,-1,24
1501875880223073,-12,-16,5,8,45,-1,-6,-47
1501875880225071,4,2,-2,-36,1,9,10,-4
1501875880225071,-9,1,-23,63,9,-7,-13,-46
1501875880246104,-1,-5,23,-15,-12,-4,-5,9
1501875880246104,4,3,-38,-16,-19,-6,-5,-7
1501875880247036,0,-5,6,-9,5,1,14,54
1501875880247036,-6,11,-2,-48,-22,-5,-5,-23
1501875880260046,-5,-10,-12,-8,23,6,5,12
1501875880260046,0,-30,39,63,-13,-3,-14,0
1501875880269037,4,19,-49,-42,-18,-9,-11,-42
1501875880269037,-6,-31,5,16,0,-2,-6,-2
1501875880283082,-11,-1,-5,1,1,2,2,-21
1501875880283082,20,17,-11,-1,3,2,25,74
1501875880285064,-2,3,31,41,-10,5,3,-4
1501875880285064,-20,-20,-3,21,7,-9,-16,-32
1501875880306103,3,5,-4,-39,15,5,2,-2
1501875880306103,-1,9,23,23,-5,-3,-3,-7
1501875880307084,6,7,11,23,-3,2,6,15
1501875880307084,-5,18,18,9,-7,-2,0,9
1501875880320041,4,9,4,53,0,-7,-3,-10
1501875880320041,3,3,-32,-85,-1,5,11,59
1501875880328083,-8,-14,9,-11,-4,-4,-7,-8
1501875880328083,11,-8,20,7,14,5,7,28
1501875880343083,-5,15,36,0,-24,-3,-6,-25
1501875880343083,-3,-14,-9,4,4,-2,-3,-13
1501875880345041,4,2,2,14,-15,-10,2,17
1501875880345041,-3,-10,18,-43,-15,11,0,-19
1501875880366104,8,24,-31,26,38,1,-2,22
1501875880366104,5,8,-5,-21,-32,-8,-2,-17
1501875880367063,-14,-21,6,-7,9,2,-5,7
1501875880367063,-1,15,3,10,22,-2,-3,-44
1501875880380045,-4,0,-16,-6,-22,2,4,-4
1501875880380045,-4,-2,7,43,5,-2,-1,8
1501875880388115,7,42,1,11,-15,-4,-11,-77
1501875880388115,-2,-50,-26,-83,-3,1,10,60
1501875880411087,-16,-28,7,-16,-2,-6,-13,-59
1501875880411087,10,13,-8,25,13,2,-3,26
1501875880413046,-18,-43,-10,29,5,-6,-10,-30
1501875880413046,7,16,13,36,-27,-3,2,-2
1501875880425115,9,12,-27,-34,14,12,11,16
1501875880425115,-4,-2,28,7,15,-5,1,12
1501875880432087,-14,-21,-4,-25,20,1,-17,-59
1501875880432087,6,16,19,46,2,3,1,-4
1501875880448111,3,-3,-56,-91,-26,-12,0,27
1501875880448111,-7,1,-12,21,-10,-1,4,-17
1501875880450059,-2,-15,1,-25,10,1,-9,-3
1501875880450059,7,22,5,22,-4,-4,1,28
1501875880471050,-6,-17,-6,36,-4,0,3,16
1501875880471050,-5,1,-24,3,-9,6,-8,-46
1501875880472051,-5,-6,-5,-23,-8,-11,-2,-4
1501875880472051,-5,0,11,-8,-10,0,-1,-14
1501875880485090,11,26,16,47,17,-3,1,17
1501875880485090,-4,-41,-33,-92,-16,-6,6,-16
1501875880492093,-6,3,2,8,1,2,-11,-5
1501875880492093,-2,6,4,5,-1,-3,-1,11
1501875880508118,-10,1,12,-38,12,3,-10,-7
1501875880508118,1,-8,-9,59,-13,-3,-3,7
1501875880510052,13,20,3,-8,-6,2,13,9
1501875880510052,-8,-36,-31,-14,-14,-5,-5,-16
1501875880531095,-2,21,49,16,35,5,-5,-12
1501875880531095,-3,12,-19,12,-8,3,1,3
1501875880532058,3,-11,-2,6,7,-1,-1,-5
1501875880532058,7,16,-4,-11,-23,-7,6,63
1501875880545091,-12,-21,-17,-48,2,1,-8,-70
1501875880545091,12,29,73,30,29,3,-5,12
1501875880552091,-12,-18,-16,-4,-33,-5,3,22
1501875880552091,-5,0,-10,-48,30,0,1,-20
1501875880568089,2,2,7,35,-36,-4,-2,39
1501875880568089,4,28,36,-15,9,4,5,30
1501875880570066,-3,-27,23,27,2,-8,-11,-46
1501875880570066,2,10,-23,-3,18,9,-1,3
1501875880591127,0,-19,-7,-8,-8,-7,1,2
1501875880591127,-11,-15,-28,-2,-11,0,-2,-35
1501875880592055,13,22,-1,9,-32,-3,13,62
1501875880592055,-2,-12,3,7,28,-1,-6,-44
1501875880605133,4,21,-4,22,18,2,4,-4
1501875880605133,-4,-34,-47,-52,-30,-6,-2,36
1501875880612119,3,0,11,24,13,5,10,5
1501875880612119,1,-4,-17,3,-20,-1,2,16
1501875880628125,-13,-2,52,29,8,-1,-11,-59
1501875880628125,4,11,-4,-34,6,-1,-10,-16
1501875880630060,-6,-21,-19,-30,3,0,2,11
1501875880630060,-2,9,-10,-28,-3,-3,5,5
1501875880651067,1,-34,-18,52,-79,-18,-7,35
1501875880651067,-2,3,2,-36,77,15,1,16
1501875880653060,-3,8,12,34,6,2,0,-58
1501875880653060,10,29,14,16,-11,-3,-6,15
1501875880665059,1,1,-2,-56,-2,-2,8,13
1501875880665059,3,-4,0,53,-20,0,9,32
1501875880672118,9,24,25,-67,22,10,2,36
1501875880672118,-5,-12,-73,-57,-11,-4,-8,-30
1501875880688126,-1,-5,-6,-5,-1,-3,3,9
1501875880688126,-2,1,23,28,-11,-6,-6,-26
1501875880690072,8,19,7,-21,2,0,4,23
1501875880690072,-10,-9,-4,28,-6,-2,-6,-20
1501875880711066,1,-26,-15,-69,38,9,-1,19
1501875880711066,-6,-5,23,47,-26,-5,-2,-14
1501875880712063,-4,-11,-26,13,0,-6,-4,5
1501875880712063,1,17,19,-3,9,2,-4,-15
1501875880724101,0,2,-34,-14,-24,-6,-1,19
1501875880724101,9,11,10,61,16,-2,6,23
1501875880733135,-3,1,-9,16,-11,-5,-4,-6
1501875880733135,-4,-15,34,-2,6,-1,-11,-73
1501875880748131,3,8,-7,18,8,2,9,6
1501875880748131,-5,14,-12,-2,0,-3,-13,-27
1501875880750095,-7,-13,-11,-27,-12,-4,1,-11
1501875880750095,3,-5,14,26,4,0,15,41
1501875880771105,-9,6,15,49,-8,-1,-15,-9
1501875880771105,1,-16,14,-39,13,3,13,4
1501875880772071,10,4,-5,-19,4,3,-8,32
1501875880772071,1,15,-21,-2,2,7,3,-1
1501875880785071,-8,-1,19,-1,-3,-3,4,10
1501875880785071,-6,6,11,-19,-18,-5,-12,-39
1501875880794068,7,19,-5,67,32,2,5,11
1501875880794068,-6,-42,13,-27,-13,2,2,2
1501875880808133,8,7,-7,-44,-3,-4,0,39
1501875880808133,-11,5,-16,-8,2,1,0,-37
1501875880810100,-2,13,6,9,-2,-3,-5,-15
1501875880810100,6,-1,17,40,2,-2,5,44
1501875880831142,0,15,0,-8,-12,-2,-1,-17
1501875880831142,-3,-25,-24,-66,-13,-2,0,4
1501875880832071,-7,5,10,12,18,2,-7,-33
1501875880832071,8,11,-18,0,6,4,10,36
1501875880844140,-11,-24,-5,-24,-14,-6,-12,-28
1501875880844140,5,5,-30,-20,17,6,0,10
1501875880853111,-1,-4,-14,4,-16,-4,-1,5
1501875880853111,-6,-10,27,-3,8,0,5,5
1501875880868137,5,9,11,31,32,4,-1,-35
1501875880868137,0,11,-5,-12,-42,-7,-8,1
1501875880870089,-1,-37,-23,-20,27,6,6,39
1501875880870089,-6,5,38,39,-3,-2,-9,-72
1501875880891143,8,21,-8,22,-15,1,5,1
1501875880891143,-7,4,-16,21,27,1,9,59
1501875880892098,-5,-33,-16,-75,-36,-3,-9,-30
1501875880892098,-12,-33,-33,13,-12,-10,-14,-3
1501875880905096,-1,2,-9,22,17,4,5,-14
1501875880905096,7,15,17,31,-4,-1,5,39
1501875880913149,-2,-4,14,-20,-8,4,2,-51
1501875880913149,0,4,-8,-15,17,2,-4,-4
1501875880928139,-1,4,6,-3,-5,0,-6,-26
1501875880928139,-8,-22,1,28,-20,-3,5,7
1501875880930075,-7,14,11,11,18,-4,-2,21
1501875880930075,8,0,-35,-5,3,0,-3,-1
1501875880951143,-1,1,15,19,-25,-5,-8,10
1501875880951143,7,13,-12,28,16,-2,1,6
1501875880952077,-10,-2,10,16,2,-7,-15,-51
1501875880952077,-1,-9,22,-36,-10,2,4,35
1501875880964138,-8,-9,-24,-14,3,0,-3,-42
1501875880964138,5,-1,16,14,0,0,1,3
1501875880973141,-5,7,16,42,-8,-5,-9,-21
1501875880973141,4,16,-8,-7,-7,-2,2,31
1501875880988143,-5,-28,-11,19,17,1,3,-30
1501875880988143,2,0,23,-32,-10,-1,-5,-7
1501875880990079,3,6,-51,-52,-12,0,7,24
1501875880990079,6,10,3,-22,-25,-2,7,-1
1501875881011146,-5,25,4,4,41,6,-1,45
1501875881011146,-2,-29,6,10,4,-2,-15,-88
1501875881012081,1,0,-17,-22,-10,2,3,42
1501875881012081,-8,-2,16,67,9,-4,-6,-25
1501875881024152,-1,-2,-24,-64,-16,-5,3,31
1501875881024152,1,8,-12,-32,-6,-1,0,-26
1501875881033148,3,-16,20,13,7,5,4,33
1501875881033148,3,-15,2,27,-6,-4,4,17
1501875881048123,3,6,-7,-43,3,-1,-3,30
1501875881048123,-3,-8,2,12,-13,-4,2,-25
1501875881050115,1,-4,-3,-39,-10,-7,-6,4
1501875881050115,-5,9,-34,26,30,12,1,-9
1501875881071156,0,-10,36,-43,-13,-6,-1,9
1501875881071156,6,12,-29,-15,-6,3,6,32
1501875881072083,-4,-16,6,22,-3,-2,1,-14
1501875881072083,-4,-1,24,-10,-17,-2,0,4
1501875881084147,0,4,-24,24,24,1,3,12
1501875881084147,1,-21,9,-31,-5,0,-6,-11
1501875881093119,0,14,4,108,5,-2,7,8
1501875881093119,11,8,0,-101,-20,-4,3,17
1501875881108146,-17,-19,-24,28,-15,-2,-11,-96
1501875881108146,1,8,5,6,20,-2,-9,18
1501875881110097,6,21,17,20,-23,0,5,16
1501875881110097,-5,-22,-21,-7,42,4,0,7
1501875881131155,-1,-23,7,38,-17,0,-1,-6
1501875881131155,1,-10,-2,-67,-35,-5,0,-8
1501875881132089,-6,11,-5,13,19,-3,-3,-6
1501875881132089,-2,3,10,-44,-19,-5,0,-10
1501875881144156,6,11,25,31,19,2,-6,-6
1501875881144156,-11,-10,-32,32,7,3,-7,-7
1501875881153129,8,30,-10,-19,-1,1,2,7
1501875881153129,7,2,7,10,-29,-8,-4,-12
1501875881168105,-11,-29,-12,30,30,0,0,4
1501875881168105,-2,15,12,45,-3,-3,2,14
1501875881170102,1,-17,-5,-30,-21,-4,3,-2
1501875881170102,-1,13,-6,-10,44,6,-7,-38
1501875881191133,9,-8,-5,-17,-28,-1,6,20
1501875881191133,-9,5,17,4,4,-4,-9,-20
1501875881192092,1,4,14,-6,39,5,0,-4
1501875881192092,-6,-15,-23,5,-13,-6,-8,1
1501875881213138,1,13,-21,-41,-18,1,11,34
1501875881213138,4,13,-5,-9,6,-2,-6,-36
1501875881215093,-11,-24,-9,38,-7,0,-4,31
1501875881215093,3,13,24,-20,-18,-3,-3,4
1501875881228164,0,3,1,7,-7,-4,-2,0
1501875881228164,4,14,13,-5,19,7,6,19
1501875881235121,-4,-27,-18,3,-8,-2,0,-16
1501875881235121,-1,13,0,21,14,-1,-2,-3
1501875881251127,1,-9,-4,38,2,-4,0,17
1501875881251127,-8,-4,3,-38,3,-1,-2,-22
1501875881252094,1,2,14,-13,-15,4,-2,23
1501875881252094,0,-7,-22,-2,-17,-4,1,-7
1501875881273153,13,38,34,14,23,4,8,39
1501875881273153,-2,-18,-31,-10,-6,1,1,-12
1501875881275107,-6,-19,1,-4,0,-3,-2,-12
1501875881275107,-5,7,-2,6,-19,1,2,5
1501875881288141,4,28,4,-32,-30,-4,-1,-8
1501875881288141,-1,-30,6,12,46,0,3,40
1501875881290097,-3,15,-3,-21,-8,-1,-1,-7
1501875881290097,-5,-6,-15,-6,-8,-4,-7,-18
1501875881311168,0,7,3,-10,4,-1,2,-23
1501875881311168,-1,-12,14,17,-18,-11,-4,24
1501875881312098,6,10,4,-15,-8,2,5,14
1501875881312098,-3,-31,-71,8,14,-2,2,25
1501875881333138,-8,-7,3,-24,-24,1,-11,-42
1501875881333138,9,27,10,14,-19,5,4,3
1501875881335134,7,1,8,-33,44,0,0,11
1501875881335134,-15,-18,13,43,-25,-5,-3,-1
1501875881348128,4,0,8,0,17,9,5,10
1501875881348128,-6,-3,-22,5,-20,-5,1,6
1501875881362165,1,8,24,4,-23,-4,-11,-6
1501875881362165,0,6,18,32,24,1,9,23
1501875881371141,1,-3,-19,-8,-4,-5,-24,-68
1501875881371141,-12,-19,52,-20,1,0,-2,-27
1501875881372101,-1,1,-50,-6,-24,-7,0,10
1501875881372101,1,-7,18,10,21,5,1,6
1501875881393174,-7,-21,-13,-19,4,-4,1,22
1501875881393174,3,21,6,12,-2,-1,3,-6
1501875881395114,-4,-30,-9,11,-1,-3,2,-17
1501875881395114,4,23,12,2,-6,-1,-6,14
1501875881408113,-2,-25,-7,5,-1,1,7,-8
1501875881408113,-6,5,-1,47,-3,-2,-20,-23
1501875881414143,-5,-7,-11,-92,-13,-2,1,2
1501875881414143,-4,19,0,3,20,1,-3,-48
1501875881431172,6,-7,24,25,-19,1,13,45
1501875881431172,9,-3,-10,3,33,9,-2,27
1501875881432104,-6,-7,-2,9,11,1,-4,-41
1501875881432104,2,2,2,-41,-1,-1,-2,15
1501875881453126,-4,11,-10,-27,-18,-3,0,-3
1501875881453126,1,-8,9,44,12,-3,11,34
1501875881455140,-1,6,4,1,-12,1,-5,-17
1501875881455140,5,0,7,-5,18,5,2,18
1501875881468155,-13,-24,-1,8,-3,-2,-8,-14
1501875881468155,1,-6,-4,-8,-25,-4,-2,2
1501875881474172,5,27,31,4,26,3,2,18
1501875881474172,-8,-8,-57,12,-27,-3,-2,-3
1501875881491108,9,17,-2,-27,28,1,4,22
1501875881491108,1,-5,-10,-21,-18,-6,3,23
1501875881492109,-16,-14,-8,0,-14,-8,-5,-21
1501875881492109,6,8,27,7,32,3,-7,-16
1501875881513181,1,12,1,43,16,5,-1,-12
1501875881513181,-1,-1,-33,-71,-20,-8,0,-2
1501875881515122,4,22,24,29,-35,-3,4,1
1501875881515122,-5,-19,-8,-35,42,6,2,-5
1501875881528150,-6,-5,3,20,-55,-15,-7,1
1501875881528150,-7,4,13,-23,30,1,-1,-15
1501875881534171,5,0,-31,38,9,1,-3,-10
1501875881534171,2,5,13,4,-55,-6,4,11
1501875881551180,1,11,-18,-52,25,0,-3,-10
1501875881551180,2,-26,-20,-1,-15,-3,0,2
1501875881552112,-9,-8,9,53,2,-6,-9,-27
1501875881552112,7,10,7,-66,8,10,2,-2
1501875881573161,1,-2,15,-8,-6,0,4,21
1501875881573161,-2,22,-2,-1,-4,-3,-5,19
1501875881575125,0,-3,-4,11,29,0,-5,5
1501875881575125,-3,-2,27,31,-24,-5,0,-49
1501875881588183,2,10,-11,-7,-8,2,4,38
1501875881588183,-3,-1,19,-5,9,-6,-7,-23
1501875881594177,-1,-4,3,14,6,11,3,-21
1501875881594177,-4,11,-6,39,-21,-8,0,27
1501875881611173,7,-2,-18,-16,63,3,2,-10
1501875881611173,-1,2,-2,25,-13,4,3,1
1501875881612153,-2,-6,-1,-14,2,-1,-2,6
1501875881612153,2,-11,8,-11,-17,-4,-7,3
1501875881633123,-7,-25,8,13,-26,-5,-1,4
1501875881633123,4,1,-4,4,-31,-2,-1,19
1501875881635117,-12,3,-2,-11,76,7,-1,-46
1501875881635117,3,-8,-6,-25,-2,0,6,-13
1501875881648132,-7,9,13,31,-29,-10,-14,-31
1501875881648132,1,-13,-5,-21,33,10,11,26
1501875881654150,-7,-30,-17,20,-29,-4,-8,-10
1501875881654150,8,11,18,18,5,-1,2,29
1501875881671120,-6,5,13,0,0,0,-5,-50
1501875881671120,-5,-15,6,24,3,-4,-3,-17
1501875881672119,4,-14,-5,-17,-29,-5,3,23
1501875881672119,-8,-6,-2,-25,-12,-4,-7,-7
1501875881693120,7,12,-14,0,8,5,5,17
1501875881693120,-5,-8,-4,-15,29,-6,-1,13
1501875881695121,7,11,18,3,5,0,2,5
1501875881695121,0,-21,-11,-24,5,0,-5,2
1501875881707122,-10,-19,-28,-10,-7,-3,-2,-1
1501875881707122,4,12,-2,20,-10,-1,8,-21
1501875881716124,13,28,2,-22,-4,-2,10,56
1501875881716124,-4,7,19,25,6,3,-9,-25
1501875881731121,-1,1,-5,-25,7,-2,-2,25
1501875881731121,-8,-33,-12,5,-28,-6,-11,-67
1501875881732126,2,8,5,9,-13,-4,4,25
1501875881732126,0,14,-7,4,34,2,4,-4
1501875881752131,2,5,-1,3,12,11,5,2
1501875881752131,0,-7,14,1,-6,2,1,15
1501875881762122,0,10,-13,26,-9,-4,-1,8
1501875881762122,-13,-14,1,-15,-18,-6,-8,-51
1501875881775128,2,-14,0,14,-8,-2,5,39
1501875881775128,4,21,5,-20,-5,3,-11,-28
1501875881776131,-9,-27,-7,-11,-2,-1,-1,3
1501875881776131,1,-3,-10,12,14,-1,3,23
1501875881790192,-2,-1,11,10,-34,-7,5,19
1501875881790192,-3,-3,-15,-10,28,0,-10,-40
1501875881791160,-4,-5,12,-16,-12,-1,-1,-1
1501875881791160,2,3,-29,2,25,-2,8,27
1501875881813143,0,-7,6,-15,-39,-12,-13,1
1501875881813143,0,14,-11,5,22,10,7,15
1501875881813143,-1,5,18,10,0,-2,-2,-19
1501875881813143,3,3,37,30,-11,0,5,22
1501875881835167,1,-35,-43,-57,19,4,8,10
1501875881835167,-10,7,0,-6,-29,-6,-15,-71
1501875881836128,-4,-20,-4,2,1,-1,0,-8
1501875881836128,3,9,12,14,14,4,2,-2
1501875881850172,-7,-6,2,12,18,-3,1,-26
1501875881850172,5,9,-2,-8,-39,-4,-3,71
1501875881851130,-1,23,-9,-10,41,5,-2,-20
1501875881851130,-5,-13,-15,-5,-36,-3,-4,3
1501875881873151,-7,0,8,-40,3,0,-12,-43
1501875881873151,3,-2,-25,4,7,-3,10,45
1501875881873151,8,1,-9,-43,-26,-6,-6,-13
1501875881873151,5,15,-8,19,15,-3,-6,25
1501875881895140,1,12,33,24,13,6,-1,-17
1501875881895140,-13,-25,-26,14,-16,-1,8,-8
1501875881896133,-1,5,7,-18,-13,-7,-11,11
1501875881896133,-3,-13,-8,6,-10,1,2,3
1501875881910132,-2,14,-3,6,13,2,-3,-27
1501875881910132,10,21,25,11,1,2,4,36
1501875881911147,4,10,5,28,-20,-1,10,33
1501875881911147,-5,-25,-26,-53,16,-1,-6,-8
1501875881933145,-5,11,17,37,5,-4,-9,-13
1501875881933145,-8,-18,-3,-5,-6,-3,-7,-46
1501875881933145,-1,38,11,18,6,3,-1,-4
1501875881933145,3,-17,-23,-31,-25,-6,1,-7
1501875881955213,1,-2,10,60,30,4,9,18
1501875881955213,-1,-8,-6,-43,-15,1,1,40
1501875881956135,0,9,6,-2,-1,0,-4,-47
1501875881956135,5,49,13,-2,-45,-3,9,17
1501875881970168,-7,-28,-1,-15,56,1,-17,-49
1501875881970168,1,8,8,-19,-12,-4,-1,12
1501875881971147,6,-12,-30,16,10,1,1,-1
1501875881971147,6,16,30,18,-13,4,13,71
1501875881993155,-14,-46,-36,-34,0,-7,-9,-21
1501875881993155,-3,9,17,23,0,-5,-4,-21
1501875881993155,-1,-16,-6,5,11,2,-1,9
1501875881993155,-1,2,13,8,-5,-1,-1,-9
1501875882015206,13,34,3,-22,-23,0,13,54
1501875882015206,-8,4,-4,21,43,-6,-17,-73
1501875882016149,-1,-11,4,-13,-6,4,-4,17
1501875882016149,-3,-11,-18,-5,-17,-6,-9,-23
1501875882030181,5,15,6,31,7,5,6,14
1501875882030181,5,12,0,57,-16,-8,10,23
1501875882031151,-7,-12,-4,-94,14,4,-4,10
1501875882031151,2,0,22,15,17,8,-4,-26
1501875882053148,-2,2,-30,3,-39,-6,3,55
1501875882053148,0,-7,14,-50,5,4,5,-19
1501875882053148,-8,-24,-23,13,-12,-5,-2,-22
1501875882053148,-1,-3,2,0,-32,-8,-6,-6
1501875882075157,2,5,-11,11,13,3,9,1
1501875882075157,3,17,1,14,2,2,-2,25
1501875882076151,4,0,17,-3,-1,-3,4,7
1501875882076151,-4,1,9,-7,5,-3,-9,-28
1501875882090184,2,1,-4,-14,-16,-2,2,9
1501875882090184,-1,-8,-10,7,-3,2,5,39
1501875882091179,-1,-4,0,-44,-2,-3,-6,-19
1501875882091179,1,-4,-17,2,-1,1,1,12
1501875882113207,-3,-1,14,7,-4,-4,1,2
1501875882113207,-1,7,2,-14,6,3,-6,-15
1501875882114145,1,5,6,60,-25,-2,0,8
1501875882114145,-10,-40,-5,-25,29,4,-10,-29
1501875882135214,3,20,8,28,4,-4,-4,4
1501875882135214,-3,-10,-19,-39,-1,2,5,-14
1501875882136157,2,0,-7,12,18,-2,3,36
1501875882136157,-4,25,16,11,-25,-4,0,2
1501875882150188,7,-2,0,28,15,2,-3,-6
1501875882150188,-2,-22,15,6,17,8,4,2
1501875882151158,-3,-7,-7,-6,9,3,-2,-14
1501875882151158,-4,-15,-15,30,13,-3,5,2
1501875882173166,4,24,-10,-14,-16,1,-8,-32
1501875882173166,-6,-22,-11,-58,-29,-9,-2,25
1501875882173166,-2,17,12,7,22,1,0,6
1501875882173166,-7,-30,-4,2,10,-1,-13,-27
1501875882195211,5,-1,14,17,-11,-4,4,2
1501875882195211,-2,7,-3,8,-5,0,-8,-27
1501875882196150,2,22,26,23,-19,-1,11,41
1501875882196150,-15,-26,-37,-27,29,-4,-18,-82
1501875882210185,-6,-27,-19,-16,-8,-2,-3,10
1501875882210185,7,11,3,0,-2,1,-1,-5
1501875882211161,-11,-31,-4,27,13,-2,-5,-16
1501875882211161,7,16,5,-68,-18,2,13,36
1501875882233150,-2,0,10,-2,-21,-2,-2,-9
1501875882233150,3,-8,-14,3,-2,-5,-4,8
1501875882233150,5,8,-6,-16,-7,1,-2,11
1501875882233150,-1,2,17,14,17,1,2,-9
1501875882255220,-2,-7,15,-6,-9,2,-1,-10
1501875882255220,-1,20,10,23,-7,-5,10,21
1501875882256164,6,-12,15,22,8,5,4,12
1501875882256164,-4,13,8,15,-9,-5,-7,-13
1501875882270163,2,-17,-1,0,17,-4,-4,19
1501875882270163,-3,8,-24,-24,-13,-4,8,29
1501875882271164,-9,-6,-8,-48,-14,-4,-16,-38
1501875882271164,3,20,-14,7,8,0,4,25
1501875882293175,-5,5,23,31,-8,-4,-3,-6
1501875882293175,0,-6,22,-1,13,3,-2,-11
1501875882293175,-6,-9,-60,-13,5,1,3,-11
1501875882293175,11,0,4,-8,-4,-3,4,23
1501875882315220,-2,33,2,-14,-11,-2,-6,-35
1501875882315220,-1,-41,10,17,0,-1,-3,16
1501875882316157,-7,-5,14,8,-19,-3,-3,-1
1501875882316157,2,-2,-26,-17,5,2,11,28
1501875882330198,1,4,-1,0,-18,-4,-6,-20
1501875882330198,5,16,2,4,10,1,-4,5
1501875882331168,-2,5,19,37,41,1,-5,-49
1501875882331168,2,3,-11,-11,-31,4,-1,16
1501875882353162,-4,-10,-5,-12,45,5,6,18
1501875882353162,-1,-8,-4,8,-31,-3,1,6
1501875882353162,4,4,-5,-12,29,1,0,-29
1501875882353162,5,9,10,22,-14,-7,-3,12
1501875882375226,-2,-18,-15,-24,22,-2,2,7
1501875882375226,-5,10,24,33,0,7,-1,-37
1501875882376171,-2,7,-12,-23,-21,-6,5,33
1501875882376171,-12,-27,9,27,15,0,-8,-44
1501875882390160,3,-5,-9,-36,-36,-3,0,35
1501875882390160,-4,8,-17,-20,20,-2,-10,-22
1501875882391160,3,-10,6,-28,-10,-5,-12,-39
1501875882391160,-6,9,-1,7,1,-3,1,-10
1501875882413180,10,22,18,26,4,0,2,11
1501875882413180,-14,-35,-17,17,4,-5,0,-23
1501875882413180,2,4,-17,-44,-32,-5,1,7
1501875882413180,1,7,15,26,17,6,3,25
1501875882435171,-6,9,0,-12,-22,1,-2,-54
1501875882435171,-2,-19,-4,6,45,0,-2,2
1501875882436177,3,5,12,20,-19,-2,1,15
1501875882436177,0,-26,-12,3,-2,-4,4,41
1501875882450226,-5,1,-7,0,-2,0,-4,8
1501875882450226,2,18,-18,-62,-18,-2,-5,-4
1501875882451176,-7,-7,3,32,7,1,-4,-24
1501875882451176,3,8,16,8,6,2,4,14
1501875882473166,1,-9,-20,-39,-18,-2,2,1
1501875882473166,-3,6,-5,22,10,-2,-6,-14
1501875882473166,0,-8,8,-15,-32,-2,1,16
1501875882473166,-7,-5,6,20,14,1,-2,-18
1501875882495205,6,-1,10,5,38,3,2,7
1501875882495205,0,7,7,12,4,3,-2,11
1501875882496177,2,21,-7,4,-7,1,5,25
1501875882496177,3,1,0,-15,-22,-2,0,-38
1501875882510204,-3,-25,-8,22,16,0,-5,19
1501875882510204,3,10,6,-1,-14,0,6,15
1501875882511179,-5,-7,7,31,26,-6,-10,-51
1501875882511179,-2,13,-9,-21,-25,-2,-4,-24
1501875882533186,-9,-16,-12,-23,2,-1,-1,-13
1501875882533186,7,13,18,44,2,-2,1,21
1501875882533186,-7,-5,-11,-4,-23,-4,-1,3
1501875882533186,1,-8,-2,26,9,1,7,32
1501875882555237,-7,-3,9,-8,13,2,-9,-49
1501875882555237,0,5,-4,-19,-10,2,-1,0
1501875882556181,1,-24,8,-2,-25,-3,10,43
1501875882556181,-14,8,-15,-29,24,-9,-17,-42
1501875882570208,12,20,3,23,-1,11,10,43
1501875882570208,-3,-16,5,-7,-19,-7,-3,-31
1501875882571181,-4,2,-6,-13,26,1,-2,1
1501875882571181,9,-3,-10,-18,-30,-4,12,40
1501875882593191,-12,-18,2,22,4,-6,-18,-21
1501875882593191,-3,9,5,1,21,0,-4,-4
1501875882593191,2,6,8,1,-36,-2,7,16
1501875882593191,6,8,-3,-41,16,2,0,6
1501875882615238,0,2,-23,-26,-14,-4,-3,0
1501875882615238,-2,-4,-4,-12,1,2,1,3
1501875882616185,1,10,7,22,26,1,6,57
1501875882616185,-5,-1,8,-2,1,-1,-15,-87
1501875882630219,2,-10,3,9,-9,-2,5,5
1501875882630219,-5,1,-9,-3,-15,-5,-5,-19
1501875882631186,6,16,1,18,4,-6,2,26
1501875882631186,-7,-9,-12,-9,35,7,-1,-28
1501875882653178,6,-2,4,2,-21,0,-2,19
1501875882653178,-6,-10,-4,10,-15,-7,-1,4
1501875882653178,-3,-13,-16,-15,29,6,-2,-29
1501875882653178,1,10,19,22,-17,3,9,21
1501875882675246,-2,-3,-4,39,7,-2,-2,7
1501875882675246,9,11,7,-9,-13,6,1,-12
1501875882676189,-2,2,-11,-13,16,-3,-9,-14
1501875882676189,-1,-7,-8,-39,-16,-4,1,42
1501875882690220,-2,-12,8,25,-1,-3,-2,-48
1501875882690220,-4,12,-1,-6,1,-3,-2,10
1501875882691190,2,-20,-3,-2,-3,0,4,7
1501875882691190,-2,9,-4,16,3,0,-5,-2
1501875882713198,3,14,9,-9,8,1,4,12
1501875882713198,-3,-10,-33,-10,13,-3,3,4
1501875882713198,-11,-33,-7,-4,-23,-1,-8,-28
1501875882713198,6,17,20,36,-24,0,4,39
1501875882735219,-3,6,-4,-29,10,-1,-1,-11
1501875882735219,-2,-28,-26,-20,-3,-2,1,10
1501875882736193,1,16,3,1,-25,1,-4,-20
1501875882736193,1,-3,-8,3,1,-6,-2,25
1501875882749247,-4,0,19,24,0,-4,-2,-32
1501875882749247,0,-15,13,2,15,5,-1,-8
1501875882757239,2,2,-22,-19,11,0,5,-10
1501875882757239,-2,-5,3,-7,0,0,-7,14
1501875882773201,0,9,-18,13,23,1,5,24
1501875882773201,1,9,6,-14,-22,-4,-2,0
1501875882773201,-2,2,11,12,-2,-4,-7,-15
1501875882773201,0,1,-12,-1,7,2,0,-17
1501875882795220,-1,7,5,-10,-7,-1,4,40
1501875882795220,1,-7,-9,-13,-6,-1,3,-1
1501875882796194,2,30,8,6,13,5,0,-22
1501875882796194,-6,-29,13,26,17,-4,-5,-7
1501875882811194,0,6,-9,3,-32,2,2,-1
1501875882811194,-1,9,8,-20,17,5,1,4
1501875882818205,0,-22,-10,7,-7,-4,-2,24
1501875882818205,0,6,-3,9,13,-2,-4,-18
1501875882833205,2,-9,9,-4,-42,-3,-1,-5
1501875882833205,6,20,17,26,20,3,5,5
1501875882833205,-3,-5,-3,-21,3,2,1,3
1501875882833205,-8,-1,-14,-32,10,-5,-12,-25
1501875882855233,-5,-14,-11,9,9,-5,-2,9
1501875882855233,2,16,11,-17,-39,0,-4,-16
1501875882856198,-2,9,6,-2,37,0,3,8
1501875882856198,8,-15,-10,-11,-16,2,6,10
1501875882869252,3,1,6,-4,-13,-6,-11,-23
1501875882869252,-9,-4,0,16,10,-2,1,3
1501875882878205,-2,-19,-6,13,8,1,-1,-15
1501875882878205,2,30,9,43,-4,-4,0,8
1501875882893208,-5,-19,-6,-60,9,11,8,0
1501875882893208,1,-12,6,21,-10,-5,-3,2
1501875882893208,2,4,-1,-11,-17,-3,-1,9
1501875882893208,-2,-5,2,30,-7,-1,3,-7
1501875882915239,1,10,2,-33,-29,1,2,14
1501875882915239,0,-2,-16,-15,51,1,-6,-4
1501875882916202,-3,-7,3,-5,-12,-2,0,26
1501875882916202,-3,-7,-1,-17,-21,-4,-8,-36
1501875882929233,-2,-8,-1,4,2,-5,-4,-6
1501875882929233,-3,-3,-2,3,-16,-4,0,6
1501875882938226,1,-2,1,11,-19,-6,-2,1
1501875882938226,-7,-10,-9,-41,11,0,0,-1
1501875882953195,3,20,-4,-1,5,-1,1,10
1501875882953195,-1,-4,7,20,-28,-9,-5,-14
1501875882953195,0,-11,-4,1,21,6,2,4
1501875882953195,-3,-1,-7,-23,8,2,0,8
1501875882975195,-2,1,-2,7,38,-2,-2,-3
1501875882975195,0,7,-1,20,-10,0,1,0
1501875882976206,1,14,0,-10,-30,-5,-10,-22
1501875882976206,-1,-21,4,2,-27,-4,0,-20
1501875882989233,0,10,-5,-9,-11,1,-1,4
1501875882989233,3,-12,1,-2,4,-1,2,23
1501875882998213,-4,11,-2,9,20,-2,0,-18
1501875882998213,2,-11,10,11,-20,1,-1,7
1501875883013219,1,7,-13,-6,28,-3,1,7
1501875883013219,-11,-28,-10,6,3,0,-2,-23
1501875883013219,7,15,2,5,-14,-2,1,6
1501875883013219,-3,-9,-1,3,13,6,4,14
1501875883035265,-6,-2,-6,-12,4,-2,-8,-16
1501875883035265,1,10,-3,-22,-15,-2,-1,16
1501875883036209,-5,2,2,-9,-2,-2,-1,-1
1501875883036209,8,6,2,25,13,0,6,2
1501875883058264,-13,-7,2,-17,-21,-5,-8,-16
1501875883058264,3,15,1,22,-3,-1,-4,5
1501875883059231,-4,-12,2,-19,36,5,0,7
1501875883059231,-1,20,3,-2,-15,-5,-5,-32
1501875883073220,1,11,-6,19,15,3,6,-1
1501875883073220,-2,-19,3,-19,16,-5,-5,0
1501875883073220,-2,12,-5,-12,-19,-1,0,6
1501875883073220,0,2,-1,-3,3,-4,-4,14
1501875883095243,2,-21,1,1,-13,1,-1,-8
1501875883095243,-5,1,-3,10,-9,3,3,-10
1501875883096203,7,21,0,3,-5,0,-2,8
1501875883096203,-3,-23,5,-17,-11,-1,-1,9
1501875883118270,-7,-13,-5,37,0,-3,-2,-18
1501875883118270,1,5,-5,-37,12,3,-4,-12
1501875883119236,-6,-22,-5,-4,-17,-3,-4,-13
1501875883119236,1,7,-14,9,7,-3,1,5
1501875883133237,3,7,15,17,-17,0,3,18
1501875883133237,-3,-10,-8,-6,18,2,2,7
1501875883133237,0,5,6,20,3,-2,3,-13
1501875883133237,1,21,6,-40,-24,0,4,30
1501875883155280,-3,-17,-5,-8,6,-7,-6,-57
1501875883155280,3,6,-6,9,-7,-1,-4,-7
1501875883156217,-5,-7,6,-1,-1,4,3,-15
1501875883156217,-2,7,-5,12,7,-2,-1,11
1501875883178271,1,7,1,-9,-1,-4,-1,24
1501875883178271,0,11,4,-4,-30,-4,-2,2
1501875883179218,-2,-44,-19,-12,9,-3,-5,-9
1501875883179218,-7,1,-4,15,18,-1,3,12
1501875883192270,4,0,-1,-19,-5,5,4,9
1501875883192270,-1,11,0,9,-9,-2,-1,0
1501875883193242,2,15,6,22,-16,-1,1,9
1501875883193242,-2,-3,-9,-31,19,0,-6,-14
1501875883215242,2,5,-4,-14,-7,-1,-1,3
1501875883215242,-3,-11,0,14,-9,-3,0,15
1501875883216221,-5,-9,-9,-16,0,-1,-2,13
1501875883216221,-1,0,4,20,-3,-3,0,-17
1501875883238276,0,6,7,19,24,1,-5,1
1501875883238276,2,7,5,-7,-7,4,2,-7
1501875883239242,-1,23,-1,4,11,-2,0,19
1501875883239242,4,-12,1,-5,-14,-5,-3,0
1501875883253210,0,-21,-1,23,-14,-2,3,-7
1501875883253210,4,3,-8,-27,-5,1,-1,4
1501875883253210,0,1,7,11,17,2,1,-7
1501875883253210,-6,11,-8,0,-9,2,-4,-17
1501875883275285,2,3,-6,-23,-8,-3,-3,2
1501875883275285,-4,-5,-1,16,4,0,1,-8
1501875883276224,2,-4,-3,-37,-15,-6,-2,5
1501875883276224,-2,-4,4,2,20,7,6,10
1501875883298276,-5,3,8,15,3,-1,-3,-17
1501875883298276,-5,-10,-17,2,7,-3,-4,-13
1501875883299245,1,1,6,-9,-29,-2,-1,-5
1501875883299245,0,-10,-4,8,27,-1,-3,0
1501875883312282,-1,0,1,3,-17,-2,5,10
1501875883312282,-3,15,10,3,10,-7,-12,11
1501875883320225,1,-26,-6,-9,-21,0,-1,-11
1501875883320225,0,7,4,6,8,5,-2,-3
1501875883335278,-3,-2,0,-6,23,1,5,10
1501875883335278,1,1,7,3,-12,-2,4,0
1501875883336228,-4,1,-3,17,22,-1,-5,-12
1501875883336228,-3,0,-2,-5,-39,-6,-6,-9
1501875883358291,-3,3,-7,7,15,-4,-3,10
1501875883358291,0,-11,9,-6,20,6,6,-4
1501875883359249,3,9,2,5,-8,-4,0,5
1501875883359249,-3,-7,-5,10,-11,1,-2,-11
1501875883372217,0,15,7,-4,-11,-8,-2,-1
1501875883372217,3,-7,-9,-11,12,6,2,-3
1501875883373250,1,-6,5,10,-3,6,5,45
1501875883373250,-3,-7,-11,-2,-6,-7,-7,-64
1501875883395258,-2,-6,-2,-2,-16,0,0,-1
1501875883395258,-1,12,0,3,0,-5,-4,-5
1501875883396231,-2,-11,-4,-11,3,-2,-1,-4
1501875883396231,3,17,7,2,-2,0,1,14
1501875883418288,-2,-3,2,-9,-20,-1,-1,8
1501875883418288,-6,-22,-7,7,-20,-6,-1,-6
1501875883419253,1,10,-8,-8,25,6,1,-5
1501875883419253,-5,-2,-6,-13,2,-9,-2,3
1501875883433247,4,-2,6,-12,8,8,-2,-1
1501875883433247,0,-2,5,21,-9,2,2,12
1501875883433247,-1,13,-10,-3,-1,-6,0,-17
1501875883433247,-1,-5,-6,-12,-28,-1,0,15
1501875883455291,-2,2,-4,3,21,1,0,-4
1501875883455291,-1,-16,2,-8,3,-7,-7,-8
1501875883456222,-6,-8,-15,0,-7,-5,-2,-2
1501875883456222,0,-2,-1,-7,-5,0,3,2
1501875883478289,2,5,2,25,13,-1,0,16
1501875883478289,7,7,0,-9,-14,1,3,14
1501875883479258,-7,7,4,-8,8,2,-7,-32
1501875883479258,2,-3,7,-7,15,1,-1,11
1501875883493255,-5,11,-1,-1,-24,1,-4,-7
1501875883493255,5,-16,-3,5,24,-1,2,2
1501875883493255,-3,-7,0,2,-16,-3,-1,12
1501875883493255,1,10,-1,-2,2,-2,-7,-5
1501875883515267,0,9,-3,-6,-4,-2,-1,11
1501875883515267,-4,2,9,12,1,-2,-2,-7
1501875883516238,-3,-18,-3,9,5,-5,-2,-9
1501875883516238,2,9,4,-5,20,14,7,12
1501875883538300,0,-15,-1,-2,-10,-8,0,2
1501875883538300,-2,18,-7,-8,5,5,-1,6
1501875883539260,1,-10,15,24,3,-2,-5,-10
1501875883539260,-2,-8,-5,-13,-37,-4,3,9
1501875883552268,1,-3,-12,-6,32,2,4,7
1501875883552268,-6,15,-8,0,-12,-1,-3,-27
1501875883553227,4,6,8,5,-3,-1,1,5
1501875883553227,-2,-34,-9,8,-3,-10,-2,17
1501875883575293,-6,-4,-2,4,-5,-4,-5,-28
1501875883575293,-3,1,4,-17,5,3,-1,-2
1501875883576241,-1,15,-1,-3,1,3,-2,0
1501875883576241,0,4,9,3,13,1,0,-5
1501875883598292,0,-22,-1,1,-22,-6,0,-2
1501875883598292,-3,1,-6,6,11,-4,-2,0
1501875883599263,0,7,-3,-24,-12,0,-4,-2
1501875883599263,0,3,1,5,1,-3,1,3
1501875883613233,0,6,1,-2,1,2,-1,-2
1501875883613233,-3,-3,-2,-5,-2,-3,-4,-13
1501875883613233,1,10,-1,12,-3,-2,3,10
1501875883613233,-3,-16,2,-18,-11,1,-2,7
1501875883635278,0,-5,-8,5,39,5,-6,-12
1501875883635278,1,-4,-1,-4,-5,0,0,3
1501875883636244,-1,8,-3,-1,-11,-2,-3,-4
1501875883636244,-1,10,3,18,10,-3,-2,-6
1501875883658274,-6,-21,7,3,-24,3,3,8
1501875883658274,1,13,1,-17,10,-1,2,11
1501875883659270,-1,-13,-10,-5,12,3,-3,0
1501875883659270,-7,2,-5,1,1,0,-10,-19
1501875883672273,3,2,-2,-5,-32,-4,-1,5
1501875883672273,-1,-1,2,12,24,-3,-2,-1
1501875883680234,-3,1,1,-14,-24,-3,3,-8
1501875883680234,2,-3,-2,-3,3,0,-1,0
1501875883695274,2,19,0,4,3,2,1,-6
1501875883695274,-2,-31,-3,-2,-11,0,0,-1
1501875883696248,2,7,-3,-3,-5,-2,-1,3
1501875883696248,-2,-13,-1,-3,8,0,0,-6
1501875883718296,-3,-8,2,-1,-4,-5,-3,4
1501875883718296,2,10,-2,-3,-5,-1,1,2
1501875883719247,-6,-17,-2,0,-1,-2,-1,-2
1501875883719247,0,8,3,9,-16,-2,-2,-6
1501875883732301,-1,12,5,15,21,1,-2,-4
1501875883732301,-4,-18,-11,-36,-3,3,3,3
1501875883740276,3,3,5,-1,-3,-3,-3,-1
1501875883740276,2,2,-4,7,-6,-2,2,8
1501875883755243,-1,-5,-4,-13,-12,1,-2,-5
1501875883755243,-2,6,1,12,13,-3,-5,-6
1501875883756252,-1,-8,-2,-2,-4,1,0,-1
1501875883756252,-1,-3,5,0,-38,-6,-2,0
1501875883778301,-5,-1,-7,-38,52,-3,-3,-1
1501875883778301,3,8,6,3,-24,0,9,25
1501875883779276,-2,-14,-5,3,12,-2,-7,-23
1501875883779276,1,5,-1,-16,6,3,-1,-1
1501875883792301,1,2,-1,3,-23,-6,-4,-1
1501875883792301,2,10,1,6,-3,-2,-3,-1
1501875883800282,-5,-15,-2,2,7,-2,3,6
1501875883800282,-6,-3,3,3,5,0,-3,-12
1501875883815275,-2,-5,-10,1,-2,-1,1,1
1501875883815275,2,12,0,4,2,0,-1,-3
1501875883816256,4,16,1,-1,-10,-2,1,6
1501875883816256,-2,-17,0,1,11,1,-3,-6
1501875883838274,2,3,2,1,-6,2,1,4
1501875883838274,-2,-8,-2,17,-9,-2,-3,-4
1501875883839244,-5,-4,-9,-11,-13,-3,-4,-6
1501875883839244,-1,7,-1,-2,48,6,2,4
1501875883852285,3,1,0,1,-13,0,2,6
1501875883852285,-1,-3,-2,2,-13,-5,-9,-13
1501875883860283,-2,-12,0,4,4,1,-3,-1
1501875883860283,1,11,-2,-3,-7,-3,1,-6
1501875883875286,-4,-9,1,5,-6,0,1,1
1501875883875286,0,7,3,-2,2,0,-1,-3
1501875883876246,-2,5,0,-2,-2,-1,-2,1
1501875883876246,-2,-13,-12,-4,1,-4,-3,-3
1501875883898315,1,-5,-3,1,-8,2,-1,0
1501875883898315,-1,-8,2,2,4,-1,-1,-1
1501875883899282,1,5,5,-3,4,1,1,0
1501875883899282,1,2,1,6,4,0,1,4
1501875883912290,1,5,1,-2,0,-2,-3,-5
1501875883912290,-4,-5,-1,11,2,0,-2,-1
1501875883920250,1,3,1,-15,0,1,1,3
1501875883920250,-1,-4,-8,-3,-2,0,1,1
1501875883935266,0,1,1,-2,-5,-2,0,0
1501875883935266,-3,-2,-3,-3,-2,-3,-2,-5
1501875883936249,-2,-1,1,4,1,-2,0,0
1501875883936249,-1,1,3,0,-11,-3,-2,2
1501875883958322,0,-2,1,-2,2,-2,-4,-2
1501875883958322,0,-3,-5,-9,-14,-2,-2,1
1501875883959253,0,1,0,5,22,5,3,1
1501875883959253,-2,-2,2,21,-23,-8,-1,0
1501875883982284,-2,6,-5,-24,29,6,2,-3
1501875883982284,3,-9,-2,-1,-6,-1,-1,-2
1501875883983264,-2,-3,1,-1,-10,-5,-3,1
1501875883983264,-1,3,-9,-6,12,1,1,0
1501875883995286,0,2,1,16,-8,-2,-2,-3
1501875883995286,-2,-12,-3,6,2,0,-3,-1
1501875883996255,0,0,4,-4,-2,3,3,4
1501875883996255,-1,-1,1,-2,-3,-2,-2,-1
1501875884018295,0,-1,0,1,-10,-6,0,0
1501875884018295,-1,3,-2,-2,11,0,-1,-2
1501875884019254,2,10,-2,9,1,0,1,-1
1501875884019254,-2,-4,2,2,2,1,0,2
1501875884041307,-1,-7,-4,-11,-32,-2,-2,-2
1501875884041307,-2,6,-1,-2,11,-2,0,-2
1501875884041307,1,2,-4,3,11,0,1,1
1501875884041307,0,4,7,-4,-2,-2,-2,0
1501875884055297,-2,-9,-10,8,10,4,3,-1
1501875884055297,-2,-7,-2,-16,-21,-3,-2,0
1501875884056270,-3,-8,-1,-2,-6,-2,-2,-3
1501875884056270,1,8,-3,8,9,-1,-2,1
1501875884078264,-5,-6,7,-10,-9,-1,-5,-7
1501875884078264,-3,-2,-2,1,3,1,-1,-3
1501875884079269,0,0,1,-1,-3,-2,1,-2
1501875884079269,0,5,-1,-3,-4,0,1,-1
1501875884101307,-3,-6,2,2,-3,-4,-1,-2
1501875884101307,-1,-3,-1,-1,5,-1,0,4
1501875884101307,-1,-6,-1,-13,-4,1,-1,2
1501875884101307,-1,2,-1,-3,-3,0,0,1
1501875884115300,2,6,-2,-1,9,-2,0,0
1501875884115300,-2,-10,0,3,-9,-2,-1,-2
1501875884116264,0,1,0,5,-15,-4,-5,-3
1501875884116264,-2,-14,-8,-25,7,0,-2,-1
1501875884138327,-2,-3,-3,2,11,1,1,1
1501875884138327,-2,3,1,3,-4,-1,-2,-2
1501875884139294,0,8,-4,2,-5,-2,-2,0
1501875884139294,2,-8,-3,-2,-2,-4,-1,0
1501875884161278,0,-3,-1,1,-2,0,0,3
1501875884161278,0,2,-2,0,3,0,2,-3
1501875884161278,-3,-4,-4,-4,-10,-2,-1,-1
1501875884161278,3,21,4,5,10,3,1,4
1501875884175302,-1,-19,-7,-1,-5,-2,-2,-3
1501875884175302,-1,-1,-2,-1,7,0,1,-1
1501875884176276,-1,-4,-3,0,1,2,0,-2
1501875884176276,-1,2,-1,-1,-6,-1,-2,-3
1501875884198323,-1,6,5,0,-1,-1,0,1
1501875884198323,0,7,0,-2,-4,-1,-2,-1
1501875884199302,-1,-11,-3,-6,4,-1,-3,-3
1501875884199302,-2,-7,2,0,-1,-1,-1,0
1501875884221283,-1,6,-4,3,0,-1,1,-1
1501875884221283,0,-5,-7,-5,-1,-1,0,0
1501875884221283,0,1,-1,1,3,-2,0,-1
1501875884221283,0,-5,1,1,-4,0,0,-2
1501875884243332,1,5,7,-2,-4,0,-2,-1
1501875884243332,0,4,2,-2,0,-1,1,-1
1501875884244300,-1,-3,4,1,3,1,-1,1
1501875884244300,-1,-4,-5,1,-5,-1,0,-2
1501875884257335,-1,1,3,1,-1,0,-1,-2
1501875884257335,1,0,2,0,0,0,-1,-2
1501875884258308,-5,-2,-5,-1,-1,-3,-1,-2
1501875884258308,1,-4,0,-3,-3,0,0,-1
1501875884281289,3,4,-2,0,1,-1,-1,-1
1501875884281289,-1,0,3,0,0,-1,-2,1
1501875884281289,-1,-4,-1,0,0,0,0,0
1501875884281289,-4,1,0,-1,-3,-3,-2,-2
1501875884295311,-3,-2,-12,1,-2,1,0,-3
1501875884295311,3,-2,-2,-1,-3,-2,0,0
1501875884296289,0,0,7,-1,1,-5,1,0
1501875884296289,-3,-2,-16,-3,2,2,-2,1
1501875884317312,2,-4,10,1,0,-1,-1,1
1501875884317312,-2,2,0,2,2,-1,0,1
1501875884318311,-8,-3,-4,-1,-1,1,-1,-3
1501875884318311,15,-3,-1,-2,-4,-3,0,-1
1501875884341283,-13,2,-1,0,1,-1,-1,-4
1501875884341283,3,0,1,-2,-1,-1,-1,1
1501875884341283,3,-1,4,2,1,-1,0,1
1501875884341283,-3,-3,-7,-4,-1,1,-1,0
1501875884355289,1,2,-1,0,1,2,1,1
1501875884355289,-2,-5,-2,-5,-3,-3,-3,-3
1501875884356297,-3,1,3,-3,-1,1,-1,-2
1501875884356297,7,-4,-11,8,2,-2,-1,-4
1501875884377341,-19,-1,2,16,-2,-3,-3,3
1501875884377341,-13,-2,-15,-34,-3,2,1,-2
1501875884378315,10,-5,10,26,-1,-2,0,-3
1501875884378315,-8,4,12,-43,-5,0,2,3
1501875884401293,10,0,4,23,3,0,-2,-3
1501875884401293,1,1,0,-3,3,-1,-3,0
1501875884401293,-8,-1,-8,-7,1,1,2,0
1501875884401293,-5,-2,1,23,1,-2,0,-3
1501875884415321,2,-2,-5,-21,-4,-1,0,-1
1501875884415321,-4,-1,2,20,4,-1,-1,-1
1501875884416290,-4,-4,-5,0,-5,-1,2,6
1501875884416290,-11,-1,-1,-28,-2,-4,-28,-4
1501875884437318,4,1,-12,-24,-3,-1,7,-2
1501875884437318,-33,-1,24,52,2,-1,6,-4
1501875884438285,34,1,-3,-4,0,1,3,3
1501875884438285,-24,-2,-7,18,-1,3,4,2
1501875884461300,22,-1,1,-8,-2,-4,-10,4
1501875884461300,-12,-3,-7,-15,-1,2,-4,-18
1501875884461300,-4,2,14,0,3,0,-2,18
1501875884461300,-3,-2,-8,56,2,-3,4,4
1501875884475348,-2,-4,-14,-71,-5,-2,-4,-3
1501875884475348,9,-5,-23,15,-6,-3,2,22
1501875884476280,-1,0,-5,2,-4,-3,-2,-16
1501875884476280,9,-2,12,-6,6,2,-42,-18
