timestamp,emg1,emg2,emg3,emg4,emg5,emg6,emg7,emg8
1501879514756436,63,67,0,15,2,6,11,90
1501879514756436,-17,13,-42,-89,-23,-11,3,-37
1501879514768435,-49,-46,-35,43,8,4,-2,-26
1501879514768435,49,-17,-17,-95,-12,1,29,110
1501879514777436,-27,36,17,11,-2,0,-9,-107
1501879514777436,9,76,-10,-16,9,4,-9,65
1501879514792436,23,9,36,-18,1,-3,-2,58
1501879514792436,36,68,-17,82,16,9,5,23
1501879514794437,-18,-63,3,56,4,-5,-2,36
1501879514794437,7,-69,43,-78,-3,7,7,15
1501879514814447,-11,-10,-23,-70,-38,-5,-4,-18
1501879514814447,-14,111,26,7,21,-6,0,-76
1501879514816437,20,5,-37,-47,-16,-9,-9,16
1501879514816437,1,-110,16,120,-7,-4,7,96
1501879514828438,33,37,-43,45,-16,-10,-6,-77
1501879514828438,-12,-43,61,34,18,12,-5,-24
1501879514837438,-40,15,8,6,-10,-10,-7,-51
1501879514837438,4,77,34,-114,13,4,-7,3
1501879514852440,17,33,-58,-26,-1,0,14,20
1501879514852440,-35,-83,-33,42,11,-8,-25,-28
1501879514854440,21,111,24,94,9,3,-4,7
1501879514854440,-24,-98,-39,-84,-49,-11,-4,-51
1501879514874442,-47,-43,20,43,5,-3,-22,-13
1501879514874442,27,75,3,27,-10,8,51,127
1501879514876441,-3,-14,7,-49,-9,-3,-37,-57
1501879514876441,6,41,-14,3,9,-8,-6,0
1501879514888444,1,45,30,-6,-16,0,8,-29
1501879514888444,5,-52,24,27,20,9,5,27
1501879514897449,6,-37,-17,-58,-33,4,31,33
1501879514897449,11,49,18,63,85,5,44,102
1501879514911459,-42,-46,-16,-69,-63,-16,-83,-96
1501879514911459,10,45,11,54,45,7,-16,-1
1501879514918443,-12,-66,33,-83,-12,-7,3,1
1501879514918443,7,-62,-44,-8,6,-7,-8,38
1501879514934452,-31,-83,13,27,-12,1,32,25
1501879514934452,-21,-27,-66,-37,-25,-13,-29,-107
1501879514942444,21,50,42,-26,-39,9,14,39
1501879514942444,-34,-47,-63,49,11,-12,-15,-63
1501879514949445,20,36,79,19,48,12,6,3
1501879514949445,0,-10,-5,63,-15,2,16,42
1501879514957449,-11,-21,-18,-59,-3,-9,-3,-20
1501879514957449,2,28,-4,-1,-30,2,-7,39
1501879514972460,17,59,8,31,29,5,5,-18
1501879514972460,-31,-59,-38,-5,-18,-12,-8,-77
1501879514973448,23,0,-32,-23,-26,5,17,76
1501879514973448,-11,27,31,10,23,-1,-17,-10
1501879514994448,18,25,-28,6,-27,8,7,15
1501879514994448,4,5,40,-5,15,-4,16,80
1501879514996448,-23,-76,-4,8,72,1,-5,2
1501879514996448,-15,2,-48,-20,-64,-9,-25,-94
1501879515008450,1,58,11,23,26,-4,-1,-33
1501879515008450,16,-45,-24,-55,-61,-2,14,40
1501879515017450,8,19,45,50,23,0,-29,-60
1501879515017450,-9,-25,-46,-43,12,-1,-3,25
1501879515032450,-11,-25,-10,-35,25,1,-2,-64
1501879515032450,-10,-6,4,10,-16,-1,-4,-9
1501879515034457,13,23,-48,-72,-33,-4,11,46
1501879515034457,-6,-17,79,86,27,-2,-23,-97
1501879515054452,-8,-11,-45,22,-19,0,2,-6
1501879515054452,13,33,-9,14,-19,-3,2,101
1501879515056452,-13,-21,-47,-73,31,14,13,0
1501879515056452,-8,23,70,47,-18,-4,-10,-33
1501879515068452,1,12,-34,-20,5,-1,9,13
1501879515068452,-1,-24,-20,-29,13,-9,-11,23
1501879515077453,-11,-10,23,75,-8,-4,-13,-71
1501879515077453,9,43,-17,-60,-34,1,4,-30
1501879515092453,7,-10,19,1,7,-13,-8,43
1501879515092453,10,27,32,-53,20,6,11,14
1501879515093455,12,20,7,49,-21,-5,8,27
1501879515093455,-8,7,3,-62,26,7,-9,-40
1501879515114456,-1,-1,-3,46,-28,-5,8,27
1501879515114456,-6,10,6,-21,10,0,-2,-16
1501879515116454,22,59,52,76,3,-3,6,44
1501879515116454,8,-39,-90,-7,27,5,2,42
1501879515128470,-9,-66,-10,-45,-6,2,0,25
1501879515128470,-13,-1,-48,-28,-38,-9,-15,-26
1501879515137466,-15,1,27,11,49,6,1,-58
1501879515137466,22,34,47,60,-30,-3,9,23
1501879515159458,-2,18,42,2,37,4,4,23
1501879515159458,-10,-19,-28,44,22,-4,-5,-52
1501879515161458,6,-13,4,-26,-10,4,-10,27
1501879515161458,19,-3,31,-25,-25,-7,-8,18
1501879515174472,-1,-16,-28,-26,15,4,9,23
1501879515174472,-16,-1,31,-3,-11,-5,-8,-39
1501879515176458,20,14,-38,0,-10,-3,15,84
1501879515176458,-30,-62,-13,20,7,2,-5,-44
1501879515188461,5,7,27,-1,-13,-5,-13,-38
1501879515188461,-9,2,12,1,-3,-2,-9,-80
1501879515197460,6,83,-14,6,5,-5,-4,39
1501879515197460,-6,-30,-17,3,-12,-4,-3,20
1501879515219462,-6,4,19,12,29,2,8,9
1501879515219462,12,16,-16,-18,-8,1,10,40
1501879515221460,-1,63,16,34,-17,-6,-17,-33
1501879515221460,-6,-18,38,51,-24,-1,15,51
1501879515234464,3,-17,3,-7,37,7,0,-35
1501879515234464,6,39,25,-16,2,4,-18,-29
1501879515236475,-5,-34,4,1,-13,-2,3,14
1501879515236475,14,60,49,41,22,2,4,-9
1501879515248465,-15,-12,-20,-8,-11,0,1,-5
1501879515248465,-1,-14,-6,0,-2,-3,4,22
1501879515257464,-12,-34,-13,5,-8,2,7,1
1501879515257464,10,9,-11,-14,5,-3,-2,2
1501879515271465,-1,28,14,1,-44,-2,1,5
1501879515271465,-14,-60,-11,9,13,0,2,45
1501879515278464,-10,-22,11,1,30,-7,-7,-68
1501879515278464,5,55,-13,-17,5,-1,-5,-23
1501879515294465,7,21,4,5,-12,-4,-7,0
1501879515294465,13,30,11,-6,-21,2,6,17
1501879515296465,-20,-75,-22,-12,-9,-7,-1,23
1501879515296465,-13,10,4,-28,-1,2,-4,-54
1501879515317468,-6,14,14,42,11,1,-7,-4
1501879515317468,3,11,-12,-40,3,-2,1,14
1501879515318467,2,-22,0,39,-39,0,5,17
1501879515318467,9,35,-6,-30,49,5,9,-6
1501879515332470,-24,-20,-17,1,-40,-4,-15,-27
1501879515332470,5,-7,-12,13,36,-1,1,14
1501879515334480,2,19,11,-11,-10,10,3,-11
1501879515334480,-4,-22,-30,-34,-27,-4,0,30
1501879515354470,7,12,3,-16,-9,-1,3,29
1501879515354470,2,-32,-6,22,-5,-1,-2,10
1501879515356469,0,61,44,14,-7,-4,0,-20
1501879515356469,-17,-49,-14,17,29,4,7,30
1501879515377469,-3,-5,-21,14,10,-8,-18,-91
1501879515377469,-18,-3,1,-18,-22,-6,-9,-29
1501879515378470,5,13,-3,-14,12,1,-3,11
1501879515378470,13,-3,-3,17,0,-3,0,16
1501879515392473,4,-64,-4,-18,12,5,11,26
1501879515392473,-7,-16,13,8,4,5,4,-16
1501879515393472,8,21,-51,38,-12,-6,2,-1
1501879515393472,7,41,2,-23,0,3,3,49
1501879515414473,0,-17,13,-9,-25,-5,7,3
1501879515414473,-28,22,-4,-9,8,-5,-26,-44
1501879515416472,3,-7,-15,-69,22,6,9,-17
1501879515416472,-15,-81,-37,28,-29,-4,-12,0
1501879515437476,27,79,33,-22,51,-1,14,94
1501879515437476,-2,-38,-52,10,-35,-6,1,-29
1501879515438473,-16,-29,-26,45,-34,-12,-22,-7
1501879515438473,5,29,-9,-92,46,13,9,9
1501879515452475,12,-7,7,35,-12,-1,5,9
1501879515452475,1,7,5,30,-26,-7,-2,81
1501879515453475,-14,-56,-5,-8,44,4,-8,-9
1501879515453475,9,30,20,19,-35,-3,5,-19
1501879515474490,-5,1,18,48,1,0,1,-28
1501879515474490,35,95,-36,-89,26,4,27,118
1501879515476477,6,12,27,-12,-50,2,-3,2
1501879515476477,-11,46,35,47,29,-7,-21,-47
1501879515497478,-27,-76,4,3,-1,2,4,-13
1501879515497478,-15,-22,9,1,-6,-5,1,-26
1501879515498477,18,60,-6,11,-9,-2,-8,-8
1501879515498477,-20,-77,16,-39,24,0,-4,31
1501879515511481,3,24,-22,-19,-39,-3,-7,15
1501879515511481,13,1,-5,6,29,1,7,-20
1501879515518479,-13,-70,14,-6,6,0,10,17
1501879515518479,18,72,-3,51,-5,-1,6,10
1501879515534482,-23,-67,-7,-59,-12,-4,-22,-57
1501879515534482,-1,12,16,70,42,3,2,13
1501879515536489,0,-34,-8,-55,-5,-3,1,8
1501879515536489,-2,14,-3,-38,-52,0,-9,-57
1501879515557482,29,89,39,-16,12,2,24,35
1501879515557482,-14,-26,-49,-22,-19,-5,-33,17
1501879515559492,-2,-55,12,-1,23,1,3,21
1501879515559492,-1,-41,-31,15,-24,-7,5,39
1501879515571495,-6,29,-18,-4,11,-5,-11,-51
1501879515571495,12,8,40,11,-7,6,9,-7
1501879515578496,-9,-19,-23,-34,-33,-6,-11,43
1501879515578496,2,-37,26,34,52,5,2,-8
1501879515594483,4,33,10,14,15,16,-2,-21
1501879515594483,2,-11,13,-12,-25,3,10,33
1501879515596483,2,12,-1,-16,25,-4,7,8
1501879515596483,7,13,-11,43,-13,0,2,3
1501879515617485,-5,-39,19,14,-24,-12,-9,28
1501879515617485,-7,-22,-21,-13,14,3,1,-26
1501879515619484,2,-4,1,68,2,0,2,-1
1501879515619484,2,41,0,-30,-12,-2,-7,-12
1501879515631490,-7,8,25,-31,26,-4,4,44
1501879515631490,-2,-4,14,-9,-36,-5,-8,-27
1501879515638491,11,48,-11,18,8,1,0,-19
1501879515638491,-6,-53,5,7,-1,-7,4,15
1501879515655496,-1,-16,-16,20,-27,-4,2,25
1501879515655496,18,82,30,-21,4,0,0,20
1501879515656489,-12,-51,-32,-6,21,0,6,-9
1501879515656489,-9,8,42,-8,-35,-8,-15,-71
1501879515677503,4,21,-17,12,24,0,-15,-26
1501879515677503,-13,-32,-9,-10,-5,-3,4,27
1501879515678489,3,38,-10,5,28,-1,-3,-22
1501879515678489,-3,-10,25,-31,-4,9,-2,-3
1501879515691489,-6,-40,-45,-18,-18,-2,-2,-41
1501879515691489,3,2,-2,28,21,4,1,10
1501879515698490,-1,-22,20,2,5,2,11,49
1501879515698490,1,-26,-21,-27,7,-5,-5,7
1501879515714497,2,21,-18,-24,-13,-4,3,30
1501879515714497,-4,-7,-28,28,1,-4,-10,-32
1501879515716490,-11,12,63,11,-8,2,0,-57
1501879515716490,7,14,-10,-2,15,6,11,69
1501879515737492,7,20,3,-2,-33,0,-14,-49
1501879515737492,-4,-48,8,-36,22,-2,2,-2
1501879515738491,3,13,-23,-6,-19,-2,-3,-5
1501879515738491,-8,18,19,17,19,-4,-4,-8
1501879515751493,10,20,-17,3,-1,2,14,64
1501879515751493,-11,7,-4,0,-34,-7,-16,-59
1501879515758513,14,45,31,-10,15,4,4,-1
1501879515758513,-18,-46,-32,37,-43,-5,3,0
1501879515774507,15,34,16,-17,20,-2,-3,54
1501879515774507,-20,-47,-42,-7,7,2,-19,-85
1501879515776494,3,3,2,-21,1,1,-3,-2
1501879515776494,6,33,2,27,-15,-1,5,11
1501879515797496,-5,1,-19,-39,0,-1,2,0
1501879515797496,2,1,32,3,5,4,8,19
1501879515798496,4,3,5,-17,-3,3,2,23
1501879515798496,-2,-2,-11,10,4,-5,-7,-46
1501879515810497,-4,9,-20,62,-24,-6,4,24
1501879515810497,4,-12,26,-34,42,10,-4,-17
1501879515819510,-15,-19,-30,-2,-3,-3,8,31
1501879515819510,18,54,48,-5,-20,-2,-12,-22
1501879515834507,-19,-89,-25,-22,21,0,-11,-28
1501879515834507,0,42,-3,11,-29,-9,5,11
1501879515836509,-3,-17,-10,4,2,-2,-1,-14
1501879515836509,0,-19,11,-10,6,1,6,18
1501879515857502,-1,15,-20,26,-6,-2,0,29
1501879515857502,5,-37,8,9,5,2,2,-7
1501879515858508,7,-10,33,11,8,0,-2,-18
1501879515858508,-6,10,-42,-38,-3,-4,5,15
1501879515870515,-2,-8,35,25,18,9,-4,-20
1501879515870515,5,63,-3,4,-9,-3,3,1
1501879515879514,12,46,-22,-19,-15,-1,-7,25
1501879515879514,-33,-34,-4,6,31,0,-5,-80
1501879515894505,3,-6,-13,-19,-22,-6,-9,-3
1501879515894505,0,11,-7,3,-16,-1,5,20
1501879515896501,7,19,12,20,-3,-5,-6,6
1501879515896501,6,38,32,28,5,3,6,19
1501879515917502,-9,-20,-18,-26,8,5,1,-22
1501879515917502,-3,-15,-25,-13,1,-4,-4,-5
1501879515918503,-10,-7,-1,-11,-21,-1,-5,-39
1501879515918503,10,2,26,7,6,2,4,42
1501879515930503,9,4,5,13,-25,1,6,-9
1501879515930503,-3,-38,-10,-15,10,-5,-5,12
1501879515939503,4,-25,1,-14,7,-3,4,22
1501879515939503,-18,-13,-19,-26,-7,-3,-15,-7
1501879515954520,11,3,35,47,23,9,6,-7
1501879515954520,-8,-10,-23,-60,-42,-11,-5,-4
1501879515956509,-13,-20,-8,3,28,4,-1,-5
1501879515956509,2,-41,-11,-6,-4,-1,2,-2
1501879515978522,0,11,15,10,6,0,2,14
1501879515978522,12,10,34,18,-13,3,8,42
1501879515979505,-2,-18,-11,5,13,-4,1,-6
1501879515979505,1,8,4,-19,-13,-6,-14,-18
1501879515990527,1,48,-24,26,-13,-2,-1,15
1501879515990527,-16,-53,-62,-33,-30,-11,-2,-12
1501879515999524,3,47,4,1,38,11,1,19
1501879515999524,11,-40,-12,14,4,5,15,21
1501879516014529,1,17,32,13,-41,-6,-10,-67
1501879516014529,-12,18,6,12,38,3,-8,-14
1501879516016511,-6,-10,-9,-7,-27,-3,-5,-20
1501879516016511,2,30,-41,0,17,-2,2,25
1501879516037509,-2,-21,-1,-7,7,-3,-1,-34
1501879516037509,10,20,-14,21,-24,2,5,28
1501879516038530,2,27,17,-10,5,-4,-6,-9
1501879516038530,1,-2,-32,8,3,5,11,9
1501879516050524,-10,-32,9,-24,9,-4,-6,5
1501879516050524,16,39,21,-2,12,8,11,8
1501879516059525,-12,-31,14,9,-7,-6,-17,-41
1501879516059525,-2,-12,20,-5,-49,-4,-2,4
1501879516074574,1,5,-6,-1,65,5,5,20
1501879516074574,2,-10,-24,24,-3,-2,6,21
1501879516076511,-8,-19,18,15,-13,-5,-18,-52
1501879516076511,-1,-52,-5,-7,-1,8,-4,-17
1501879516097534,-10,-25,-24,-18,-16,-6,-6,-6
1501879516097534,9,17,32,10,11,-2,2,22
1501879516098533,-1,-10,-3,-8,-45,-3,5,13
1501879516098533,4,27,-4,13,30,-1,-1,7
1501879516119519,-4,-41,20,0,5,2,4,-12
1501879516119519,-1,-38,27,35,-5,-5,-3,13
1501879516121513,4,-10,-85,-72,-39,-1,9,15
1501879516121513,-7,-7,51,21,12,-4,-2,-20
1501879516134548,0,14,-5,-20,7,1,-12,14
1501879516134548,-5,19,-9,-5,12,0,-9,-39
1501879516136514,3,-22,-23,10,1,-2,0,8
1501879516136514,1,31,11,-20,-26,-2,6,18
1501879516157553,2,25,-1,5,10,2,2,6
1501879516157553,-9,-73,14,19,9,0,-4,-6
1501879516158520,-2,25,-8,17,9,-2,2,28
1501879516158520,3,16,-14,-20,-14,-3,-3,-8
1501879516179558,-8,7,31,18,13,2,1,3
1501879516179558,0,-10,9,-5,-5,-7,-15,-31
1501879516181524,2,0,25,-2,2,6,1,10
1501879516181524,7,3,-31,0,-17,-3,4,30
1501879516194523,-9,-17,-32,-15,12,-3,0,-18
1501879516194523,0,21,13,-6,-25,0,1,-10
1501879516196519,-1,0,-17,16,29,0,8,20
1501879516196519,-8,-7,11,-24,-6,-8,-21,-18
1501879516217520,1,0,-3,11,18,7,6,-1
1501879516217520,4,13,8,-1,5,2,6,4
1501879516218519,-4,21,6,11,12,3,7,-20
1501879516218519,2,-82,-5,-6,-36,-7,-11,-5
1501879516230521,5,30,-20,-20,-10,-7,7,44
1501879516230521,-10,9,14,20,29,6,-10,-50
1501879516239523,-2,-14,8,0,12,0,1,0
1501879516239523,-4,-12,-36,-4,-38,-4,3,-7
1501879516254522,6,35,12,8,15,1,-4,-26
1501879516254522,-7,-14,3,6,7,-4,1,23
1501879516256522,3,22,-1,-15,5,1,-2,15
1501879516256522,-7,-5,19,27,-6,-3,2,-19
1501879516277524,2,-18,-25,-21,-18,-8,-5,-5
1501879516277524,5,40,8,-12,-8,3,0,13
1501879516278523,-11,-21,-12,11,-6,-5,-16,-26
1501879516278523,3,59,12,-7,8,1,2,12
1501879516299526,2,-18,16,32,-10,-3,12,31
1501879516299526,3,16,-11,-47,14,2,-8,-9
1501879516305525,-4,-45,21,-11,-4,1,2,-1
1501879516305525,6,32,-26,45,5,-4,-1,8
1501879516314529,-4,8,35,-34,-16,-2,-1,19
1501879516314529,-5,-9,-53,-30,-8,-4,-6,-38
1501879516316525,-8,-18,7,13,20,-2,-4,10
1501879516316525,13,54,23,-3,1,5,1,-31
1501879516337526,-5,-77,-31,-12,25,1,13,36
1501879516337526,0,1,33,-3,-19,-2,-2,9
1501879516344528,3,9,14,7,-15,-6,-8,-8
1501879516344528,-3,8,-15,-5,42,8,1,17
1501879516359530,7,-6,-18,0,-32,-3,-2,1
1501879516359530,1,-6,4,32,-8,-2,12,28
1501879516361528,-7,11,14,-17,-2,6,-4,-50
1501879516361528,8,5,3,11,14,-7,-4,33
1501879516374529,1,6,-1,6,5,6,-3,-37
1501879516374529,-9,-52,18,-5,14,-5,3,25
1501879516376529,2,36,17,33,-10,-9,2,2
1501879516376529,-11,-30,-2,-48,-22,-1,-4,-61
1501879516396560,-6,2,-41,-1,-10,5,-4,-2
1501879516396560,1,18,28,0,8,-6,-4,18
1501879516404531,4,-22,-16,-4,-14,-4,4,10
1501879516404531,-11,-12,4,-24,0,-1,-6,22
1501879516419536,-3,4,14,26,1,-7,-3,-32
1501879516419536,-1,16,4,-17,-34,2,-9,-31
1501879516421531,7,11,-19,2,31,-1,0,14
1501879516421531,-3,-16,-39,-12,-27,0,0,0
1501879516434533,-6,11,49,-24,11,1,-7,-31
1501879516434533,-7,-21,-45,17,-3,-2,8,23
1501879516440533,-2,-3,9,-13,-8,1,-14,-46
1501879516440533,-3,-5,12,8,19,3,7,4
1501879516457533,10,32,6,11,-1,-2,2,29
1501879516457533,0,-30,1,-8,-18,-4,-6,-7
1501879516458535,-8,21,-8,-3,-3,0,8,1
1501879516458535,-1,-32,2,27,40,7,-1,-17
1501879516479534,-1,13,16,3,-42,-8,-13,-17
1501879516479534,5,8,-43,19,46,3,2,-10
1501879516481535,3,11,24,-14,-36,-2,1,14
1501879516481535,4,3,-9,-18,27,8,9,29
1501879516494536,-9,-18,14,19,22,0,1,-31
1501879516494536,4,-4,-10,-2,-40,1,3,-5
1501879516500537,8,14,-1,-15,-9,-1,2,6
1501879516500537,-7,11,10,15,-2,-6,-8,-8
1501879516517541,-1,-2,27,-12,-3,1,-5,-7
1501879516517541,-2,-2,-20,-10,27,6,12,14
1501879516518541,5,-4,-29,2,-9,1,-6,-20
1501879516518541,-2,-3,8,-9,6,-8,-10,5
1501879516539538,2,-5,-9,4,-20,-1,4,15
1501879516539538,2,40,-4,9,-6,-2,-4,-2
1501879516545542,-8,-18,-12,-7,26,3,4,16
1501879516545542,2,-6,-4,3,-18,-3,5,13
1501879516554539,-7,-5,-18,-4,-7,-5,-4,-22
1501879516554539,1,22,37,27,-12,-4,-1,-8
1501879516560555,1,-20,0,-2,20,9,4,16
1501879516560555,8,8,-5,-6,-34,-2,-1,-9
1501879516577554,-10,-28,11,-2,25,-5,0,6
1501879516577554,-4,-4,-9,-15,-39,-1,-3,-6
1501879516578539,-8,-7,0,-1,16,-5,-11,-21
1501879516578539,10,6,11,13,12,-1,2,-5
1501879516599542,-7,6,-4,-16,-15,1,3,8
1501879516599542,-5,-5,-4,10,0,-1,-4,-16
1501879516601542,1,-7,25,0,-18,-7,3,38
1501879516601542,-2,44,1,-4,5,-1,-6,-11
1501879516614542,2,-34,-21,16,-7,4,2,9
1501879516614542,-5,-27,-32,-50,8,-4,0,9
1501879516620557,-6,23,-3,6,2,-5,-10,-33
1501879516620557,-8,-17,-9,12,21,-1,3,-17
1501879516637544,3,16,-13,-14,6,-2,0,10
1501879516637544,7,-7,0,13,-9,-3,1,22
1501879516639544,-2,-12,21,34,-6,-5,0,-6
1501879516639544,-5,-9,5,-36,-19,4,1,-5
1501879516659559,8,22,-28,-10,23,3,-1,26
1501879516659559,-2,-33,26,25,13,-2,-4,-53
1501879516661547,5,10,-3,0,11,0,1,35
1501879516661547,-6,-17,-8,-6,-1,0,0,-10
1501879516674547,-2,40,28,-1,-12,-5,-11,-34
1501879516674547,2,4,-39,-11,-14,0,-1,10
1501879516680547,-1,-17,-12,-5,1,1,2,-6
1501879516680547,-11,-18,8,23,2,-5,2,0
1501879516697547,5,5,-26,-7,-2,2,-1,4
1501879516697547,-5,22,49,-29,-7,-4,1,9
1501879516698546,3,-16,-33,5,-16,-1,-6,2
1501879516698546,3,-2,8,28,27,4,1,28
1501879516719552,0,-1,-17,-18,-10,-1,-1,-50
1501879516719552,1,18,4,1,-5,1,11,50
1501879516721551,-9,-19,-26,-23,-9,-5,-17,-28
1501879516721551,-3,-16,4,14,19,0,-5,-3
1501879516734550,-3,-17,-9,8,-8,-2,-2,11
1501879516734550,5,26,1,13,-10,0,0,-3
1501879516740550,-5,-5,4,-25,1,-1,5,1
1501879516740550,-2,5,-10,-15,-16,-2,-5,16
1501879516757566,-4,-32,21,12,-1,-8,-1,1
1501879516757566,-2,0,7,10,-6,1,12,24
1501879516758550,-2,17,-21,-33,40,1,-15,-31
1501879516758550,7,12,6,1,-23,0,3,10
1501879516779566,2,2,9,2,-9,0,0,4
1501879516779566,-4,-10,-1,16,37,2,1,10
1501879516781552,6,31,-1,10,10,-3,2,-19
1501879516781552,7,15,-6,0,-2,-2,2,14
1501879516802557,-3,-28,9,-20,-11,-1,2,12
1501879516802557,-7,-30,13,-10,-9,-5,-15,-21
1501879516803560,-1,-1,-16,15,-6,3,8,25
1501879516803560,2,12,-13,-30,6,-2,4,-8
1501879516817554,-1,-7,-9,16,15,3,-5,-1
1501879516817554,-5,2,12,0,-9,-5,-8,2
1501879516818562,7,6,2,9,8,3,17,51
1501879516818562,-14,-11,-8,12,-26,-3,-6,-76
1501879516839576,-5,3,-12,7,-23,-5,-15,-30
1501879516839576,4,-2,-27,-30,67,8,0,-6
1501879516841555,0,21,39,5,-18,-2,0,2
1501879516841555,3,-7,-4,3,-11,-2,5,30
1501879516853557,5,-4,-8,12,-1,-2,7,24
1501879516853557,-4,-9,-14,5,-2,2,-5,-55
1501879516862557,8,-5,-4,-14,-23,-3,12,33
1501879516862557,-14,2,23,-18,0,-10,-21,-57
1501879516877600,-3,0,18,27,5,10,4,10
1501879516877600,-2,12,13,0,-3,1,-1,14
1501879516878583,5,-24,-5,17,-23,3,15,10
1501879516878583,-11,-13,-37,-21,23,-4,-17,-31
1501879516899560,5,33,32,8,8,-3,-2,6
1501879516899560,-1,-1,-9,7,-19,-4,-2,-13
1501879516901560,-8,4,-41,-2,-28,-1,-7,-3
1501879516901560,5,-39,6,-7,0,3,6,1
1501879516913578,-8,-4,-13,1,-2,-4,-5,-2
1501879516913578,2,2,-3,4,4,-2,1,8
1501879516922561,3,-12,-10,-3,4,-3,1,-15
1501879516922561,7,16,7,10,4,5,4,35
1501879516937562,-4,-22,0,-33,11,0,0,34
1501879516937562,-5,-7,-18,13,-18,2,1,-24
1501879516938560,-7,-22,10,-40,18,-4,-3,-4
1501879516938560,-7,7,-19,17,-10,-1,-10,-49
1501879516959607,3,1,23,12,-15,-7,-5,-7
1501879516959607,2,30,4,-28,-16,-2,0,17
1501879516961562,0,-15,7,36,5,2,-2,11
1501879516961562,4,1,20,-25,1,3,13,7
1501879516973630,2,-3,-26,6,-19,-13,-1,-23
1501879516973630,-3,-12,22,-21,3,3,-5,-6
1501879516982567,-3,0,-24,9,16,-5,-4,-9
1501879516982567,3,14,-3,0,24,3,2,38
1501879516997565,-1,12,-24,-25,-21,-1,4,-12
1501879516997565,0,13,33,17,-1,-3,-12,-43
1501879516998572,3,4,1,3,-1,3,-2,-5
1501879516998572,-5,14,22,2,-27,-4,-2,3
1501879517026571,2,3,-2,5,26,8,12,22
1501879517026571,-3,-36,-24,-13,-29,-4,4,27
1501879517035573,-6,13,11,-8,35,1,-11,-35
1501879517035573,5,2,-1,11,-1,-3,3,-5
1501879517036567,-5,-6,-24,8,-38,-7,1,38
1501879517036567,1,-6,-2,45,70,8,3,15
1501879517042567,-7,-2,23,-29,-39,-6,-11,-15
1501879517042567,7,-1,-41,9,1,-1,2,26
1501879517057574,-7,-19,29,-20,-4,0,-2,-29
1501879517057574,-4,-10,-25,11,-21,-5,-4,6
1501879517058570,4,6,30,-2,-3,2,4,14
1501879517058570,-4,-1,-10,7,34,1,-3,-16
1501879517079605,7,20,30,-19,-4,3,10,51
1501879517079605,-2,-13,-17,21,-41,-13,-10,-67
1501879517081569,4,-6,17,-11,53,11,6,-11
1501879517081569,-7,4,-5,-26,-19,-6,-8,10
1501879517093574,2,-4,-1,33,31,2,-1,-7
1501879517093574,10,2,11,-35,-4,2,7,49
1501879517102571,1,6,-12,13,-21,-2,5,26
1501879517102571,1,22,14,-10,-11,-4,-13,-12
1501879517117575,-6,-19,-18,-25,9,-4,-7,-10
1501879517117575,-7,-4,-3,-3,7,3,1,7
1501879517118571,-4,0,-5,9,-3,-3,-1,-15
1501879517118571,7,5,5,15,9,1,11,38
1501879517139594,-2,-26,-10,0,-5,-4,-2,-5
1501879517139594,-5,-22,5,-2,-13,-1,-11,-42
1501879517141573,-2,32,-4,-35,-26,1,-2,1
1501879517141573,-4,-25,5,16,12,-1,1,-25
1501879517153633,3,15,-3,-28,1,1,2,1
1501879517153633,-1,2,11,19,-5,-1,4,-6
1501879517162576,-2,-3,-17,1,-12,-3,-5,-1
1501879517162576,-2,-22,-7,1,-10,1,8,21
1501879517177611,0,17,-1,-18,1,-7,-15,-41
1501879517177611,-6,9,2,-1,29,1,3,8
1501879517178599,6,12,24,16,-3,1,4,19
1501879517178599,-5,-14,-28,0,-1,-3,-5,-12
1501879517199597,10,10,10,6,-15,4,6,-8
1501879517199597,0,5,9,-16,-2,-3,2,27
1501879517201577,-3,-2,1,-8,1,-1,-8,-22
1501879517201577,5,1,13,-7,-10,-1,5,28
1501879517222580,-5,-13,-15,25,23,5,0,-15
1501879517222580,6,25,2,0,-16,1,-5,-20
1501879517223578,2,-2,16,13,15,-3,9,39
1501879517223578,-1,-10,-21,4,-11,6,4,-10
1501879517236579,-2,26,12,-17,4,-4,-5,5
1501879517236579,-7,-16,-17,-8,7,-1,-2,-20
1501879517244585,-1,-11,-27,4,-18,-5,-2,-6
1501879517244585,-4,-20,4,-24,2,-1,0,-4
1501879517259585,-1,12,-11,11,9,3,5,19
1501879517259585,3,12,13,12,15,-4,-3,8
1501879517261610,0,6,6,-7,-31,-6,-3,-23
1501879517261610,0,-9,7,0,14,4,-2,10
1501879517282583,-3,-11,-14,8,-10,-4,6,-5
1501879517282583,-6,0,-3,-27,-41,-2,-11,-23
1501879517283582,-3,-9,2,20,43,-3,-5,16
1501879517283582,-2,24,3,-14,0,-1,0,-22
1501879517297588,-5,-13,-13,14,-1,-1,-3,-27
1501879517297588,7,-6,4,-16,14,3,4,34
1501879517298584,-10,-21,-18,-25,-34,0,-2,-23
1501879517298584,-4,-20,-19,6,12,1,-7,3
1501879517319584,2,-10,13,-1,-7,-1,9,50
1501879517319584,-10,-13,8,44,24,-4,-10,-41
1501879517321585,-4,5,3,-22,-11,-1,-4,-9
1501879517321585,5,1,0,7,16,-1,2,16
1501879517342587,-3,10,-10,-14,-59,-5,-3,1
1501879517342587,2,-18,6,-2,47,3,0,17
1501879517343585,-2,-11,-6,26,8,-2,-4,-13
1501879517343585,-8,6,4,-19,-34,-1,1,-5
1501879517356587,3,20,-5,23,19,-1,-1,-20
1501879517356587,-7,-11,-3,-24,-42,-11,-16,-13
1501879517363602,5,-15,-15,-18,50,15,7,23
1501879517363602,3,6,17,7,-15,-6,-3,8
1501879517379587,-3,7,18,3,-12,0,-6,-24
1501879517379587,-1,10,-22,-7,-5,-3,12,25
1501879517381587,-5,-9,-7,7,-13,-6,-11,-31
1501879517381587,0,4,12,2,-2,-2,1,9
1501879517402590,12,-3,11,-18,14,0,-3,8
1501879517402590,-3,6,-3,10,21,0,2,-6
1501879517403589,2,2,-6,-12,-9,1,6,43
1501879517403589,-6,-4,-7,5,-3,-5,-10,-51
1501879517416590,-2,0,16,-10,-6,-1,0,-3
1501879517416590,7,19,13,-1,10,9,6,12
1501879517423592,-2,11,-3,12,-12,-5,7,12
1501879517423592,-8,-15,-5,-1,16,-2,-17,-47
1501879517447593,5,-13,-36,-10,-14,-4,1,21
1501879517447593,-7,-15,18,-25,-12,-4,-7,-7
1501879517448591,-1,3,2,11,10,4,-3,-9
1501879517448591,6,44,25,5,0,-2,17,38
1501879517462591,-19,-53,-20,-3,10,-4,-22,-48
1501879517462591,10,2,-24,2,-12,-1,4,-14
1501879517463597,4,7,18,6,0,-3,-3,7
1501879517463597,-5,-1,30,4,-26,-4,-2,-7
1501879517476607,-3,26,-41,-4,30,3,0,-4
1501879517476607,2,-8,-4,-4,3,0,8,48
1501879517483599,-1,-17,2,9,-12,-5,-2,-9
1501879517483599,4,-1,-10,-10,-13,-2,-4,-10
1501879517499597,-8,12,3,6,-2,6,13,24
1501879517499597,5,19,1,-27,-15,0,-13,2
1501879517501595,3,-12,-19,-3,-2,-4,-3,-13
1501879517501595,-10,-5,-6,6,11,-3,-6,-12
1501879517522665,-2,-2,24,7,22,3,1,-2
1501879517522665,1,15,-26,3,-19,-3,4,-4
1501879517523600,-4,-21,18,8,-5,-2,2,5
1501879517523600,-2,-12,-22,-16,1,-4,-9,18
1501879517536600,-1,3,5,4,3,-4,-5,-23
1501879517536600,5,11,-3,14,-14,-1,6,8
1501879517543618,-5,-4,12,-18,16,1,-1,-3
1501879517543618,1,5,1,9,3,3,9,26
1501879517559634,2,-5,1,-8,-13,-1,-2,-6
1501879517559634,6,-10,-9,17,21,3,1,18
1501879517561632,0,16,4,16,-23,-3,0,10
1501879517561632,-8,-16,-15,-15,10,-3,-5,-9
1501879517582626,0,10,8,-2,2,4,-7,-33
1501879517582626,-3,-3,11,9,-18,-3,-2,-8
1501879517583602,1,-2,-13,8,29,3,-1,-12
1501879517583602,4,19,10,-5,-15,1,9,21
1501879517596603,-2,-20,4,2,-10,-6,-2,9
1501879517596603,-4,8,18,-8,-11,0,-5,-5
1501879517604601,3,14,-29,-17,-4,-3,-1,13
1501879517604601,10,-7,-1,-1,29,5,0,-7
1501879517619604,-1,4,0,13,-12,0,4,18
1501879517619604,1,2,7,1,3,4,8,25
1501879517621602,-13,-13,-33,-26,-2,-3,3,-39
1501879517621602,-2,9,25,2,-6,-2,-10,-8
1501879517642605,-6,-8,-4,16,26,-1,-10,-4
1501879517642605,-1,10,0,-7,-15,-8,-5,-13
1501879517643603,2,-2,10,-4,-3,2,5,19
1501879517643603,-5,-10,-14,3,-24,0,-3,-4
1501879517656661,1,7,-6,-12,18,1,2,3
1501879517656661,2,-3,8,10,-16,-3,-1,13
1501879517663659,2,11,8,0,-20,-4,3,14
1501879517663659,0,17,-28,4,46,5,4,-2
1501879517679644,2,-21,10,20,-16,-3,-2,31
1501879517679644,1,9,-21,-34,22,0,-4,-26
1501879517681605,-5,-13,27,11,-13,-2,-5,3
1501879517681605,1,2,7,4,-19,-3,2,-11
1501879517701610,-2,7,-16,-18,-1,-2,6,13
1501879517701610,-7,-21,-9,1,9,-3,1,-3
1501879517709614,-3,7,-6,20,-23,-5,-7,-28
1501879517709614,-5,-31,-5,-43,-20,-1,-6,29
1501879517715626,-1,13,-7,-9,10,-2,-4,-27
1501879517715626,-6,-13,19,2,-5,-7,-6,-48
1501879517724612,-3,-2,-6,1,-1,3,7,25
1501879517724612,2,2,-6,16,-6,-6,-4,-35
1501879517739609,7,3,-5,-8,23,5,-1,8
1501879517739609,-5,-4,12,2,-9,4,3,3
1501879517741627,2,2,23,1,14,-1,-4,-2
1501879517741627,1,12,5,-2,-6,1,4,8
1501879517762646,2,-12,3,8,-29,1,5,10
1501879517762646,1,2,13,3,40,-1,-2,-22
1501879517763611,-7,-11,-4,-6,18,3,-6,-13
1501879517763611,-1,2,-11,1,9,2,2,11
1501879517775660,-3,11,7,-12,-52,-4,-11,-27
1501879517775660,5,-14,-17,15,21,-1,3,29
1501879517785616,-8,-12,-5,-15,4,0,-1,-43
1501879517785616,-4,-8,3,13,5,0,-4,2
1501879517799612,5,3,-26,17,9,-1,0,2
1501879517799612,-11,-23,-20,-29,-13,-1,-5,6
1501879517801613,6,28,12,3,-5,0,1,13
1501879517801613,-3,-15,-14,6,3,-1,3,8
1501879517822672,-2,-9,7,12,14,-6,3,2
1501879517822672,6,30,17,-25,-24,1,-1,31
1501879517823634,-7,-51,-26,-1,1,-1,-9,-57
1501879517823634,3,10,0,14,4,-5,2,-24
1501879517835621,-3,-5,3,-35,-36,1,0,28
1501879517835621,-1,4,-16,1,40,7,10,33
1501879517844617,1,20,-1,-4,-15,-4,-18,-44
1501879517844617,1,-8,13,11,2,-5,-4,8
1501879517859654,1,-21,14,-3,6,2,5,-11
1501879517859654,-7,1,13,23,-2,0,6,12
1501879517861658,2,29,-38,-13,-27,-3,-4,4
1501879517861658,0,-7,17,17,2,1,-3,-1
1501879517882616,1,3,11,-6,9,-2,5,3
1501879517882616,-11,-14,-13,-11,-20,-6,-15,-30
1501879517883618,5,5,25,15,7,-5,-3,42
1501879517883618,-4,-9,-13,-16,-2,2,1,-22
1501879517895617,3,28,-10,5,12,2,0,26
1501879517895617,-6,-18,8,0,-26,3,2,-70
1501879517904619,-1,13,3,22,51,3,4,23
1501879517904619,3,-19,-11,-14,-18,-5,-3,18
1501879517919651,4,2,8,-7,-20,0,1,10
1501879517919651,3,-7,-15,6,37,1,3,17
1501879517921637,0,-1,23,-15,-22,1,1,2
1501879517921637,4,32,24,36,37,3,6,17
1501879517942640,-10,-3,-61,-43,-32,-5,-10,-32
1501879517942640,4,20,3,5,-34,-4,-3,28
1501879517943623,-4,-20,3,-2,41,3,0,8
1501879517943623,-2,-6,-18,-15,6,3,3,11
1501879517955644,-1,4,6,8,2,-4,1,5
1501879517955644,-13,-20,-17,-3,-26,-6,-15,-35
1501879517964622,5,18,13,1,12,-1,4,27
1501879517964622,-6,-10,0,7,-11,-1,-5,-40
1501879517979660,8,4,6,15,-14,-2,0,8
1501879517979660,-2,1,-5,-1,2,3,3,2
1501879517981624,-1,3,-12,-4,6,-2,-1,-4
1501879517981624,-3,-11,-6,2,-13,-4,4,14
1501879518002629,1,-5,16,-18,-2,8,-2,-5
1501879518002629,5,17,19,18,15,-2,-4,5
1501879518003624,-3,-18,-16,-14,-18,-3,-2,-19
1501879518003624,2,3,-14,3,-7,2,3,11
1501879518015628,-9,2,3,-9,11,-3,-4,-18
1501879518015628,0,-23,-5,13,-25,-1,5,13
1501879518024632,-1,9,4,-2,21,-1,0,-22
1501879518024632,2,-4,11,-20,-19,-4,-4,14
1501879518039645,-2,4,6,15,10,-3,1,0
1501879518039645,1,-4,1,-5,15,1,0,-1
1501879518041626,5,8,-5,-8,-22,3,1,22
1501879518041626,-1,10,6,-2,-1,0,0,-9
1501879518062648,-2,-13,-1,1,-4,-3,-4,-3
1501879518062648,2,5,-5,-2,22,-1,2,-12
1501879518063632,4,0,1,12,-32,-4,-2,26
1501879518063632,-1,3,2,-16,22,1,-3,-10
1501879518075684,-10,-25,2,-5,1,-3,-3,-2
1501879518075684,3,-5,-19,7,-1,-1,9,21
1501879518084628,-7,1,16,-8,-25,-4,-12,-35
1501879518084628,-4,3,-23,-16,5,-3,-2,9
1501879518099660,0,-16,-11,1,1,0,-7,-17
1501879518099660,1,13,33,15,20,1,0,10
1501879518101630,-3,-18,-12,-26,-33,0,9,13
1501879518101630,0,-7,5,10,14,-3,-1,5
1501879518122685,-8,-11,-1,-1,25,-2,-3,-11
1501879518122685,3,13,-17,-8,-21,0,-2,-2
1501879518123630,2,19,22,18,13,-4,-1,18
1501879518123630,5,-20,-9,3,0,3,6,21
1501879518135642,-7,9,13,-3,-42,-3,-1,-33
1501879518135642,3,-3,1,-26,31,1,-4,-26
1501879518144633,-8,-2,-13,4,-8,-10,-7,-4
1501879518144633,3,8,16,-7,3,9,6,15
1501879518159674,-2,-6,-24,9,6,-1,0,-10
1501879518159674,-2,3,14,-2,-18,-1,-3,2
1501879518161634,0,-3,-29,14,7,-1,1,-4
1501879518161634,-4,5,-8,-22,-50,-5,-5,-16
1501879518181635,4,10,6,-3,27,1,3,18
1501879518181635,-2,10,-6,-13,14,-2,-1,-2
1501879518182635,0,-24,-5,5,6,1,9,15
1501879518182635,8,0,10,41,15,2,-6,22
1501879518203641,7,11,-2,-44,2,4,6,24
1501879518203641,-2,3,1,-1,-10,-1,-2,-17
1501879518204636,0,22,1,3,0,1,3,11
1501879518204636,1,4,-2,4,-10,-5,-2,-18
1501879518218637,-1,-28,2,27,-6,-8,-8,3
1501879518218637,-7,-3,-12,-19,-13,3,-5,-10
1501879518219636,-3,0,27,5,20,4,2,18
1501879518219636,-5,0,-30,-25,-3,-3,-5,-5
1501879518241638,3,15,1,10,-4,-5,5,4
1501879518241638,-12,-26,-13,-5,-1,-2,-11,-11
1501879518242641,2,0,18,10,21,0,-3,-10
1501879518242641,-9,3,-1,-8,-24,-5,-7,-35
1501879518263640,7,21,7,18,16,-6,2,29
1501879518263640,0,-31,-3,25,6,3,-2,-7
1501879518271638,-2,-5,-9,-36,-30,-1,6,10
1501879518271638,1,-5,0,-3,12,-3,-2,-18
1501879518278640,-4,1,6,-7,-16,-1,-7,-21
1501879518278640,-2,3,6,9,-12,-1,1,2
1501879518279640,1,0,-12,10,13,-2,-9,-5
1501879518279640,-1,-1,15,0,-19,1,9,8
1501879518301642,-2,25,-11,3,-10,-1,4,11
1501879518301642,2,-22,0,-9,46,4,-5,-21
1501879518302643,4,-2,-9,-9,-24,1,7,12
1501879518302643,-6,-7,-5,-9,-4,-4,-3,2
1501879518323643,1,-4,8,14,2,4,-2,-15
1501879518323643,2,18,0,-2,3,0,6,38
1501879518324644,9,1,-4,-8,7,-3,0,-1
1501879518324644,-4,12,27,1,-15,2,-2,-1
1501879518338645,1,-13,-21,-3,5,-2,-2,-13
1501879518338645,-1,7,-11,2,-17,-9,9,15
1501879518339643,-13,-29,-10,32,21,-2,-21,-36
1501879518339643,5,30,-2,-26,4,3,-3,-10
1501879518361669,0,-15,11,-5,11,3,2,15
1501879518361669,7,19,-5,11,-15,-8,1,16
1501879518362647,-7,-12,-2,-10,-1,1,-1,-30
1501879518362647,-3,-5,-7,9,22,-2,1,11
1501879518383651,-3,0,3,-11,4,4,-5,-3
1501879518383651,-3,5,17,1,-20,-3,0,-12
1501879518384647,5,23,-24,0,-11,-3,-2,38
1501879518384647,-7,-29,-2,8,-1,-2,-4,-48
1501879518398650,-10,-27,-9,1,2,-1,4,3
1501879518398650,1,-10,-10,-4,-3,0,-4,-5
1501879518399647,2,3,23,0,-3,0,-4,-40
1501879518399647,0,-6,-3,-1,7,0,3,15
1501879518421648,0,14,11,8,-1,-3,3,20
1501879518421648,-5,9,-15,25,-3,1,-6,-22
1501879518422648,-4,-14,12,-48,2,2,-1,-12
1501879518422648,1,-2,-30,19,-3,-5,-3,-22
1501879518443652,5,7,-1,-31,6,3,4,33
1501879518443652,-2,-14,1,-5,-22,-3,-1,10
1501879518444655,0,-1,1,24,-2,-3,3,3
1501879518444655,4,21,19,-5,14,5,3,38
1501879518458664,-6,17,-28,13,-7,-4,-8,-46
1501879518458664,-3,-9,7,-18,16,-3,-6,2
1501879518459650,-4,-7,-2,0,-25,-3,1,0
1501879518459650,-3,-9,1,-5,-2,-2,-5,-4
1501879518481655,-2,-12,0,8,3,0,-1,10
1501879518481655,4,25,6,13,10,-1,4,-16
1501879518482654,0,1,0,-13,-4,3,6,23
1501879518482654,-9,-26,-10,-3,-3,-2,-3,0
1501879518504657,4,3,25,20,-27,-6,-6,10
1501879518504657,5,-2,-37,-23,52,10,10,-13
1501879518504657,-7,5,4,9,-1,-3,-6,-1
1501879518504657,-2,-2,5,4,3,-2,-3,-2
1501879518518670,-3,-5,7,9,-1,4,-3,12
1501879518518670,-1,-1,-9,1,-23,-5,-2,-3
1501879518526669,3,9,-7,-4,8,-5,1,0
1501879518526669,-1,1,4,-17,-22,-7,-5,-3
1501879518541654,-4,-16,-1,6,7,2,2,-8
1501879518541654,2,-1,-18,-2,-11,-3,-4,16
1501879518542655,-3,5,-17,-8,2,0,-2,-10
1501879518542655,9,21,18,-19,-25,-6,4,16
1501879518563657,0,-29,3,6,24,2,3,-7
1501879518563657,-3,-5,-4,-36,-10,2,-6,5
1501879518564657,1,-3,2,10,3,-1,-1,-3
1501879518564657,1,-2,7,10,-13,-1,3,13
1501879518578670,1,19,-11,-8,16,-2,-1,-8
1501879518578670,-3,-5,18,8,-7,-2,-1,-17
1501879518586659,2,-4,-4,8,0,-5,2,35
1501879518586659,5,-1,5,-8,3,6,-1,4
1501879518601659,1,9,2,12,-27,-3,1,-2
1501879518601659,-7,-10,-10,-15,16,-1,-12,-44
1501879518602660,-1,13,7,6,-12,-1,-4,-15
1501879518602660,-4,-8,-5,11,19,-2,1,1
1501879518623675,2,22,14,-9,11,5,8,16
1501879518623675,-2,-4,4,5,-48,-7,-6,-4
1501879518624662,-8,-18,-14,-12,32,3,-1,-12
1501879518624662,-4,-1,3,8,-3,-6,-6,-19
1501879518638663,-1,0,-14,-19,-9,-4,1,-7
1501879518638663,5,13,25,13,4,1,8,20
1501879518646661,-6,6,-3,-18,-20,-3,-12,-28
1501879518646661,-2,-22,-6,7,5,-5,-3,9
1501879518661675,-1,2,1,-1,4,5,8,14
1501879518661675,-5,-13,-4,25,18,-4,-5,-18
1501879518668662,-1,-19,-16,-35,-12,3,1,-11
1501879518668662,-3,0,5,-4,-4,-5,-5,-7
1501879518683669,-7,6,-2,-9,-17,-1,-7,-20
1501879518683669,1,-17,-3,-3,-4,3,6,32
1501879518684677,3,23,6,9,-5,-2,8,6
1501879518684677,-2,-6,4,10,9,3,1,-20
1501879518698665,-2,-16,1,-28,-9,-5,-9,-19
1501879518698665,4,17,16,10,-7,0,2,18
1501879518706666,5,10,-6,2,0,-1,5,-11
1501879518706666,-5,13,0,-5,-29,2,0,35
1501879518721679,-3,11,-4,11,46,1,-6,-21
1501879518721679,-2,-20,-11,-8,-11,-1,1,6
1501879518722667,0,-6,30,25,-3,1,1,-8
1501879518722667,1,5,-25,-1,-17,-2,7,17
1501879518743667,-6,-31,-22,-40,22,0,-14,-12
1501879518743667,0,21,5,1,-3,-5,-2,16
1501879518744667,3,1,-6,-14,4,0,2,8
1501879518744667,0,12,3,17,9,3,4,9
1501879518767669,-2,-9,-1,-1,-19,-7,-3,-14
1501879518767669,-5,14,2,2,30,1,-3,-29
1501879518767669,-3,-2,-3,12,-28,-3,-3,7
1501879518767669,1,-10,-3,-1,27,0,-1,-6
1501879518781672,4,9,6,0,-6,1,4,9
1501879518781672,-3,-6,2,5,0,-1,0,16
1501879518782674,-3,-13,7,4,-5,0,0,-12
1501879518782674,-4,-3,-41,-12,9,2,-5,-31
1501879518803670,-2,-1,-6,2,-17,-2,-1,11
1501879518803670,4,7,13,24,2,-1,4,12
1501879518804676,0,-13,-24,-27,12,1,-1,-11
1501879518804676,7,35,11,-6,1,1,-8,-14
1501879518818675,-1,-12,5,5,-6,-3,1,-25
1501879518818675,-5,-4,-7,0,-50,-4,-8,-3
1501879518826733,-6,-9,9,0,66,5,4,1
1501879518826733,-1,1,2,23,1,1,-3,-24
1501879518841673,4,3,5,-5,18,-3,-2,22
1501879518841673,1,5,-6,-37,-18,1,4,6
1501879518842693,-1,-27,-1,20,-4,2,-4,8
1501879518842693,-1,-5,4,-2,10,-4,1,-1
1501879518863679,-3,6,0,18,-20,-3,0,-3
1501879518863679,1,4,13,-10,12,0,2,4
1501879518864674,-3,9,-9,2,8,3,-6,-5
1501879518864674,-1,-23,3,-3,-5,-2,-4,-4
1501879518878718,3,-1,0,20,-10,-1,-2,15
1501879518878718,-4,-1,-6,-13,-5,-2,6,13
1501879518886692,-3,8,1,5,-41,-9,-17,-40
1501879518886692,2,-4,-2,-7,25,-1,-2,11
1501879518901706,-3,-3,24,-3,23,5,1,3
1501879518901706,0,-5,-24,2,4,2,4,2
1501879518902680,-1,-6,4,12,19,-4,-2,0
1501879518902680,1,6,11,-15,-33,2,5,4
1501879518923717,-2,-12,-20,-19,-8,-3,-5,3
1501879518923717,-6,0,-5,3,14,-3,-4,-30
1501879518924691,2,12,6,-12,-19,0,6,32
1501879518924691,3,-9,0,0,-1,1,-1,6
1501879518938699,4,6,-8,6,14,-2,5,28
1501879518938699,2,8,11,4,-4,1,-7,-36
1501879518946697,-3,3,-12,2,-11,-1,0,-5
1501879518946697,-1,5,-2,7,15,-2,1,7
1501879518961737,-7,-8,0,5,-33,-1,7,7
1501879518961737,3,4,-14,-34,34,2,-9,-28
1501879518962699,-5,-29,2,1,2,2,-1,23
1501879518962699,-6,7,-2,16,-12,-3,2,-4
1501879518983684,1,-6,9,-10,23,0,-6,-2
1501879518983684,5,0,-9,15,-19,-2,7,30
1501879518984681,-5,-6,6,-12,3,-6,-7,-31
1501879518984681,-3,-2,-9,4,-14,-1,-5,-2
1501879518998686,-1,7,-7,3,-11,-4,-3,-19
1501879518998686,2,2,28,3,4,2,0,18
1501879519006706,8,13,-10,-13,-15,-1,8,32
1501879519006706,-4,1,-9,8,26,3,-4,-20
1501879519021750,-2,-8,-4,17,3,-4,-5,-10
1501879519021750,-4,-1,2,-19,10,3,9,12
1501879519022690,1,-12,4,10,-30,-4,-7,-1
1501879519022690,-5,-1,9,-2,15,-1,-6,-27
1501879519043687,12,1,5,-25,9,1,4,16
1501879519043687,-12,-4,-12,8,-23,-4,-3,-1
1501879519044685,-1,18,-1,-2,9,2,-1,-16
1501879519044685,-3,-27,4,-19,-16,-1,5,15
1501879519058740,1,-5,-2,18,4,0,1,15
1501879519058740,3,-10,-13,-8,-14,-4,-7,-15
1501879519066703,1,17,17,8,-10,-5,-4,-8
1501879519066703,1,-1,-8,-27,-13,-3,-2,-1
1501879519081699,-8,5,7,7,45,4,0,-9
1501879519081699,0,-16,1,6,-16,-4,-1,23
1501879519082729,2,9,-6,15,19,7,5,-18
1501879519082729,0,-7,-3,-13,-4,-5,-4,10
1501879519103689,-3,-9,-4,2,-19,-4,-3,-9
1501879519103689,1,8,7,2,2,-1,2,4
1501879519104689,-2,-7,-1,3,-11,-3,-6,4
1501879519104689,2,2,-10,-3,9,-1,3,6
1501879519127757,-3,10,0,-10,4,3,-5,-19
1501879519127757,1,8,0,-3,6,-1,-3,5
1501879519127757,2,18,8,-11,-10,-3,3,19
1501879519127757,-13,-37,-23,37,-15,-3,0,-4
1501879519141692,-6,-27,-16,-25,-4,2,-3,0
1501879519141692,-4,1,-8,7,38,2,-9,-33
1501879519142709,5,4,11,9,13,1,7,24
1501879519142709,3,26,2,-8,-6,3,5,14
1501879519163747,-2,8,8,7,-19,-3,-2,1
1501879519163747,-3,-16,1,0,-7,-2,0,-6
1501879519164696,2,-4,-15,0,3,-4,-6,-6
1501879519164696,5,13,28,-10,-11,1,3,2
1501879519187694,-1,-7,-41,14,18,1,2,6
1501879519187694,4,12,6,-5,-9,4,0,-1
1501879519187694,0,-1,1,-13,6,1,7,9
1501879519187694,4,14,4,-6,3,1,-4,27
1501879519201694,4,-2,9,30,-27,-5,-8,-41
1501879519201694,-2,-31,-8,3,-6,-3,-2,7
1501879519202694,-6,-15,-12,-25,13,0,-2,1
1501879519202694,1,-1,-10,4,40,7,5,8
1501879519223714,1,11,17,-7,-14,-5,-2,-2
1501879519223714,-2,-3,14,7,-8,-4,-2,-7
1501879519224695,2,-3,0,16,-12,-1,3,16
1501879519224695,0,3,-6,-8,-12,-4,-3,-20
1501879519247697,-6,-4,-2,-13,2,2,-3,0
1501879519247697,-3,-7,-3,-3,1,-2,-2,-9
1501879519248697,0,-4,-9,0,-6,-2,2,24
1501879519248697,-3,3,7,21,-26,-3,-8,-25
1501879519261703,-6,-3,-14,-33,23,1,-3,-16
1501879519261703,0,17,6,-3,-14,1,1,10
1501879519262712,6,-2,-6,-7,5,-2,-1,7
1501879519262712,-5,-19,-3,17,0,-4,-7,-18
1501879519283710,-1,35,9,7,-2,-4,2,-31
1501879519283710,-6,-26,-13,-33,-9,2,-1,25
1501879519284699,-6,-4,0,-2,-1,-4,-7,0
1501879519284699,4,-11,1,4,-5,-1,7,24
1501879519307705,2,2,-16,21,-6,-3,-7,-2
1501879519307705,1,21,7,10,0,2,-2,-13
1501879519308712,4,-1,-10,4,-1,2,10,15
1501879519308712,-10,-3,4,-24,-16,-4,-19,-39
1501879519321701,7,13,16,15,-32,-6,0,34
1501879519321701,-1,0,-9,-9,62,7,3,-25
1501879519322702,-9,-2,2,1,-11,0,-8,-8
1501879519322702,2,0,-9,-7,-5,-2,7,3
1501879519343702,-5,5,20,-1,-3,4,6,22
1501879519343702,-8,-4,1,7,-14,-8,-10,-55
1501879519344703,6,9,10,5,12,-3,0,4
1501879519344703,-4,12,-7,-2,4,-1,-4,-8
1501879519367704,2,13,13,-31,-14,-1,11,39
1501879519367704,0,-4,-37,14,-7,-7,-20,-31
1501879519367704,-6,-14,1,7,19,2,-1,-23
1501879519367704,4,7,-5,-40,-26,-2,0,11
1501879519381706,3,-5,-5,-1,12,-2,5,14
1501879519381706,-10,-17,16,11,8,-1,-8,-13
1501879519382705,-5,-5,-8,-13,-15,-2,-10,-35
1501879519382705,0,-2,5,21,0,-3,-1,8
1501879519403705,-5,-12,-9,-24,-26,1,-1,-27
1501879519403705,0,-6,-4,-14,15,-4,8,30
1501879519404706,4,-6,-3,13,12,3,0,6
1501879519404706,-1,9,11,7,-2,-1,4,8
1501879519426707,-3,-18,-9,-26,-9,-2,-7,-23
1501879519426707,-1,12,-10,6,-7,0,2,10
1501879519433711,3,3,26,-7,-25,-2,1,7
1501879519433711,-3,2,-8,32,31,-2,-5,-4
1501879519442707,5,6,4,-28,-38,1,6,0
1501879519442707,5,-7,-5,8,34,5,4,28
1501879519443707,-9,3,-6,-4,-26,-2,0,-9
1501879519443707,1,14,-3,-10,29,3,-4,20
1501879519463729,0,8,27,38,-4,-5,-10,-40
1501879519463729,1,-6,3,-6,-3,-1,2,10
1501879519464709,-2,-8,-4,8,8,1,0,-5
1501879519464709,4,-8,-1,-45,-13,1,6,8
1501879519487735,5,10,-4,10,18,-3,-4,-13
1501879519487735,-6,-3,2,0,-17,-1,2,7
1501879519487735,-3,-10,-13,8,1,-3,-5,-2
1501879519487735,0,-2,15,8,13,4,3,-28
1501879519501711,-8,-15,-14,-1,4,-1,-10,26
1501879519501711,5,5,11,5,-21,-1,2,4
1501879519502716,-3,3,1,-7,13,-3,-3,-13
1501879519502716,-2,-5,-13,-8,-8,2,2,3
1501879519523754,2,-13,-15,12,17,-1,3,11
1501879519523754,-1,13,-5,2,-21,-4,0,5
1501879519524713,-4,-7,1,15,-8,-3,-1,21
1501879519524713,6,1,3,-14,31,11,-1,-21
1501879519547714,-5,-15,8,7,4,-1,-2,-3
1501879519547714,0,3,-8,-8,-2,-2,-3,-4
1501879519547714,-2,0,4,5,-13,-4,-4,-24
1501879519547714,-3,2,5,3,-14,-6,2,21
1501879519561737,-1,0,-12,0,0,-2,-2,-15
1501879519561737,2,-6,14,3,-5,-2,0,14
1501879519562719,5,7,0,-17,2,2,2,-14
1501879519562719,-9,-26,-11,2,-4,-4,-6,8
1501879519583718,3,8,-5,8,13,4,-1,3
1501879519583718,2,9,3,1,-9,-4,0,12
1501879519584717,0,3,-11,-7,6,1,-1,-30
1501879519584717,-6,-14,-1,12,-11,-7,0,-1
1501879519607718,5,13,0,-13,-4,0,-3,-7
1501879519607718,-10,-6,6,-2,-4,-1,0,-7
1501879519607718,1,-19,-14,9,11,1,0,15
1501879519607718,-7,5,-10,-20,-12,-1,-9,-48
1501879519621760,3,3,-3,0,-3,-2,6,33
1501879519621760,1,7,7,-5,-4,-2,5,10
1501879519622723,1,-3,-9,-8,-1,-1,-4,21
1501879519622723,-1,10,16,21,12,-8,-3,4
1501879519643724,-7,-9,-3,8,17,7,0,-9
1501879519643724,6,14,17,7,-1,1,-2,-5
1501879519644723,-6,-13,-9,-37,-25,-4,-3,6
1501879519644723,4,5,-4,5,-9,-4,1,19
1501879519666720,-5,-6,-2,0,-11,2,-3,8
1501879519666720,-2,-17,-3,-7,12,0,-4,-22
1501879519667721,-1,16,4,2,-3,-1,1,-5
1501879519667721,-1,-7,-5,-2,-12,0,1,3
1501879519681722,-5,-12,-6,0,-29,-5,1,23
1501879519681722,-2,18,-6,-14,29,-2,-1,-46
1501879519682721,-2,-10,8,25,8,-3,-13,-14
1501879519682721,-7,-29,-20,-21,-2,1,6,21
1501879519703729,3,10,13,4,-11,-3,-13,-42
1501879519703729,-10,-19,-13,-13,-5,-1,-6,8
1501879519704727,2,13,2,-30,1,1,6,-8
1501879519704727,-1,13,18,14,14,2,1,-6
1501879519727745,-3,-10,-4,6,-16,-7,-6,-3
1501879519727745,5,2,-1,9,0,6,3,12
1501879519727745,-1,0,24,8,21,0,2,19
1501879519727745,2,-2,-25,-13,-17,0,2,-1
1501879519740742,1,1,0,6,14,-1,3,-43
1501879519740742,6,26,5,15,-17,-1,-2,16
1501879519748747,-4,-23,16,-5,17,7,5,5
1501879519748747,1,23,19,22,13,0,-1,3
1501879519763744,1,-17,-16,-34,11,2,-1,17
1501879519763744,5,-12,-6,12,-9,-3,2,-2
1501879519764727,-7,15,12,-17,-7,-3,-8,-5
1501879519764727,3,-3,3,20,-17,-4,-6,-32
1501879519787728,-3,14,2,-2,31,4,5,15
1501879519787728,-1,-8,0,-2,-1,2,9,45
1501879519787728,-1,-2,-11,15,-33,-3,-5,-31
1501879519787728,1,2,-4,-9,11,-3,-10,-45
1501879519800731,-3,-28,-8,2,11,-1,2,-5
1501879519800731,5,4,-2,5,22,3,-2,5
1501879519808770,1,4,-37,-4,-19,-3,3,17
1501879519808770,-2,-6,37,-1,-7,0,-1,-1
1501879519823790,1,6,-47,-5,-8,-2,4,13
1501879519823790,0,9,-3,-5,-17,-4,1,-13
1501879519824730,-1,-15,2,11,9,1,-6,8
1501879519824730,3,4,-12,-12,3,-3,-3,15
1501879519846734,-2,2,9,8,0,1,0,5
1501879519846734,0,5,10,-12,-10,-4,-2,3
1501879519847780,-6,3,-1,4,15,-1,-1,-3
1501879519847780,-1,1,-2,6,-4,1,1,11
1501879519860771,-1,3,4,-19,-9,-1,-2,3
1501879519860771,-6,-5,-7,-4,-15,-5,-6,-10
1501879519868765,11,-5,2,10,19,4,9,35
1501879519868765,-4,0,-4,-7,-11,-2,-1,-18
1501879519883736,0,-12,14,14,8,-2,-5,-4
1501879519883736,-6,-13,-15,11,2,-1,-3,-4
1501879519884736,5,7,-11,-22,-5,-1,3,5
1501879519884736,-11,-9,-13,-3,17,1,-3,23
1501879519906771,3,-1,18,7,-19,-5,4,6
1501879519906771,-3,-1,5,-8,-6,-3,-13,-24
1501879519907736,-2,-5,-14,-10,-10,-6,-3,-3
1501879519907736,3,9,-11,7,-6,0,2,17
1501879519920791,-4,10,4,6,2,3,0,-16
1501879519920791,-2,-32,-3,-15,4,-2,0,16
1501879519928792,-2,5,4,2,-9,-1,0,2
1501879519928792,1,-4,-2,-1,1,2,0,-5
1501879519943743,-4,0,-6,-13,0,0,-2,9
1501879519943743,3,3,-3,2,0,1,2,-1
1501879519944737,-3,2,3,4,-2,-5,-2,6
1501879519944737,1,-6,-6,-11,-17,0,0,-11
1501879519966740,-2,-6,2,13,18,5,0,-2
1501879519966740,0,4,3,3,-16,-3,-2,-4
1501879519973803,-3,-1,-9,-7,24,1,-2,-8
1501879519973803,0,-1,8,2,-11,0,1,7
1501879519980741,2,16,3,4,4,-3,-1,-8
1501879519980741,-1,-11,-6,-2,-11,1,-2,-3
1501879519988740,0,11,15,-8,-12,-5,-2,-8
1501879519988740,0,-6,-3,1,14,5,1,3
1501879520003761,-4,1,-1,-5,-5,-1,-2,-3
1501879520003761,-1,1,-5,0,0,-1,3,-2
1501879520004741,-1,-4,11,17,8,-1,-1,-12
1501879520004741,5,11,-1,-16,-9,-1,3,8
1501879520026797,0,-11,-6,0,3,-1,-3,8
1501879520026797,-1,1,5,6,-8,-4,-3,11
1501879520027759,3,20,-2,5,-16,1,4,-9
1501879520027759,-10,-38,0,-4,37,1,-1,-36
1501879520049744,-1,-3,-4,-23,-7,-1,-7,24
1501879520049744,-1,0,2,1,2,-4,-5,-16
1501879520050743,2,15,6,1,0,0,-2,28
1501879520050743,-2,-12,-10,3,-23,-5,-2,9
1501879520063802,-1,6,1,-10,-6,-7,2,3
1501879520063802,-4,-14,-12,10,19,7,5,3
1501879520064744,1,-1,0,5,-8,-4,5,2
1501879520064744,-2,-1,-3,-16,1,-2,1,-21
1501879520086745,-6,3,3,8,6,-2,-14,-24
1501879520086745,6,16,2,-2,-11,1,-6,14
1501879520087766,1,-5,2,-3,-3,-1,2,-34
1501879520087766,2,-13,-1,13,-19,-7,-2,21
1501879520109789,4,-14,-1,-4,23,6,11,14
1501879520109789,-1,9,-5,-13,-17,-3,1,-4
1501879520110747,-4,-2,-4,7,15,2,-4,0
1501879520110747,0,4,4,5,-8,-3,-4,-1
1501879520123800,-2,2,-5,-1,-9,-2,0,-14
1501879520123800,-3,-8,5,2,10,-2,-2,-2
1501879520124747,3,-9,3,-7,-1,2,1,-3
1501879520124747,-3,29,-12,0,-10,0,-2,-3
1501879520146790,-2,-4,5,0,10,0,4,7
1501879520146790,2,3,10,20,-3,-7,2,19
1501879520147756,-9,-20,-20,-26,4,2,-7,-40
1501879520147756,7,24,7,-14,9,3,13,58
1501879520169754,-5,-1,5,21,-19,-2,-17,-59
1501879520169754,1,-10,0,-1,39,4,1,-8
