timestamp,emg1,emg2,emg3,emg4,emg5,emg6,emg7,emg8
1501874327641793,-3,5,34,-52,1,-1,3,16
1501874327641793,-16,-5,-22,30,-14,-4,-5,-28
1501874327645792,-6,-12,12,29,3,-3,-9,-17
1501874327645792,-3,5,2,-11,-2,1,2,-15
1501874327645792,32,-8,-12,43,8,-4,-6,58
1501874327645792,1,17,9,-50,-6,-3,7,24
1501874327647789,2,5,-1,9,26,9,-3,5
1501874327647789,16,-15,9,53,-7,1,1,87
1501874327653789,-29,-21,-84,-80,-1,-3,-2,-47
1501874327653789,11,9,56,37,-3,-3,0,38
1501874327669793,5,-2,-69,-21,-1,-1,2,9
1501874327669793,51,23,25,58,17,6,9,39
1501874327673792,-25,56,62,10,4,5,3,-20
1501874327673792,-31,-102,-39,-78,-26,-16,-17,-70
1501874327689791,-4,34,0,67,-2,3,10,-57
1501874327689791,26,50,-50,-87,3,4,7,65
1501874327698793,-1,-19,-13,19,-16,-11,-22,-96
1501874327698793,-20,-26,17,11,25,16,-1,35
1501874327713792,3,-45,-6,-83,-29,-6,20,56
1501874327713792,2,24,-70,30,-4,-13,-19,-34
1501874327714793,-35,-9,69,75,-2,-3,-3,-18
1501874327714793,-2,-7,69,-10,8,-10,-14,-24
1501874327732793,-9,-11,-62,27,5,-6,-30,-39
1501874327732793,-2,31,-4,17,-2,7,32,61
1501874327774799,8,69,0,96,29,1,-18,-41
1501874327774799,-41,-64,-31,-26,-14,-11,-18,41
1501874327775797,-19,96,38,-65,16,12,-13,-76
1501874327775797,1,-15,23,50,2,6,-8,-12
1501874327778798,-28,-97,-40,21,-2,-2,8,26
1501874327778798,15,47,-26,-9,-11,-4,22,12
1501874327779797,15,-26,-40,-32,-1,4,24,56
1501874327779797,6,14,-12,-73,-40,-18,-1,52
1501874327786800,-1,-8,47,89,49,10,-9,56
1501874327786800,-1,42,10,-13,10,12,-5,-79
1501874327792800,-10,31,-15,26,19,2,-14,-55
1501874327792800,-6,27,1,-71,-60,-29,-18,-87
1501874327809800,15,-59,29,-80,14,14,26,32
1501874327809800,-33,-34,-34,-33,27,7,-3,-23
1501874327824804,52,57,9,86,16,6,25,76
1501874327824804,12,90,30,-26,7,11,16,116
1501874327825817,-42,-83,-33,-39,-33,-13,-36,-113
1501874327825817,51,60,51,-21,8,-3,-13,8
1501874327846800,-26,-95,-48,83,-35,-13,-22,-5
1501874327846800,24,-20,20,7,32,12,10,78
1501874327848801,0,16,-39,-108,-46,-15,56,82
1501874327848801,-5,-32,4,65,3,-1,-6,-5
1501874327861801,-2,-63,24,59,-7,-5,-12,25
1501874327861801,-13,-22,32,43,16,-4,-29,-19
1501874327867823,7,81,5,-52,2,12,-1,2
1501874327867823,-1,61,30,112,-15,-5,6,-67
1501874327884823,-29,-49,8,-78,-34,-17,4,64
1501874327884823,7,18,-22,-44,51,13,4,-84
1501874327885806,-29,-40,1,127,-5,-4,-16,-17
1501874327885806,11,10,-44,-104,-27,-1,11,127
1501874327906806,4,2,45,-30,53,11,0,-12
1501874327906806,-36,-37,-9,92,-5,-4,-13,-76
1501874327908805,23,78,0,-77,2,5,3,-9
1501874327908805,38,-19,13,114,-14,-15,-15,-1
1501874327921807,19,4,11,46,9,4,19,99
1501874327921807,-25,28,-15,-42,-28,-8,-20,-69
1501874327927826,14,59,45,64,9,0,3,33
1501874327927826,-36,-65,-11,-81,-11,3,-4,-9
1501874327944827,29,96,-41,-114,2,3,-6,11
1501874327944827,-4,-85,-22,24,17,1,20,-8
1501874327945827,19,27,-2,16,-40,-15,2,1
1501874327945827,-19,15,29,-10,46,19,2,-50
1501874327966829,1,-76,-35,-31,-24,-13,-15,2
1501874327966829,13,1,-14,41,19,14,10,57
1501874327968808,-17,35,22,-90,14,-2,-6,26
1501874327968808,25,-16,11,-36,-16,-2,9,120
1501874327980810,-31,5,-18,58,-23,-5,-4,-42
1501874327980810,-6,29,17,-52,-28,-13,-8,-16
1501874327989808,17,-44,-27,94,-6,2,1,30
1501874327989808,-14,6,0,38,45,8,9,-22
1501874328004809,20,64,-6,50,-13,3,-8,17
1501874328004809,-10,74,5,-40,-5,-5,9,-11
1501874328005810,26,-17,-56,-75,-33,-9,-14,74
1501874328005810,1,-4,28,44,1,1,8,37
1501874328026832,-58,-46,-9,40,15,-11,-10,-78
1501874328026832,4,-14,-48,-35,9,7,3,13
1501874328028832,-20,73,63,-25,-13,0,-5,-70
1501874328028832,-12,-63,17,-40,-25,-16,-16,-65
1501874328041812,46,67,-3,-62,41,0,6,68
1501874328041812,-33,-66,15,32,0,-1,-14,-40
1501874328049816,28,8,-6,84,18,5,-18,-50
1501874328049816,-4,4,-79,-95,-45,-4,5,-18
1501874328064834,-18,0,33,31,0,-7,4,-66
1501874328064834,28,6,3,-59,6,9,7,74
1501874328065813,-14,32,48,66,25,7,7,12
1501874328065813,-14,-55,-23,-77,-19,-23,-21,-103
1501874328086814,-5,-66,42,-67,-36,21,5,31
1501874328086814,4,45,-23,71,64,0,5,-6
1501874328088816,-44,-59,-41,-52,-23,-6,-13,-59
1501874328088816,44,53,29,56,4,-2,16,85
1501874328100816,-25,-68,1,-5,-6,3,-1,-128
1501874328100816,-4,-6,15,58,-16,-7,-23,-5
1501874328109816,5,-70,13,5,41,-1,6,33
1501874328109816,-29,46,-29,-67,-15,1,-10,-86
1501874328124816,9,4,25,71,-9,-8,0,76
1501874328124816,28,87,-7,11,-13,6,13,19
1501874328125818,17,-46,2,64,6,-12,-12,31
1501874328125818,-13,58,48,36,18,3,1,1
1501874328146820,6,19,-64,-90,-4,6,25,-34
1501874328146820,12,29,20,34,-8,-6,-4,1
1501874328148822,6,-11,-61,-128,-63,-1,-2,77
1501874328148822,15,-40,53,56,41,10,21,11
1501874328160839,-27,0,-54,2,0,-2,-2,-2
1501874328160839,7,-29,10,36,16,-10,1,70
1501874328169819,-4,7,-33,-84,-10,4,-8,-81
1501874328169819,-8,1,-18,-78,-29,-13,-10,1
1501874328184820,-13,10,-16,27,42,6,-12,-32
1501874328184820,-10,-18,1,-20,-41,-5,3,-9
1501874328185823,-22,20,21,60,7,0,2,-23
1501874328185823,12,-36,-48,3,7,7,2,87
1501874328206822,-18,-27,29,-44,-24,-10,-2,-102
1501874328206822,18,-44,-22,21,7,-2,-5,100
1501874328208843,-7,26,-29,-89,22,8,6,-79
1501874328208843,-38,17,-16,109,-16,-7,-10,-38
1501874328220822,-3,15,74,57,-12,-3,0,4
1501874328220822,6,-23,-40,-40,5,2,-7,-18
1501874328229824,2,2,45,-20,-16,-8,4,-3
1501874328229824,14,-35,-14,20,13,3,1,-9
1501874328244824,-4,26,-19,-63,-19,-6,-5,79
1501874328244824,-16,6,31,-1,-10,-5,0,-61
1501874328245840,6,-25,-26,61,34,4,6,29
1501874328245840,-26,34,-5,-50,2,-2,-6,-48
1501874328266827,12,21,31,45,-5,-4,-3,4
1501874328266827,12,-2,-2,-115,2,8,1,-29
1501874328268845,-29,-18,23,15,-13,-1,7,48
1501874328268845,13,-3,-13,30,4,-4,-15,-1
1501874328280829,20,34,25,59,-15,-2,-3,-21
1501874328280829,-34,-22,-18,-40,-25,-13,-3,-13
1501874328289826,43,94,-1,10,48,21,15,80
1501874328289826,18,9,-19,0,-28,5,0,26
1501874328304829,-46,18,21,-71,24,-5,-10,-70
1501874328304829,3,-29,-5,106,-6,3,12,53
1501874328305827,10,33,-7,45,-34,-11,-15,-13
1501874328305827,11,6,45,-14,22,10,5,-1
1501874328327830,36,-33,-50,-45,-3,1,-4,116
1501874328327830,5,77,-17,6,24,7,9,-55
1501874328332848,-40,-95,27,-104,-41,-15,-10,-14
1501874328332848,-17,55,-3,66,7,-7,-4,-23
1501874328340834,49,-49,7,-44,-1,-2,2,87
1501874328340834,-5,21,-1,-13,-2,2,12,-2
1501874328349830,26,64,-6,-6,8,0,-8,-37
1501874328349830,-26,-76,0,-53,-36,-4,3,9
1501874328364851,-1,20,-3,100,62,6,5,3
1501874328364851,19,-34,14,-54,-30,-4,-19,-26
1501874328365853,-14,-9,-31,19,-12,-3,13,-58
1501874328365853,8,11,16,34,23,1,6,49
1501874328386833,16,-7,6,39,-17,-4,-2,-2
1501874328386833,-14,-5,-13,8,-2,0,-6,0
1501874328388832,1,18,34,-53,-22,-2,0,-19
1501874328388832,29,7,-39,62,24,4,-3,44
1501874328400835,-28,-3,18,15,7,-3,1,-2
1501874328400835,9,-38,20,-57,-24,-12,-6,-10
1501874328409834,-15,17,18,23,46,8,-2,-3
1501874328409834,-20,17,-1,25,-4,1,-3,22
1501874328424833,-3,-38,-36,-84,-14,6,6,-66
1501874328424833,-10,66,66,92,1,-5,-5,-55
1501874328425839,-9,12,-10,42,-9,-9,-8,-42
1501874328425839,16,-61,-18,-108,-11,-7,1,30
1501874328446845,-16,-21,-21,-11,28,12,8,9
1501874328446845,13,17,50,69,-18,0,8,57
1501874328448855,4,-63,-49,-20,16,-3,12,15
1501874328448855,1,35,67,33,11,6,-3,-1
1501874328469841,9,29,-27,-36,-86,-9,-8,-19
1501874328469841,-13,-65,-71,-64,20,0,3,-9
1501874328471837,8,-3,5,54,24,3,-11,26
1501874328471837,1,36,45,-17,-23,-1,6,-14
1501874328491842,23,35,-5,-5,9,4,-1,67
1501874328491842,-19,-58,-34,-14,-3,-2,-4,20
1501874328493859,-1,3,8,67,16,-1,-4,-5
1501874328493859,-12,35,7,-113,9,2,-3,-8
1501874328506838,18,41,3,37,-28,-4,1,13
1501874328506838,-22,-4,4,-28,16,1,-11,-64
1501874328508840,-21,-74,-18,-38,-11,-3,6,-7
1501874328508840,14,31,23,73,21,8,11,38
1501874328529840,3,10,23,-43,-4,-4,-9,17
1501874328529840,-11,-78,-73,-7,0,2,-3,25
1501874328530862,4,29,33,24,-15,-5,-4,-58
1501874328530862,-22,-33,-17,-31,-9,-5,-9,-94
1501874328544842,-13,29,-12,57,15,-6,8,-20
1501874328544842,-11,-25,51,-45,-5,-1,-10,-27
1501874328546844,-10,53,7,-20,0,2,-4,1
1501874328546844,-16,-83,-75,98,-30,-2,8,36
1501874328566841,-24,-25,11,-106,15,-8,-10,-27
1501874328566841,22,50,9,36,15,-3,-1,42
1501874328568863,14,0,2,-11,12,16,17,57
1501874328568863,-1,-39,17,55,-40,-9,-8,-57
1501874328588843,17,52,-4,-18,49,7,-2,-25
1501874328588843,-5,-25,-15,-40,-25,2,7,14
1501874328595847,20,1,21,80,-35,-9,0,55
1501874328595847,13,-19,-29,-86,43,3,-10,0
1501874328603843,-7,-18,1,54,-49,-3,-3,-8
1501874328603843,5,63,-31,26,58,5,10,42
1501874328610844,10,-47,26,-12,12,1,7,39
1501874328610844,39,38,-1,40,-1,-6,-15,49
1501874328626863,-18,-13,7,-35,-6,1,3,-42
1501874328626863,-14,-42,-8,44,-21,-4,-3,-32
1501874328628849,-18,13,-15,-56,-4,-7,-8,-24
1501874328628849,14,32,-8,-88,-4,1,9,5
1501874328649847,6,-37,42,97,22,5,-5,9
1501874328649847,-4,41,-7,-18,-15,-5,0,-5
1501874328650847,31,22,36,42,13,-2,12,74
1501874328650847,-19,28,4,-23,-27,-2,-5,-8
1501874328663849,-2,-20,8,-14,17,5,1,-14
1501874328663849,-32,-22,-23,-11,-10,-11,-8,-37
1501874328670869,11,51,-1,6,-2,3,-14,-10
1501874328670869,-12,29,-1,13,3,-4,2,-8
1501874328686853,0,-32,-47,10,-6,1,1,19
1501874328686853,12,33,56,32,-66,-9,4,12
1501874328688849,-7,-40,-56,4,78,17,-4,-18
1501874328688849,6,20,13,-60,-10,3,8,-1
1501874328709872,19,41,51,45,-21,-6,5,14
1501874328709872,-2,-45,-37,-35,-23,8,10,39
1501874328710855,-19,16,-7,-7,-5,-10,-7,-38
1501874328710855,-26,-79,-34,62,10,-4,-27,-73
1501874328723874,40,66,2,-20,-3,3,5,51
1501874328723874,4,43,24,23,20,4,2,-27
1501874328730854,-21,-28,29,-21,-42,-7,-19,-88
1501874328730854,-2,-22,-19,42,5,-10,1,53
1501874328745856,-25,27,-5,9,9,-4,-11,-52
1501874328745856,18,-32,38,-3,10,-1,-5,1
1501874328754853,-11,-38,-7,27,3,0,8,20
1501874328754853,8,60,5,-65,-19,-5,-6,-20
1501874328769875,-18,-47,10,53,14,-3,-3,-22
1501874328769875,-19,-1,-45,9,41,16,4,11
1501874328770876,2,9,-8,-46,-24,-8,-7,8
1501874328770876,34,1,63,-28,-22,-4,6,80
1501874328791856,-62,-30,-54,2,-4,-4,-10,-85
1501874328791856,14,29,15,-15,58,6,8,53
1501874328793856,12,-10,-10,-44,-34,-3,5,5
1501874328793856,-7,26,-48,24,3,1,-6,-5
1501874328805856,13,-69,25,-25,13,4,4,32
1501874328805856,-12,-19,29,37,-26,-11,-9,-14
1501874328814856,2,-14,-34,14,64,4,-1,-21
1501874328814856,-19,-58,-33,-60,11,1,5,-41
1501874328829859,-15,8,5,-52,-21,1,7,-6
1501874328829859,39,79,14,27,5,-5,-29,-27
1501874328830862,-8,-53,6,38,-37,-8,15,61
1501874328830862,-7,8,-1,7,-8,5,0,-14
1501874328851862,29,10,-35,-44,30,-4,-8,-18
1501874328851862,-17,-41,95,86,-1,-1,1,16
1501874328853859,-8,86,-66,-106,-35,-6,-11,-100
1501874328853859,-6,-16,24,8,18,10,8,2
1501874328874924,3,6,17,48,5,-4,4,44
1501874328874924,2,-13,-18,55,7,0,-4,-10
1501874328875874,-4,-5,1,-22,-16,-9,-8,4
1501874328875874,13,-4,35,60,23,-3,4,-10
1501874328889906,2,0,-39,-53,-25,-3,-5,32
1501874328889906,-4,0,-17,59,23,2,10,15
1501874328890901,-7,0,22,-44,-1,7,-4,-15
1501874328890901,-3,-11,-1,47,1,-1,-1,7
1501874328911883,12,20,14,-16,-74,-14,-4,53
1501874328911883,-22,-68,-33,-31,17,12,15,-68
1501874328913865,2,10,-11,-29,12,-2,-17,20
1501874328913865,8,15,40,3,22,4,3,9
1501874328934866,-17,29,-12,13,0,-3,6,-11
1501874328934866,-7,-10,-26,-79,-28,-8,-5,5
1501874328935886,-1,7,-14,37,-17,2,2,-35
1501874328935886,-39,-49,38,12,2,-8,-11,-11
1501874328949864,2,-92,-28,31,25,10,4,-32
1501874328949864,7,34,9,-70,-15,-1,8,55
1501874328950871,-5,0,-2,50,5,-11,-4,-32
1501874328950871,0,35,5,53,1,7,7,13
1501874328971865,3,-14,-23,-20,-2,4,-1,-4
1501874328971865,-8,-32,-34,-42,26,-2,-3,3
1501874328973882,19,42,28,-19,-58,-14,-5,41
1501874328973882,-20,11,19,-18,27,11,3,-92
1501874328994870,27,12,-26,38,19,0,2,40
1501874328994870,-4,46,4,6,-21,4,-9,-30
1501874328995871,1,-3,12,-30,38,6,7,25
1501874328995871,-2,-1,-38,-24,-45,-15,-4,-9
1501874329009867,-9,22,32,8,17,-2,-8,73
1501874329009867,13,23,-31,-18,-32,-10,-7,-16
1501874329010870,3,-20,23,41,16,4,3,-1
1501874329010870,0,-8,-48,-36,2,-1,1,52
1501874329031887,-4,5,43,17,-4,-1,-4,-26
1501874329031887,18,-7,-7,20,0,0,15,73
1501874329033889,-12,-64,1,6,2,1,-14,-52
1501874329033889,1,-20,-12,34,3,-2,8,-1
1501874329054869,-5,33,16,-48,17,-2,-4,-7
1501874329054869,15,2,-2,17,-9,0,5,-2
1501874329055871,-22,-53,34,25,5,-4,-12,-48
1501874329055871,-1,25,-22,-4,-24,-9,-3,14
1501874329068890,0,16,10,-6,11,9,-4,-39
1501874329068890,-6,14,24,-31,-5,5,3,-56
1501874329075871,34,29,9,91,33,2,18,77
1501874329075871,-7,-65,12,-63,19,7,-9,17
1501874329091874,-7,18,-17,35,-38,-16,-16,-31
1501874329091874,-1,33,1,-29,5,4,2,-18
1501874329093875,8,32,-1,9,-16,-1,10,35
1501874329093875,12,-13,-21,29,-19,-8,-10,24
1501874329114877,-10,-4,-20,-96,11,7,6,-10
1501874329114877,-2,2,23,53,-11,-3,-6,-37
1501874329115874,-1,0,3,-24,4,9,9,29
1501874329115874,34,21,-11,53,-9,-11,1,14
1501874329128874,-22,10,3,13,-3,7,2,-46
1501874329128874,-14,-31,1,20,23,-7,-15,-22
1501874329135874,-8,15,8,-29,-5,0,5,34
1501874329135874,-12,-10,-2,-6,20,10,12,8
1501874329151897,25,53,35,21,-27,-7,6,31
1501874329151897,-21,-37,-29,5,10,-4,-15,0
1501874329153897,-4,-4,14,-3,3,-1,-1,-14
1501874329153897,-9,25,-21,-66,-11,-6,-9,-27
1501874329174876,3,-3,-21,22,-6,-5,7,36
1501874329174876,-1,21,-41,10,-5,2,6,-13
1501874329175879,2,-5,0,-15,8,6,-4,-30
1501874329175879,-6,-1,-52,-7,-14,-5,-4,-3
1501874329188880,5,17,33,-27,-13,-5,-11,-11
1501874329188880,8,11,-67,6,28,0,5,73
1501874329195898,-12,-12,44,-39,-3,1,1,-26
1501874329195898,12,34,-58,-24,-13,-2,0,24
1501874329211896,-5,-35,-4,-15,3,2,-3,-38
1501874329211896,-7,-2,2,11,-22,-1,0,-18
1501874329217882,16,-19,-12,36,5,0,-9,0
1501874329217882,13,-3,53,12,10,-2,2,-2
1501874329234883,-13,-12,-39,54,0,-2,-6,29
1501874329234883,-1,-2,49,20,0,-3,1,-32
1501874329235881,13,29,-44,-43,-4,1,9,50
1501874329235881,-12,-9,76,-26,5,9,7,13
1501874329249881,9,7,8,72,12,-5,0,47
1501874329249881,-5,-56,14,-94,-10,-3,0,-5
1501874329255881,-1,7,-36,-9,-14,-9,-5,-6
1501874329255881,-5,3,5,70,-2,1,-3,-14
1501874329271885,-11,-11,10,-10,11,3,2,-6
1501874329271885,10,-9,-64,7,16,0,5,33
1501874329273887,-6,-18,-8,1,-22,-10,-11,-24
1501874329273887,-6,7,-5,5,3,1,1,-15
1501874329294884,2,-9,52,-21,17,1,0,2
1501874329294884,-2,18,41,-11,-6,-1,1,-38
1501874329295884,-2,-62,-99,41,14,6,5,18
1501874329295884,-18,-39,13,-25,-12,-2,-9,-38
1501874329308887,17,13,-28,43,-10,-7,-2,23
1501874329308887,4,7,47,-48,-7,0,2,-10
1501874329315885,-22,-22,38,-15,0,-5,-2,-10
1501874329315885,3,3,16,23,0,2,-3,4
1501874329331889,-13,-13,-30,-4,5,2,6,-20
1501874329331889,-5,18,-15,-1,-1,0,-3,-12
1501874329333907,0,49,35,7,-11,-5,-10,-11
1501874329333907,1,11,-18,-7,6,0,9,-2
1501874329354887,-4,-48,-15,2,1,2,1,-22
1501874329354887,3,40,16,-41,-17,-8,-10,37
1501874329355888,10,63,12,-31,-7,4,5,-9
1501874329355888,3,-43,-16,5,7,-5,-2,13
1501874329368890,-7,-7,45,35,-17,5,8,17
1501874329368890,-1,41,28,17,23,-8,-4,7
1501874329375890,17,-23,-31,39,-16,-2,-6,-16
1501874329375890,-3,-22,31,-13,16,-2,-6,26
1501874329391893,8,34,12,-40,-3,1,6,-4
1501874329391893,2,-39,-17,61,-2,4,-1,17
1501874329393890,-10,31,41,-3,-2,1,-1,8
1501874329393890,-7,8,-52,-12,-10,-3,1,0
1501874329414891,20,-29,-44,-27,-16,-6,-4,60
1501874329414891,1,32,17,14,5,2,1,17
1501874329415897,-6,19,-10,32,9,-3,1,-22
1501874329415897,-3,-38,13,-35,-6,-1,-1,14
1501874329427913,-16,-7,11,-13,6,-3,-5,-19
1501874329427913,15,17,-23,19,-7,3,4,-8
1501874329436892,6,-5,3,-34,11,7,16,46
1501874329436892,-2,3,-8,-14,-9,-3,-14,-56
1501874329451895,-31,-21,-41,36,17,-4,-12,-48
1501874329451895,4,-10,66,-6,-2,-1,1,12
1501874329453896,-21,-9,-2,-34,-9,-2,-9,-34
1501874329453896,13,37,-22,6,-2,1,6,13
1501874329474917,6,-10,58,5,-13,-3,-1,-6
1501874329474917,-3,-42,-99,-1,37,5,-2,-4
1501874329475898,1,27,60,42,-14,-3,4,36
1501874329475898,1,5,-53,-46,7,-4,-3,-12
1501874329487917,4,39,24,-51,-11,-1,-3,-23
1501874329487917,-13,-45,-36,28,3,6,5,6
1501874329504896,0,-27,6,-27,-12,-7,-7,-28
1501874329504896,2,22,16,41,7,4,4,22
1501874329511912,-10,-1,10,9,-1,0,6,7
1501874329511912,29,43,-11,-41,-24,-3,2,27
1501874329513907,-1,-3,8,30,24,3,-1,-17
1501874329513907,-22,-40,-35,-28,-10,-5,-15,2
1501874329534920,-9,5,-12,-15,3,-4,0,-41
1501874329534920,13,63,73,-27,-18,-4,5,-6
1501874329535898,-2,-53,-62,33,0,1,0,20
1501874329535898,6,31,64,38,-8,-3,9,9
1501874329547901,11,15,-26,-17,33,8,-8,-4
1501874329547901,-31,-99,32,45,-12,-5,-7,-38
1501874329556901,9,31,17,-44,-8,-5,-2,-29
1501874329556901,-16,-11,-29,16,37,5,0,-9
1501874329571900,2,-7,-38,-71,-22,-13,-8,-7
1501874329571900,-4,17,-11,-10,-2,6,2,-11
1501874329573921,6,20,-34,8,8,5,11,22
1501874329573921,6,19,-5,-17,-22,-9,-10,0
1501874329594905,-19,-12,71,28,-9,-4,-6,-20
1501874329594905,4,18,-72,47,39,7,0,-19
1501874329595904,-1,-51,-5,-64,-23,-7,5,47
1501874329595904,-2,6,43,31,6,5,-2,-33
1501874329607919,-2,-25,-86,6,-3,-1,2,38
1501874329607919,-21,1,15,-52,-15,-7,-12,-89
1501874329616903,3,9,-20,42,3,1,0,19
1501874329616903,19,39,49,36,-9,-2,8,22
1501874329631903,-8,8,3,-20,24,1,-4,-24
1501874329631903,-5,-84,-31,-45,-20,-4,-2,49
1501874329633907,15,58,95,108,2,-10,-11,3
1501874329633907,-16,-79,-89,-91,21,2,-4,-37
1501874329654905,-7,-25,-4,52,-17,-1,1,9
1501874329654905,-6,26,49,-14,8,-4,0,32
1501874329655905,8,-32,-44,-17,-24,1,1,-7
1501874329655905,5,38,53,127,7,6,0,7
1501874329667969,20,8,-25,-59,4,-9,-2,-8
1501874329667969,-28,-69,-26,-32,-4,3,1,19
1501874329676918,-11,50,13,-19,-16,-1,-4,-37
1501874329676918,20,0,59,-18,9,3,13,21
1501874329692946,-23,-31,26,-5,-7,-1,-8,-31
1501874329692946,12,-19,-55,-16,-12,-3,3,1
1501874329693912,-6,-43,-18,1,7,-5,-4,17
1501874329693912,2,25,-21,41,-3,1,1,-16
1501874329714908,-8,21,17,0,1,4,5,-6
1501874329714908,6,23,19,-8,-8,-2,-1,16
1501874329715909,-4,13,11,52,23,1,-4,0
1501874329715909,-8,-22,-16,-97,0,1,1,30
1501874329727929,11,2,-27,48,-21,-1,3,7
1501874329727929,8,12,30,13,-2,-9,-6,12
1501874329736909,-12,-12,0,10,9,0,-11,-10
1501874329736909,14,22,16,34,2,-2,-6,-13
1501874329751930,8,55,22,-19,8,7,23,-13
1501874329751930,-13,-67,-41,-14,-11,-3,-3,3
1501874329753912,-15,-11,20,14,20,1,-3,-18
1501874329753912,1,-1,-67,-37,-8,-4,-12,25
1501874329774935,15,22,65,14,1,0,0,15
1501874329774935,1,-27,-47,26,-10,-1,2,2
1501874329775915,5,-9,-29,-63,-8,5,14,-13
1501874329775915,2,16,1,-10,1,-1,0,4
1501874329787933,-18,-31,-16,-26,0,0,-2,-12
1501874329787933,13,51,44,68,5,-3,-3,2
1501874329796913,2,30,28,41,-5,1,-3,23
1501874329796913,-16,-5,9,-61,-2,-4,-11,-26
1501874329811915,-6,-64,-115,-3,-21,-6,-9,-26
1501874329811915,5,37,42,-32,18,4,-1,-1
1501874329813935,-6,-4,15,-22,-10,-3,-4,-16
1501874329813935,-7,17,4,43,-12,-2,4,-19
1501874329833915,13,-18,43,1,4,-5,-8,34
1501874329833915,-11,13,4,36,2,4,3,-12
1501874329841917,2,-4,-5,-50,5,3,5,9
1501874329841917,12,-10,10,-38,-20,-2,2,29
1501874329847916,-17,-24,-55,-11,-1,-4,-4,-20
1501874329847916,6,32,6,-6,-4,-3,2,1
1501874329856916,-11,34,9,14,7,0,-10,-65
1501874329856916,0,-34,5,3,-3,1,2,9
1501874329871917,2,29,10,26,14,4,-13,24
1501874329871917,-7,27,51,16,-6,-3,15,-9
1501874329873937,-4,-53,-71,3,18,2,-4,-1
1501874329873937,9,32,29,23,-9,-6,-4,-1
1501874329894924,2,3,25,54,4,1,0,-2
1501874329894924,2,0,-29,-59,-25,-2,-9,25
1501874329895920,12,67,7,22,24,7,11,-5
1501874329895920,-10,-38,-26,11,13,-6,-8,-14
1501874329916941,7,16,19,-75,-8,9,4,10
1501874329916941,-2,-12,50,72,31,-2,-9,-26
1501874329918941,1,-57,-120,-44,-24,-3,2,38
1501874329918941,3,18,73,71,7,3,9,26
1501874329931940,-8,-5,-11,-28,-4,-1,3,-16
1501874329931940,7,22,23,-19,-11,-3,-1,19
1501874329933941,-6,-3,-20,-62,-13,-6,-5,-13
1501874329933941,10,23,52,-4,-10,-2,-3,-28
1501874329953922,-15,-39,-46,10,11,2,0,25
1501874329953922,-3,19,34,49,13,11,-5,-3
1501874329960922,10,36,-20,0,0,-4,4,-26
1501874329960922,-2,-12,15,-24,-4,0,-3,-6
1501874329976923,12,29,20,8,2,1,5,1
1501874329976923,-4,-10,-19,33,-8,-6,-7,8
1501874329982924,-14,-27,21,-48,2,2,-19,-3
1501874329982924,-13,-31,-43,27,0,-2,14,5
1501874329991925,5,9,33,6,-7,-2,4,-17
1501874329991925,13,17,-10,-20,10,0,14,54
1501874329993928,-2,-48,6,-5,-3,-1,0,6
1501874329993928,-6,13,-5,6,-16,-4,-14,-21
1501874330014929,10,33,1,-17,-1,0,5,26
1501874330014929,-10,-32,-7,-11,-2,-3,-4,-57
1501874330015927,-2,-16,24,2,-32,-11,0,-16
1501874330015927,-8,8,-1,58,63,21,4,5
1501874330036928,7,33,26,-6,-3,-3,-1,15
1501874330036928,-2,-42,-90,-53,-5,-3,-5,-3
1501874330038927,3,9,15,-5,-8,-3,-7,-6
1501874330038927,-6,32,59,12,-2,-3,17,18
1501874330050929,-5,-81,-86,-48,-3,-3,-4,-5
1501874330050929,2,37,48,42,-12,-6,-2,4
1501874330057931,4,-2,3,13,8,1,5,29
1501874330057931,-5,6,25,13,-9,1,-6,-47
1501874330074949,-3,-37,-25,-16,3,-3,-8,-2
1501874330074949,-5,-15,-19,0,-3,-3,-8,-2
1501874330075938,5,9,18,29,1,5,15,3
1501874330075938,9,16,-35,-37,7,-1,-9,31
1501874330096930,-7,-12,34,-15,-2,1,25,7
1501874330096930,1,2,-45,10,3,2,-6,-11
1501874330098951,-2,34,94,13,-3,-9,0,-12
1501874330098951,1,-24,-65,-8,-24,-6,6,12
1501874330110931,-16,-22,-18,29,6,-2,-16,-46
1501874330110931,8,8,-9,-32,10,6,7,35
1501874330117932,-2,-30,27,-6,-5,2,1,18
1501874330117932,-4,58,-21,62,3,-12,-22,-49
1501874330134954,-7,-55,29,-65,-9,-2,-5,-3
1501874330134954,0,2,-52,15,-6,-7,7,-13
1501874330135933,9,23,21,2,14,10,6,41
1501874330135933,-12,-33,41,-42,-5,-2,-6,-42
1501874330156937,4,32,-36,65,-9,-3,-7,-7
1501874330156937,-5,9,25,-23,5,-3,-5,-3
1501874330158951,-3,1,-21,-20,-2,-1,-2,5
1501874330158951,-2,-16,0,-11,-8,0,4,16
1501874330170956,7,39,9,35,13,2,3,4
1501874330170956,2,-9,6,-3,-10,3,-3,21
1501874330177938,-2,12,-6,-33,-15,-8,8,1
1501874330177938,-5,-21,-16,-27,8,1,-1,-30
1501874330194957,-8,-6,2,11,-10,-3,-1,-11
1501874330194957,6,6,21,4,-1,0,0,3
1501874330195936,4,1,-32,3,7,1,-1,-7
1501874330195936,-13,-9,-10,-4,3,1,-5,4
1501874330224939,6,3,0,10,11,-2,-9,-2
1501874330224939,2,-46,22,12,-6,-1,0,9
1501874330225938,-18,-22,-32,-1,-16,-5,1,-30
1501874330225938,12,18,11,-68,23,-1,4,14
1501874330230940,6,25,-53,11,0,1,-1,6
1501874330230940,-6,5,14,25,-11,-8,-11,-19
1501874330237938,0,8,39,27,18,9,6,18
1501874330237938,1,-2,-55,-4,-27,-5,0,-18
1501874330261940,6,36,22,-40,0,-4,-7,10
1501874330261940,5,1,59,-11,-2,8,14,-6
1501874330263940,-7,-49,-75,3,-11,-7,-12,-8
1501874330263940,-11,3,-21,19,8,0,5,-5
1501874330276941,9,19,75,22,10,3,2,34
1501874330276941,0,-13,20,10,-7,-4,-6,-17
1501874330278944,-13,-68,-44,15,-3,-8,-5,20
1501874330278944,11,-22,-6,-28,4,5,-8,-22
1501874330290941,-18,-19,4,4,-17,-10,-11,-33
1501874330290941,2,23,-39,-8,-4,1,15,14
1501874330297942,9,10,25,27,14,-2,-6,27
1501874330297942,-3,-26,44,0,-4,1,17,-4
1501874330314964,0,10,-12,12,-20,-5,2,54
1501874330314964,2,12,-14,-34,28,1,-13,-27
1501874330315947,-6,33,19,4,-10,-1,-18,-25
1501874330315947,16,28,-21,-30,-14,-5,9,31
1501874330336962,-4,-37,54,127,10,3,0,3
1501874330336962,-3,1,-51,-40,-14,3,-1,-13
1501874330338945,1,12,24,5,-1,-6,-11,12
1501874330338945,-2,11,-33,-54,-17,-5,-5,-6
1501874330350964,2,26,21,19,-1,6,16,20
1501874330350964,-13,-47,-30,-26,4,-5,-16,-32
1501874330357945,0,16,23,44,16,7,0,-24
1501874330357945,-5,14,-13,2,-23,-7,9,7
1501874330374946,15,14,-8,-43,-10,-3,1,52
1501874330374946,-5,0,-12,-12,0,-3,-13,-44
1501874330375947,-8,15,7,1,7,3,-2,-18
1501874330375947,26,44,-19,26,10,3,-3,22
1501874330396969,-14,-67,-42,-10,-4,-3,-2,-10
1501874330396969,-2,20,71,21,-2,4,16,19
1501874330398971,5,3,-28,-9,2,-2,3,7
1501874330398971,-16,-27,32,56,2,-1,-10,-3
1501874330410951,5,29,-19,-53,-10,-3,-4,-21
1501874330410951,-4,-15,-16,15,3,3,3,31
1501874330419970,7,33,-7,-33,11,2,2,-21
1501874330419970,-19,-31,10,44,4,-8,-14,-5
1501874330434973,7,-12,16,-9,1,5,7,0
1501874330434973,-8,-5,-18,0,-12,-3,-8,-9
1501874330435950,10,43,9,75,4,3,11,38
1501874330435950,2,-26,-9,-102,4,0,-7,-9
1501874330456951,-14,-41,-17,7,-5,-8,-8,-11
1501874330456951,-4,19,-3,1,1,-4,-4,4
1501874330458954,7,27,-7,-38,-16,2,20,7
1501874330458954,-8,-36,-52,35,-1,-3,1,33
1501874330470954,-1,12,-18,-1,12,5,-10,-41
1501874330470954,-7,-48,-13,-37,-6,-2,-1,5
1501874330479955,-10,-12,-17,-18,-5,-6,-11,-15
1501874330479955,16,11,28,9,-7,3,11,44
1501874330494976,-7,10,12,-17,4,-2,-5,-14
1501874330494976,4,24,-17,17,-1,-1,4,9
1501874330495957,-8,-30,-35,17,-1,-4,-8,-6
1501874330495957,-9,8,26,-33,-9,1,-1,-5
1501874330517955,0,-4,2,-27,-3,-2,-2,-13
1501874330517955,4,27,61,31,21,0,8,-8
1501874330518956,-3,-53,-1,-15,10,3,3,-7
1501874330518956,-2,-4,22,24,-10,6,4,2
1501874330539959,-7,13,-46,10,3,-4,-8,-5
1501874330539959,5,-2,39,-2,0,-4,-7,10
1501874330540956,-3,-2,-22,-36,8,6,17,21
1501874330540956,-6,14,26,28,-7,-9,-16,-54
1501874330554979,-3,-67,-6,40,12,5,6,17
1501874330554979,5,19,47,16,-13,-6,-1,10
1501874330555961,-6,20,-11,16,9,-4,-19,0
1501874330555961,-3,-25,-3,-22,-15,-3,0,-3
1501874330576958,2,26,22,-1,11,-2,-6,2
1501874330576958,7,48,-28,5,-11,0,0,-2
1501874330578961,5,-56,29,-28,1,3,20,-15
1501874330578961,-10,-20,-27,15,8,6,5,9
1501874330590959,1,15,-47,-13,-3,-8,-4,-16
1501874330590959,-8,-43,-10,-2,-14,-4,-16,-23
1501874330599962,8,15,-1,-8,-24,-9,-9,17
1501874330599962,-4,59,7,5,15,0,2,-10
1501874330614963,-14,-76,34,-10,-5,1,-2,14
1501874330614963,-4,-16,-50,-21,8,2,14,-20
1501874330615964,-1,-2,26,33,0,-1,-26,3
1501874330615964,7,-18,-75,-28,-2,-1,6,6
1501874330636983,1,53,-18,26,2,1,6,-3
1501874330636983,-5,-25,-40,-8,-6,-4,-6,-27
1501874330638983,3,3,1,-74,9,3,8,5
1501874330638983,-2,-6,-36,39,3,-1,-7,30
1501874330650965,0,33,25,15,27,3,6,-30
1501874330650965,11,-9,-18,-2,-4,-1,3,25
1501874330659964,-6,10,-1,4,2,-3,-3,1
1501874330659964,2,-10,29,-10,-13,3,-13,-6
1501874330674965,7,13,-56,-10,-27,-5,22,-10
1501874330674965,4,10,-3,-28,20,4,-1,58
1501874330675965,-4,-9,52,-8,-14,-5,-11,-14
1501874330675965,-3,-1,12,-1,0,2,-10,-7
1501874330695965,13,37,36,7,-6,0,13,52
1501874330695965,2,5,17,32,6,-3,-21,-45
1501874330704968,-5,27,8,9,-7,-6,4,-31
1501874330704968,-3,-53,-5,-33,-8,-4,-10,31
1501874330710987,-15,5,36,4,18,-1,-9,-47
1501874330710987,3,8,23,-12,-5,10,10,-4
1501874330719983,2,13,-10,33,-2,-3,-5,2
1501874330719983,6,10,18,10,-20,-3,2,5
1501874330734971,0,-3,4,31,39,8,6,-4
1501874330734971,-12,-44,-41,-69,-15,-7,-4,-5
1501874330735968,7,11,6,-13,-1,3,0,23
1501874330735968,5,8,5,-14,-19,-8,10,-16
1501874330756990,-6,21,-19,1,-24,-6,-15,-11
1501874330756990,1,-10,41,24,10,2,6,12
1501874330758969,-9,-11,-60,15,-9,-2,2,-6
1501874330758969,-7,-25,19,-22,7,-8,-2,-18
1501874330770973,9,0,11,-22,-8,6,-3,18
1501874330770973,1,56,13,17,12,2,-6,-6
1501874330779970,-7,-58,-20,39,-20,-1,17,10
1501874330779970,0,17,21,-5,18,7,5,4
1501874330794973,-9,0,59,-37,-15,-12,-17,-8
1501874330794973,3,-5,-40,6,1,5,18,38
1501874330796974,-6,-9,-43,3,2,-4,-18,-70
1501874330796974,2,14,10,2,3,-1,2,4
1501874330816975,-3,-9,61,34,-9,-4,-5,0
1501874330816975,0,21,-8,24,-10,-3,1,-14
1501874330818974,-5,30,13,-36,14,3,1,46
1501874330818974,5,26,-43,15,1,-4,-12,-83
1501874330839973,-3,-45,6,14,-7,-2,2,8
1501874330839973,-11,3,7,22,-4,-1,-7,-13
1501874330840974,11,12,43,-20,-1,-2,-1,-12
1501874330840974,1,8,-25,-48,-3,-5,17,45
1501874330854996,2,13,-37,-33,-9,0,-10,8
1501874330854996,-3,-6,33,9,-10,0,-8,-10
1501874330855975,-6,-32,-43,-14,10,-3,4,-20
1501874330855975,7,5,42,13,6,3,3,15
1501874330876996,-5,-11,-21,26,-14,-2,2,-3
1501874330876996,3,17,34,-20,-1,-5,1,17
1501874330878976,-6,-9,-32,-14,18,-2,-20,-6
1501874330878976,1,61,-4,14,-6,4,-2,11
1501874330899977,4,-50,-2,37,2,-1,9,-7
1501874330899977,-6,9,-5,-22,-8,-7,-8,-2
1501874330900978,1,15,54,16,-18,-1,7,28
1501874330900978,-3,-5,14,16,0,-3,-6,-1
1501874330914977,4,27,-34,-1,20,7,-9,-16
1501874330914977,8,-8,-29,-72,-9,-1,2,11
1501874330915978,-7,-19,-29,23,-3,-2,-4,-14
1501874330915978,2,-54,-17,-21,1,6,11,21
1501874330937031,1,9,-12,14,2,1,2,10
1501874330937031,-6,-6,-14,29,-3,-5,-3,-26
1501874330938981,3,14,28,-2,-18,-5,-16,32
1501874330938981,13,11,-31,0,31,9,5,18
1501874330960003,-16,-25,19,-17,-2,-2,17,-2
1501874330960003,-6,-26,-11,-5,-2,-7,-5,-8
1501874330960981,6,-6,11,31,-13,-1,-8,-26
1501874330960981,-3,13,-3,-7,-4,2,-3,-4
1501874330973981,0,36,32,-8,5,-3,-11,0
1501874330973981,3,-7,-10,40,0,7,23,4
1501874330981982,0,24,34,32,-15,-6,-6,-4
1501874330981982,-8,-23,-30,-31,0,-8,1,15
1501874330996982,5,-17,-46,-3,26,7,-6,-24
1501874330996982,8,13,22,-7,-5,3,2,43
1501874330998983,9,18,-23,-14,5,6,16,7
1501874330998983,-2,11,-1,12,6,-4,-19,-17
1501874331020002,9,23,2,-46,-18,-2,28,41
1501874331020002,-19,-50,24,49,0,-5,-8,-36
1501874331020987,15,33,-15,-75,22,4,-1,-9
1501874331020987,-13,-20,45,48,-23,-4,-10,-13
1501874331033984,13,63,5,30,-5,-5,-10,6
1501874331033984,-11,-53,-19,0,3,-2,5,37
1501874331040984,3,-7,0,2,-22,0,14,12
1501874331040984,-19,-3,-19,-9,36,0,-8,-44
1501874331057007,3,-56,-46,-15,-2,2,-9,14
1501874331057007,-2,26,3,27,5,-2,2,-16
1501874331058988,4,-23,17,4,1,1,1,38
1501874331058988,-3,17,-8,4,-24,-11,-22,-31
1501874331079991,-3,-5,-1,-24,-12,-3,13,-2
1501874331079991,5,12,26,-9,13,5,6,17
1501874331080988,-16,-24,-65,-37,1,0,13,1
1501874331080988,14,17,80,21,-6,-1,9,-22
1501874331093987,1,-7,7,8,1,0,-9,7
1501874331093987,12,45,-1,10,-3,0,-6,24
1501874331100991,-24,-35,-50,-53,-4,-6,-19,-76
1501874331100991,4,-4,36,42,-13,5,7,12
1501874331116993,-6,-5,25,-69,12,1,-1,-11
1501874331116993,2,44,41,54,-18,-2,7,9
1501874331118990,3,-20,-1,27,10,-9,-16,-14
1501874331118990,-5,-38,-15,-24,-5,0,11,12
1501874331140008,-2,-10,22,13,-2,1,-6,-7
1501874331140008,-12,-3,-34,-22,1,2,-9,-30
1501874331140992,6,-8,33,-4,2,-1,6,9
1501874331140992,9,4,-15,27,5,0,-1,25
1501874331153991,-20,-11,-14,-1,-14,-6,3,1
1501874331153991,2,3,4,-22,6,-2,-2,-45
1501874331160992,-7,11,6,16,-4,4,-2,21
1501874331160992,-7,-57,-38,-15,4,-2,-3,-13
1501874331177012,-2,26,21,8,-7,-7,-14,-6
1501874331177012,3,6,-39,-23,5,1,3,-3
1501874331179014,7,26,104,38,0,-2,9,17
1501874331179014,4,-9,-71,-85,-12,2,7,23
1501874331199994,-9,-36,-34,7,15,6,-13,-2
1501874331199994,-1,-14,53,34,-22,-8,-8,-40
1501874331200995,0,20,22,22,17,-1,4,-5
1501874331200995,1,30,42,22,8,5,3,7
1501874331213994,13,12,-23,-38,-11,-9,2,11
1501874331213994,-11,-27,-44,-11,1,5,-10,0
1501874331221015,3,1,-22,-6,-2,5,12,-1
1501874331221015,-13,14,15,19,-15,-4,-9,-4
1501874331236999,18,-2,-1,-15,-1,-2,11,45
1501874331236999,-9,-22,-20,38,17,-1,-9,-9
1501874331238999,-5,13,3,-52,-13,-4,-5,-28
1501874331238999,-8,-19,-1,24,10,3,-1,-16
1501874331260004,19,45,39,31,-14,5,22,17
1501874331260004,-19,-21,-5,-44,1,-10,-16,-17
1501874331260999,-6,-17,-20,24,15,7,0,9
1501874331260999,-8,1,10,2,2,-2,4,-21
1501874331273998,1,18,35,6,-8,-1,-4,-24
1501874331273998,0,-31,-25,-18,-8,-4,1,2
1501874331280998,1,8,-18,-8,-2,-1,-7,26
1501874331280998,6,31,6,10,5,3,-4,17
1501874331296999,-11,-34,9,7,-1,-7,-6,-24
1501874331296999,6,15,-6,-42,22,6,-2,-12
1501874331299000,2,-5,44,106,-7,-2,-5,-3
1501874331299000,2,21,-53,-73,-4,0,-3,7
1501874331320002,-3,-25,-45,3,-11,-4,15,-6
1501874331320002,3,8,-2,-27,-18,-5,0,3
1501874331321001,-14,-20,-1,-51,-14,-4,-5,-25
1501874331321001,10,15,7,28,14,-5,-4,31
1501874331333005,-1,4,-15,5,7,4,-3,-4
1501874331333005,-5,-5,14,3,4,1,4,6
1501874331350012,2,13,-7,-9,4,4,-3,-30
1501874331350012,-6,-3,17,-2,-19,-12,-1,-2
1501874331357025,-14,-61,-41,-7,-6,-3,-13,-43
1501874331357025,9,23,40,25,9,1,4,26
1501874331359004,9,19,-44,0,-2,-3,6,38
1501874331359004,-5,-26,-18,-32,-12,-3,-7,-31
1501874331380004,-8,0,-11,-4,9,-2,1,2
1501874331380004,2,-10,14,19,-4,-3,0,20
1501874331381007,-8,-16,-56,-11,3,-4,-2,6
1501874331381007,14,32,43,-10,0,14,10,-5
1501874331393009,-3,29,-10,-1,16,-1,-10,5
1501874331393009,9,-19,22,-1,-15,1,17,46
1501874331402006,-6,5,-27,5,10,7,-10,-34
1501874331402006,2,-3,58,16,-1,-1,21,26
1501874331417006,3,20,-34,-48,-20,-5,-17,-15
1501874331417006,-3,-4,-6,-9,-2,0,-3,-8
1501874331419007,-3,-33,-20,-11,-4,-2,5,12
1501874331419007,-7,-27,-13,37,12,-3,-1,-11
1501874331440030,17,44,9,11,2,7,14,14
1501874331440030,-1,20,4,-7,-14,-10,-5,8
1501874331441010,3,-7,14,-51,1,1,0,-1
1501874331441010,-12,18,-6,44,11,2,-8,-11
1501874331453008,4,-10,24,29,-6,-4,6,24
1501874331453008,-5,-24,-49,-17,-7,0,-17,-64
1501874331462010,4,12,82,16,-2,-4,-1,-4
1501874331462010,0,-1,16,-3,-7,-4,-2,2
1501874331477013,-2,-10,-14,-14,4,-3,-3,-1
1501874331477013,3,32,-84,-2,4,2,7,12
1501874331479031,8,15,38,-9,-2,-2,-2,14
1501874331479031,-10,-54,-100,-19,-7,-5,-11,-12
1501874331500011,1,63,81,81,-11,-4,-1,-5
1501874331500011,-1,-32,14,14,22,4,12,26
1501874331501012,4,-11,-29,-1,8,1,-9,32
1501874331501012,-11,-1,-35,-31,-17,-5,11,-17
1501874331513033,-7,2,7,-22,21,2,-16,-20
1501874331513033,0,-8,-3,-18,0,0,11,-9
1501874331522536,7,0,-2,10,-8,-1,0,8
1501874331522536,13,19,-14,-7,-1,0,15,52
1501874331537536,-10,-24,-11,-9,-17,-8,-32,-61
1501874331537536,-12,-4,13,-37,-1,-6,6,17
1501874331538516,4,-6,20,39,9,4,9,17
1501874331538516,-3,12,7,-25,-21,-6,-14,-38
1501874331559519,-4,-8,2,-6,0,2,-3,-5
1501874331559519,10,25,12,2,15,4,-1,-8
1501874331561521,-15,-7,-14,-13,-7,-3,4,3
1501874331561521,1,-19,25,31,3,-2,1,6
1501874331573539,-8,-19,-16,0,2,4,6,-4
1501874331573539,10,27,27,-14,-18,-6,-15,15
1501874331582540,3,22,-2,13,9,-1,-2,-24
1501874331582540,0,-19,11,0,9,2,-3,20
1501874331597528,-11,-24,-22,-5,6,2,10,1
1501874331597528,2,-1,2,15,-17,-2,-3,8
1501874331598520,5,44,-20,-12,-14,-5,4,-11
1501874331598520,-9,-6,4,-30,13,0,-6,-12
1501874331619521,0,-5,-25,-16,-7,-1,0,22
1501874331619521,-3,-13,37,30,-1,1,-1,-7
1501874331621542,-12,-25,-41,-18,-7,-2,3,-24
1501874331621542,10,8,51,32,4,-3,-7,17
1501874331633542,3,5,-27,-16,-5,-2,1,4
1501874331633542,0,22,34,-22,-5,-2,-1,-3
1501874331642522,-13,-26,-22,-4,-33,-4,-1,-22
1501874331642522,12,1,0,-6,31,12,6,31
1501874331656526,-2,-7,-1,-20,3,4,12,6
1501874331656526,10,7,9,27,6,-2,-12,-6
1501874331658523,-15,-20,-6,-11,-10,-5,-15,0
1501874331658523,5,1,7,27,-16,-5,8,-5
1501874331679529,-3,-34,-20,-1,-8,-2,2,49
1501874331679529,-15,10,16,11,27,6,-13,-75
1501874331681546,10,-31,8,-3,9,-2,-4,7
1501874331681546,-6,28,-11,-32,-8,-4,-7,-33
1501874331693525,11,-8,13,-1,3,-2,-5,22
1501874331693525,-7,-3,-31,-2,-11,-4,7,14
1501874331702527,-1,-2,-9,0,12,5,14,25
1501874331702527,7,3,1,1,-6,2,-12,-10
1501874331717528,6,78,19,16,-2,-4,6,-1
1501874331717528,-19,-95,-37,-22,-14,-7,-32,-53
1501874331719547,-6,-13,-6,1,13,4,11,-1
1501874331719547,-11,10,5,12,1,-2,-4,-29
1501874331739530,-1,-10,44,17,4,-3,-5,-14
1501874331739530,6,12,-56,-22,7,1,8,31
1501874331741530,-12,22,5,-6,-9,-5,-10,-19
1501874331741530,2,-22,12,3,-2,-1,8,1
1501874331753528,4,25,30,2,-8,-1,-2,-7
1501874331753528,0,-15,-63,-6,-8,4,12,32
1501874331762529,-5,24,27,9,20,-6,-7,-39
1501874331762529,9,16,-13,-2,8,1,-1,6
1501874331777533,-5,-50,-29,0,-9,5,-1,16
1501874331777533,3,-4,32,13,17,1,7,7
1501874331778530,0,-5,-38,13,-21,-2,-13,-3
1501874331778530,3,25,43,17,-10,-5,7,65
1501874331799535,1,-10,-34,-28,18,0,-16,-98
1501874331799535,11,7,13,5,-6,2,0,13
1501874331801534,-5,-42,32,12,7,-1,-2,0
1501874331801534,5,-5,-36,-13,-9,-6,-19,17
1501874331822532,-17,7,-46,-1,-10,-1,6,-8
1501874331822532,2,2,46,-8,-3,0,25,23
1501874331823532,7,24,23,0,6,2,-2,-1
1501874331823532,0,-48,-27,2,-1,1,9,31
1501874331837532,-12,-8,-41,-9,-9,-8,-16,-51
1501874331837532,-4,35,30,-2,2,-6,-18,-51
1501874331838533,4,-19,-2,-19,-15,5,6,47
1501874331838533,4,38,-31,-7,4,1,-4,-25
1501874331859555,-6,-27,-3,19,7,-7,2,39
1501874331859555,-9,9,7,-31,34,15,-3,-40
1501874331861537,13,48,-5,57,-15,-10,-7,19
1501874331861537,-11,-38,21,2,-10,-1,3,-42
1501874331881538,-5,-6,-20,-6,-11,-5,2,2
1501874331881538,6,-7,4,7,-1,-5,-2,18
1501874331883536,-2,-1,9,-28,-3,0,8,25
1501874331883536,-1,12,-18,-6,0,0,-9,-43
1501874331896538,-6,19,75,18,-13,-5,6,10
1501874331896538,-11,17,-9,3,-4,-1,0,-47
1501874331903538,2,-34,-13,-5,28,3,-21,-17
1501874331903538,-3,-13,-17,16,-2,-3,7,32
1501874331919559,11,41,11,-28,7,8,7,30
1501874331919559,-12,-15,26,16,-17,-8,-6,-11
1501874331921542,-4,19,-13,-13,-2,0,-5,-23
1501874331921542,-8,-29,1,0,-6,-3,-4,0
1501874331942540,17,12,-2,-22,-3,1,3,36
1501874331942540,-13,-15,-24,0,-8,-5,-1,-31
1501874331943540,6,-5,21,9,1,0,0,-4
1501874331943540,-12,13,4,2,-10,-6,-1,2
1501874331956539,-5,6,2,3,5,0,-2,-24
1501874331956539,10,17,-53,11,-2,0,2,30
1501874331963559,5,39,84,-5,3,5,9,-3
1501874331963559,-7,-76,-9,-12,-14,0,2,-2
1501874331979560,-5,-15,-5,-5,-3,-8,-13,-25
1501874331979560,22,49,-1,26,20,1,8,55
1501874331981544,-21,3,-31,-17,-1,-4,-12,-81
1501874331981544,1,20,30,-16,4,1,4,-11
1501874332002543,1,-16,-8,-9,1,5,10,9
1501874332002543,11,54,29,30,-13,-4,-3,36
1501874332003544,0,-62,-82,-2,-22,-6,-11,20
1501874332003544,-1,10,21,-9,16,3,10,-5
1501874332016565,-5,-21,-12,11,-10,-4,-12,-2
1501874332016565,6,41,-2,-9,9,4,25,10
1501874332023544,5,-13,6,4,-1,-6,-6,17
1501874332023544,-6,-12,-32,-8,2,-1,-4,-4
1501874332039545,1,-11,10,14,9,5,8,-7
1501874332039545,-5,-20,-2,-19,-11,-3,-18,-10
1501874332041545,6,19,3,5,0,3,11,28
1501874332041545,-3,10,-18,-9,-1,-4,-2,-27
1501874332061546,12,31,11,8,3,0,-6,25
1501874332061546,-8,-34,26,13,-3,3,7,-15
1501874332063547,-17,-23,-55,-10,-4,-5,-6,-31
1501874332063547,13,25,27,28,8,1,0,20
1501874332076568,4,19,13,2,3,-1,13,29
1501874332076568,-9,-63,-59,-27,-36,-9,-16,-1
1501874332083547,3,14,51,9,22,11,9,20
1501874332083547,-4,3,-8,8,26,0,-8,-2
1501874332099553,-15,-3,22,9,-12,-4,-4,-27
1501874332099553,13,23,21,-3,6,-1,6,8
1501874332101551,-1,-59,13,-6,-3,0,7,39
1501874332101551,-9,-6,-45,-12,-15,-2,4,-1
1501874332121549,4,-9,-9,-13,1,0,-11,20
1501874332121549,-16,11,-1,-14,-7,-5,-21,-46
1501874332123551,3,-4,1,10,6,-4,0,-12
1501874332123551,0,2,30,8,-1,2,2,-12
1501874332136570,-1,-17,-22,-23,-2,0,4,3
1501874332136570,2,23,-18,1,5,-2,0,-8
1501874332143554,14,16,-9,-8,0,1,10,50
1501874332143554,-14,-42,21,14,-14,-5,-16,-34
1501874332159610,5,48,-37,5,7,5,12,-15
1501874332159610,7,-21,51,-8,-2,0,-1,34
1501874332161589,-4,-16,-20,34,1,-4,0,-21
1501874332161589,-13,-29,-28,-3,-9,-9,-5,22
1501874332181556,-5,-2,17,22,2,1,2,20
1501874332181556,-6,-19,11,-5,-1,3,-4,-42
1501874332183553,4,27,36,-17,-5,0,8,-5
1501874332183553,13,11,-11,-30,10,6,-11,-13
1501874332196571,-7,-12,24,27,-8,-9,-6,-13
1501874332196571,0,-17,-34,0,11,0,6,28
1501874332203575,-4,17,-7,-3,-7,-3,-1,-25
1501874332203575,13,56,10,-8,-12,-3,3,0
1501874332219571,-20,-80,15,-19,-10,-5,0,-3
1501874332219571,14,5,-35,10,8,3,5,31
1501874332221559,-7,24,21,4,-2,1,-5,-29
1501874332221559,11,-12,23,-16,-1,7,11,42
1501874332241578,-3,2,-22,-10,4,-1,-2,-11
1501874332241578,-3,-4,-1,3,1,-6,-14,-5
1501874332243557,1,36,6,21,-10,-3,3,19
1501874332243557,-7,-20,-2,17,-7,-1,11,-25
1501874332256557,2,3,1,-12,7,2,-2,0
1501874332256557,-8,-6,-17,2,-4,0,1,-5
1501874332263563,3,28,21,2,5,-4,-14,-1
1501874332263563,3,21,19,-2,-4,-3,4,24
1501874332279558,-4,-36,23,16,-5,-2,-2,-25
1501874332279558,-5,-35,-68,-39,-2,4,0,0
1501874332281559,3,-3,4,-22,13,0,-3,-10
1501874332281559,-13,12,-21,20,4,-4,0,15
1501874332302559,2,31,15,-2,-4,2,-1,-30
1501874332302559,5,1,27,13,6,1,9,19
1501874332303561,-1,-7,-14,-4,-10,-6,-3,15
1501874332303561,-3,20,18,-11,-16,1,-10,-27
1501874332315578,1,-32,-51,-14,26,0,-4,-36
1501874332315578,-9,-14,3,-2,-10,-4,-4,4
1501874332324562,-1,-8,-32,-44,4,1,4,3
1501874332324562,8,36,23,8,-4,-4,3,-1
1501874332339584,-1,-4,6,23,-6,-1,-1,45
1501874332339584,-3,-16,10,11,-9,-4,1,-27
1501874332341565,-5,-16,-12,4,1,1,-4,0
1501874332341565,-4,53,-19,-8,7,1,3,3
1501874332361585,5,-58,8,-7,-3,-2,0,-28
1501874332361585,-3,-9,-9,-2,0,-1,1,2
1501874332363586,-1,0,11,-3,-5,-3,-11,-2
1501874332363586,3,2,-17,-5,-2,1,11,27
1501874332375566,-1,5,10,6,6,-2,-2,-13
1501874332375566,-7,12,5,-24,-10,3,-12,7
1501874332384568,1,5,-40,42,5,-5,2,-15
1501874332384568,-2,-48,60,19,7,4,-7,-8
1501874332399565,22,58,-33,-10,-2,-1,3,49
1501874332399565,-14,-44,48,15,-16,-7,-6,-30
1501874332401569,-9,1,-3,-10,22,7,5,3
1501874332401569,-3,2,-37,-20,1,-2,-4,-36
1501874332421588,9,-5,27,7,-3,1,2,30
1501874332421588,8,45,-4,3,-11,-8,1,35
1501874332423567,0,-48,20,11,-12,0,7,-19
1501874332423567,-8,-28,-17,9,7,-5,-13,-15
1501874332435568,-1,29,-15,-7,-5,0,-3,19
1501874332435568,2,30,-15,-4,-1,4,7,-20
1501874332444570,2,-16,3,-6,-9,-3,-5,8
1501874332444570,6,-10,-8,14,6,-2,3,-26
1501874332459589,-15,-3,-15,-20,-20,-3,-8,1
1501874332459589,5,28,23,20,27,3,-3,9
1501874332461570,1,-31,2,-22,-5,1,8,7
1501874332461570,-4,-29,-19,7,-1,0,-1,19
1501874332481572,5,-8,1,3,-20,0,14,3
1501874332481572,-6,9,23,30,2,-8,-13,-33
1501874332483571,-7,3,10,-13,16,4,-2,-4
1501874332483571,-1,-28,-16,-10,-3,-3,-4,8
1501874332495590,0,15,-15,-15,14,5,6,15
1501874332495590,-4,2,11,-3,-14,-3,5,-20
1501874332504572,5,-4,-10,0,-6,0,-6,-14
1501874332504572,-1,39,57,-12,-4,-5,-4,11
1501874332519592,0,2,-4,-4,-8,-1,-3,16
1501874332519592,-3,-36,-37,-9,21,3,3,10
1501874332521595,-6,-5,-11,17,-10,-6,-7,3
1501874332521595,2,10,9,-5,-9,1,7,2
1501874332541595,-3,15,7,-1,10,1,-4,-32
1501874332541595,0,-4,22,14,-10,-5,-7,-14
1501874332543574,2,5,-13,-20,13,-3,1,1
1501874332543574,0,4,4,0,-1,-3,-7,2
1501874332555578,-5,-25,8,3,-18,-2,-7,-33
1501874332555578,1,16,-19,16,35,7,10,37
1501874332564579,-4,47,-3,-1,-2,2,9,7
1501874332564579,1,-41,-14,4,-7,-5,-6,-32
1501874332586576,-4,9,45,-15,1,-8,2,29
1501874332586576,5,-13,-4,-9,-8,2,9,-17
1501874332588579,-1,20,-8,-18,5,1,-7,-1
1501874332588579,3,29,-17,-11,-11,1,1,15
1501874332601599,1,-29,0,-3,-9,-2,-5,-14
1501874332601599,-1,-8,-1,19,32,-9,-5,11
1501874332603581,6,22,15,-12,-14,11,10,24
1501874332603581,-7,-5,-14,-11,12,4,-3,-25
1501874332615577,0,3,5,9,-10,-2,7,22
1501874332615577,-9,3,5,-26,-33,-8,-13,-47
1501874332624579,6,6,-6,17,20,5,-3,-16
1501874332624579,4,-12,-16,36,31,0,-3,42
1501874332639580,-6,10,26,-22,-1,-3,0,16
1501874332639580,1,-28,-2,29,-14,4,9,32
1501874332641579,-10,-18,14,-22,-28,-9,-4,-30
1501874332641579,4,-19,2,16,1,-1,-6,-16
1501874332661602,-5,9,-10,10,6,-2,-5,-20
1501874332661602,-2,1,-36,-33,2,-3,0,0
1501874332663581,2,16,19,-3,-20,0,4,4
1501874332663581,-16,-27,-33,-26,6,-1,-8,-25
1501874332675582,15,33,18,19,10,3,15,24
1501874332675582,-7,-2,-2,-19,-15,0,-5,-27
1501874332692610,-1,-4,-8,20,3,-3,-8,15
1501874332692610,7,38,-6,-16,-1,2,4,7
1501874332699583,-4,-14,-27,15,-19,-6,-9,-21
1501874332699583,10,-1,16,-24,11,7,9,35
1501874332701605,-27,-63,-19,26,-4,-12,-12,-36
1501874332701605,2,23,42,-4,-1,2,5,24
1501874332721584,-8,-3,-10,41,-4,1,-13,-45
1501874332721584,17,56,-1,-38,12,7,10,14
1501874332723586,2,-48,-31,-9,-17,-7,-8,18
1501874332723586,-9,-11,6,-4,-5,-7,-2,-10
1501874332744588,0,3,6,9,20,0,6,17
1501874332744588,-7,-14,6,3,-11,-6,-12,-8
1501874332746588,8,25,15,4,19,0,7,18
1501874332746588,5,21,-28,-19,-20,1,13,23
1501874332759590,3,2,-5,1,-7,-5,-17,-12
1501874332759590,-7,-38,-3,-23,-7,-6,-12,-15
1501874332761590,4,11,-30,-6,3,4,16,-7
1501874332761590,-1,-21,-10,11,-4,-7,-2,14
1501874332781587,-4,12,15,10,9,4,7,14
1501874332781587,-12,-31,-18,-3,-2,1,-2,24
1501874332783592,7,1,2,10,-8,-4,-10,-26
1501874332783592,8,30,3,9,-8,-1,9,37
1501874332804592,-7,-7,19,-4,15,4,-11,-33
1501874332804592,1,12,-42,-54,-18,-3,-3,1
1501874332806590,1,-16,21,59,3,-6,5,29
1501874332806590,-6,8,-14,-29,-5,-2,-8,-41
1501874332819593,11,64,5,1,14,1,8,8
1501874332819593,-9,-10,12,25,-2,0,2,-17
1501874332821613,3,-36,-2,-40,5,0,0,21
1501874332821613,1,15,10,22,-5,-3,-5,8
1501874332841609,-8,-47,-16,-20,0,-6,-19,-29
1501874332841609,-1,36,41,53,-13,-5,5,-6
1501874332843595,-3,28,7,2,2,2,2,14
1501874332843595,4,-26,22,15,-5,-1,3,-3
1501874332864613,1,5,-39,-21,-7,-1,7,23
1501874332864613,-1,-5,6,-21,4,-2,-3,2
1501874332866596,-3,-12,12,-2,-7,-2,-9,-32
1501874332866596,0,-3,22,-2,8,0,-3,10
1501874332878593,-1,-7,-22,-1,-20,-4,0,11
1501874332878593,-4,5,31,5,3,5,-1,-8
1501874332885593,1,33,3,2,12,0,0,-10
1501874332885593,-13,-51,-3,-23,9,4,6,3
1501874332901597,6,4,-29,-13,-16,-3,-2,-3
1501874332901597,0,32,7,33,-3,-6,6,19
1501874332903595,-1,-47,8,-17,32,10,-10,-16
1501874332903595,4,-7,21,16,-17,-4,1,3
1501874332924596,-9,-21,-20,-25,8,-4,-5,-29
1501874332924596,13,2,21,-3,-34,-5,0,60
1501874332926597,-2,49,-19,-1,8,2,4,-7
1501874332926597,-4,9,0,-7,10,-4,-11,-36
1501874332938596,-8,-41,11,-1,-6,-1,0,4
1501874332938596,1,-2,-44,-10,19,3,-2,-21
1501874332945616,1,6,36,9,-18,-4,3,30
1501874332945616,-4,-12,-52,-1,-4,1,-8,-17
1501874332961601,3,14,18,-14,-19,0,2,8
1501874332961601,4,-4,0,16,22,-1,6,-5
1501874332963602,-18,-37,-22,-30,2,4,0,4
1501874332963602,4,36,-6,5,-3,-7,2,8
1501874332984620,9,5,6,-3,8,9,2,-12
1501874332984620,-16,-63,-12,1,3,-2,-4,-24
1501874332986599,-4,15,11,18,-18,-1,2,-1
1501874332986599,-9,-3,-12,-18,-18,-8,-7,-30
1501874332998600,8,8,-22,-14,5,-1,5,29
1501874332998600,7,22,4,35,12,3,1,2
1501874333006600,-1,-20,-6,3,3,-1,-5,-7
1501874333006600,-2,9,25,-3,-10,-5,3,11
1501874333021619,-11,-7,-24,-2,23,2,-8,-13
1501874333021619,6,-13,10,-12,-1,6,4,5
1501874333022602,-7,-11,-33,-7,-22,-3,-2,-3
1501874333022602,11,6,0,4,19,6,2,18
1501874333043606,-8,-15,7,5,11,-5,-1,20
1501874333043606,-4,12,-15,1,-18,-11,-1,-39
1501874333044603,2,28,35,20,-10,1,-2,9
1501874333044603,-2,-39,-38,-38,-13,5,-2,6
1501874333058605,0,18,15,24,19,-9,-5,-2
1501874333058605,0,5,1,3,-6,2,4,22
1501874333073606,3,5,-20,-27,-19,-5,-4,3
1501874333073606,-3,31,34,12,11,4,13,-6
1501874333081625,-5,-19,16,2,-4,-1,-5,1
1501874333081625,-1,-22,-6,-11,3,-4,-6,7
1501874333082606,-4,1,-14,-2,-4,-5,-7,-35
1501874333082606,6,17,17,15,21,8,-1,26
1501874333103606,-4,6,-14,0,-14,0,5,-12
1501874333103606,-2,-24,4,-6,5,1,2,-9
1501874333104615,-1,9,24,7,5,-4,-6,3
1501874333104615,-8,-32,-45,-27,-18,-4,-5,-9
1501874333134629,-3,0,19,5,-2,-1,0,-8
1501874333134629,-3,5,-16,4,-4,-5,-9,-13
1501874333135629,0,9,12,-3,2,-4,5,1
1501874333135629,4,15,-11,-1,-10,3,3,26
1501874333141611,1,-25,26,-16,18,4,-1,-64
1501874333141611,-4,-4,-3,-8,-9,0,-10,-12
1501874333142694,4,3,26,26,10,0,3,8
1501874333142694,-3,-17,-85,26,-18,-8,-6,-16
1501874333163610,2,22,-1,-9,7,5,6,38
1501874333163610,1,6,15,-4,-11,-4,-2,-18
1501874333164610,-2,-9,4,-33,1,0,-4,-14
1501874333164610,-5,1,23,4,-2,-2,3,7
1501874333178611,6,14,-17,-1,0,-2,-9,7
1501874333178611,2,22,12,-3,-1,1,15,8
1501874333186617,-10,8,-21,22,-13,-12,-7,14
1501874333186617,-8,-19,14,-52,28,8,-5,-28
1501874333201629,0,0,11,15,-19,-2,1,18
1501874333201629,-9,16,4,3,5,0,-3,-17
1501874333201629,13,-20,-14,-8,-55,-10,0,-1
1501874333201629,-12,-39,10,12,60,2,-2,6
1501874333223634,2,7,-12,-5,-4,2,0,3
1501874333223634,3,-3,-11,-10,-8,0,-5,7
1501874333224621,-8,12,13,11,11,2,2,-13
1501874333224621,9,14,1,15,-17,-5,-5,3
1501874333238613,-5,-22,-6,-16,-12,-3,2,-18
1501874333238613,-3,-13,-19,23,15,2,5,23
1501874333246614,-4,26,8,-26,3,3,-2,-7
1501874333246614,8,17,23,7,6,1,1,-3
1501874333261617,-13,-34,-12,10,5,-4,-4,-4
1501874333261617,7,11,-3,-3,-5,1,3,30
1501874333261617,-1,-2,-13,-3,-6,-4,-8,-9
1501874333261617,-1,-11,10,7,-3,2,-1,-2
1501874333283636,-2,15,16,-2,-6,-2,6,-1
1501874333283636,5,27,0,8,12,-5,-1,-10
1501874333291617,2,-43,-6,-30,2,0,-1,18
1501874333291617,10,6,-42,-4,-15,-3,1,31
1501874333298617,-5,14,21,-9,1,3,-6,-15
1501874333298617,-8,-26,-43,7,-7,0,-5,-16
1501874333306639,3,15,-12,13,9,2,4,-7
1501874333306639,-2,1,14,2,-13,-5,-2,0
1501874333321640,4,8,-5,-2,-10,0,-10,13
1501874333321640,0,1,19,-15,15,2,6,0
1501874333321640,0,-4,-12,6,21,12,10,16
1501874333321640,-5,-11,11,10,-8,-3,-6,-22
1501874333343641,-4,-9,-10,0,-7,-1,3,-12
1501874333343641,1,14,23,-3,4,-3,-12,19
1501874333344621,-2,-18,-29,-4,2,-2,-2,-12
1501874333344621,-4,12,21,-7,-6,-2,-4,-16
1501874333358623,-2,14,-3,1,-13,-7,7,0
1501874333358623,-2,-11,3,-3,3,-2,3,0
1501874333366644,13,11,14,-4,10,2,-10,26
1501874333366644,-6,-5,-16,-8,-8,-3,-1,-20
1501874333381625,0,-6,-10,13,-2,-4,-8,8
1501874333381625,-5,-5,5,-2,-7,-3,0,-6
1501874333382632,-3,4,3,-1,-3,1,3,-9
1501874333382632,1,0,12,11,4,1,-5,-5
1501874333403626,-5,-1,-13,-17,1,1,-5,7
1501874333403626,4,-4,3,6,-8,-3,-4,-8
1501874333404624,-4,1,1,-4,-1,1,9,-3
1501874333404624,3,4,0,2,-1,2,9,7
1501874333418646,-5,-5,-7,-2,1,1,7,-3
1501874333418646,3,-9,-4,-3,4,0,-9,1
1501874333426628,-8,-4,-3,0,-3,-5,-8,-12
1501874333426628,-2,-6,-9,-3,-1,-1,0,1
1501874333441628,4,0,-7,-6,-5,2,2,0
1501874333441628,-3,0,9,1,-2,-4,-10,-7
1501874333442626,3,1,7,-3,-1,-3,6,7
1501874333442626,-5,-1,-1,0,1,1,-4,-11
1501874333463631,1,1,20,10,-1,-2,1,5
1501874333463631,3,-2,-15,-7,-9,1,5,5
1501874333464628,-2,0,-3,1,2,-2,-6,-8
1501874333464628,2,3,3,-2,-2,-3,3,6
1501874333486644,3,7,3,4,3,2,-6,-5
1501874333486644,0,21,2,-5,-4,2,8,2
1501874333487629,-7,-31,12,1,2,-1,-3,-5
1501874333487629,-3,-1,-15,-2,-2,-4,-9,-1
1501874333501649,3,-1,1,-2,2,-2,1,2
1501874333501649,-1,2,-11,-22,-2,0,4,-2
1501874333501649,0,8,-3,26,-2,0,-5,-5
1501874333501649,-2,0,8,-2,0,-1,-3,1
1501874333523652,-2,-7,-12,2,-1,-5,-1,0
1501874333523652,-3,-3,6,-4,-3,0,-11,-5
1501874333524631,4,3,-4,-7,-1,-1,4,8
1501874333524631,-2,-4,2,-3,3,3,10,-1
1501874333546653,0,1,-2,1,0,-1,6,1
1501874333546653,-1,-8,-7,-1,-2,-3,-2,1
1501874333547632,-2,0,3,1,-3,-3,-6,5
1501874333547632,-3,2,-4,-5,-1,-2,-8,-22
1501874333561632,2,-2,-8,-30,3,1,1,3
1501874333561632,-1,-4,-12,19,-2,0,-5,4
1501874333562635,-2,2,0,15,-3,-2,8,-3
1501874333562635,-1,-3,-11,0,-1,-3,-6,3
1501874333583634,-2,0,15,13,3,1,-1,-3
1501874333583634,-2,-5,-4,-18,2,2,0,-1
1501874333584634,3,10,-11,-14,0,-1,-3,-3
1501874333584634,-4,-7,-3,-5,-5,-1,2,2
1501874333606635,-1,-2,8,-7,-3,0,-3,0
1501874333606635,1,1,6,9,2,-2,-3,-2
1501874333607637,1,0,2,4,0,1,1,0
1501874333607637,0,3,13,-4,1,-3,-4,0
1501874333621656,-1,-3,-6,10,-2,-1,2,0
1501874333621656,-3,-2,-3,-21,-3,-4,-2,-2
1501874333621656,-1,1,0,0,-2,2,-1,-2
1501874333621656,1,-2,9,2,0,0,5,3
1501874333643640,-2,-3,-11,5,0,-2,-4,-10
1501874333643640,-2,-1,-7,4,1,3,2,-2
1501874333644641,-1,-2,7,-1,-3,-3,-4,-3
1501874333644641,-1,0,0,1,-6,-2,-3,1
1501874333666639,2,-1,5,6,-3,-3,1,8
1501874333666639,-2,-3,4,1,1,-1,0,-2
1501874333667638,-2,0,-5,-10,2,1,-3,-12
1501874333667638,-1,-1,-2,3,1,3,-2,4
1501874333681660,-1,-4,-5,1,-3,-3,0,-4
1501874333681660,-2,-7,3,-2,-2,-1,-2,-1
1501874333682641,2,5,2,-1,1,-1,0,3
1501874333682641,-1,-2,-9,-1,-3,1,-1,-3
1501874333705642,-1,1,2,-9,0,-1,4,2
1501874333705642,-2,-5,4,7,-4,-3,-2,7
1501874333705642,0,-1,-8,-16,1,-1,4,-13
1501874333705642,-2,-4,4,14,1,-2,-7,-4
1501874333726642,-1,-1,5,13,-1,0,-4,-4
1501874333726642,2,2,-3,5,-2,1,1,6
1501874333727642,-2,0,6,-7,-2,-3,-5,-4
1501874333727642,-1,-4,-38,-22,-2,0,1,-2
1501874333741664,-1,-2,-7,-6,-1,-1,-6,3
1501874333741664,-1,1,5,1,1,-3,1,-8
1501874333741664,0,-1,1,5,2,1,1,5
1501874333741664,0,2,14,2,-2,0,-2,-2
1501874333763648,1,0,-8,3,1,0,-1,1
1501874333763648,-2,-1,1,-14,-4,-2,-5,-6
1501874333764645,1,-1,-14,-7,-2,-1,-5,8
1501874333764645,-2,0,4,-5,1,-2,2,-4
1501874333786646,-1,1,19,22,-2,-1,0,-2
1501874333786646,-1,0,-2,-4,-1,0,7,-2
1501874333787645,-3,-2,-4,7,-2,1,0,2
1501874333787645,-2,-2,-11,-14,-1,-2,7,2
1501874333801648,-3,1,0,-8,3,1,-4,-2
1501874333801648,4,1,2,9,-1,-1,-4,-11
1501874333802647,1,-3,1,-2,-5,-4,-1,2
1501874333802647,2,1,8,1,-1,-4,-4,2
1501874333823647,-5,-3,-45,-24,-1,2,2,-4
1501874333823647,0,-1,14,20,-2,0,-2,-5
1501874333824656,-1,1,-12,-14,2,-1,-10,3
1501874333824656,1,4,46,35,2,1,19,-4
1501874333846664,-3,-2,-43,-28,-2,0,-5,-6
1501874333846664,14,-5,-6,31,1,-1,-3,10
1501874333847650,-17,-2,-1,3,-1,2,3,-15
1501874333847650,1,0,6,-1,-1,-1,-6,1
1501874333861671,12,-1,7,18,2,-1,-6,-1
1501874333861671,-25,-2,-8,-57,-6,-1,-2,-5
1501874333861671,18,2,1,-11,2,2,1,4
1501874333861671,0,-1,-9,21,6,-1,-5,0
1501874333883667,-6,-3,12,-39,-1,-1,-1,5
1501874333883667,-3,2,5,34,6,-3,-2,-26
1501874333884655,4,-3,7,-6,-5,-4,2,18
1501874333884655,-7,-1,-11,-24,-2,2,-4,-1
1501874333906657,8,1,2,9,-1,-2,-13,5
1501874333906657,-5,-3,-6,-15,-2,-2,3,-3
1501874333907656,-6,-2,-9,9,4,3,9,-2
1501874333907656,7,2,-2,73,1,1,2,4
1501874333921653,-7,-5,16,-71,-7,-5,-11,-9
1501874333921653,0,3,3,15,-1,-1,5,18
1501874333921653,-3,-1,6,9,0,-2,-3,-21
1501874333921653,-1,-2,-14,-24,-3,-2,-10,-2
1501874333943676,-5,0,8,48,4,1,9,-5
1501874333943676,21,2,3,-9,1,2,1,8
1501874333944655,-21,-4,-6,-26,-1,-3,-5,-5
1501874333944655,-6,-1,-1,24,3,0,3,-2
1501874333966659,-2,2,-2,9,-3,-1,-1,-2
1501874333966659,6,0,1,-33,-1,-1,-7,3
1501874333966659,4,0,-2,-9,-9,-2,8,4
1501874333966659,-4,-3,1,-46,-7,-3,-6,-6
1501874333981678,0,-3,1,7,-2,-1,10,4
1501874333981678,-1,-2,6,58,3,-1,-2,3
1501874333981678,4,2,-9,-18,6,2,-7,2
1501874333981678,-8,-2,15,40,-3,-3,-4,-9
1501874334003661,4,2,16,26,1,2,5,7
1501874334003661,-1,-2,-28,39,3,1,2,-5
1501874334004659,-2,-2,1,-96,-10,-4,4,-1
1501874334004659,6,2,-6,-10,5,-2,0,2
1501874334026663,-3,-1,0,4,0,-1,-3,3
1501874334026663,-4,1,2,-4,0,-1,-1,-4
1501874334026663,0,-2,-6,25,-1,1,5,3
1501874334026663,0,-3,-11,-35,-5,-1,-13,0
1501874334041660,-1,-2,4,6,-3,-4,7,-2
1501874334041660,-3,0,-3,-15,-1,-1,-11,5
1501874334041660,2,-1,10,41,3,0,6,-5
1501874334041660,0,0,11,-11,-4,-1,-4,-2
