timestamp,emg1,emg2,emg3,emg4,emg5,emg6,emg7,emg8
1501876322190300,23,-12,18,-86,-8,2,33,42
1501876322190300,-13,27,7,-10,-8,-4,-7,-101
1501876322191275,-13,7,14,30,16,8,-2,-87
1501876322191275,-2,16,4,29,-5,-1,14,68
1501876322191275,7,-57,3,52,16,-3,-45,-8
1501876322191275,-14,-41,-38,-72,-48,-11,1,16
1501876322193301,-27,-49,21,54,25,-5,-10,-58
1501876322193301,10,-1,-20,-80,-13,3,-10,-85
1501876322201303,-2,64,-11,127,9,9,24,32
1501876322201303,13,-33,5,0,17,0,-19,-3
1501876322208329,3,-25,32,-14,2,5,-1,22
1501876322208329,-1,-11,-28,41,7,-1,22,79
1501876322216265,-36,-29,-3,-47,-22,-6,-24,-92
1501876322216265,32,94,16,39,-6,7,29,19
1501876322231275,-4,-30,-42,-22,-14,-14,-11,7
1501876322231275,10,3,40,38,40,0,-20,26
1501876322237339,9,18,-29,-66,-11,-3,8,30
1501876322237339,-9,1,7,2,9,9,1,26
1501876322261307,-6,23,-23,-23,-12,-7,-14,-58
1501876322261307,16,-27,-1,-46,-12,-3,-2,38
1501876322264303,-32,5,20,109,35,-2,-2,7
1501876322264303,2,12,-44,-54,-49,-15,-27,-31
1501876322300280,4,-51,3,63,29,-5,10,-36
1501876322300280,14,63,14,-63,-11,-6,-4,66
1501876322301279,-16,-78,-26,27,7,14,-5,-87
1501876322301279,3,2,-7,-54,2,-2,-10,-2
1501876322302284,16,22,58,15,-1,3,8,42
1501876322302284,-3,-1,-30,59,-15,-4,-4,-14
1501876322304327,3,57,6,-30,-42,-14,-10,-51
1501876322304327,-26,-27,9,11,24,10,6,-32
1501876322313285,-14,-48,11,72,-11,-10,-2,-2
1501876322313285,-6,-7,2,19,36,1,-11,-45
1501876322319334,12,-32,-17,14,-7,6,4,47
1501876322319334,-6,8,-8,72,-6,-11,5,37
1501876322328287,-6,-11,30,-17,3,6,-18,-78
1501876322328287,4,-10,11,-60,0,-7,-5,24
1501876322342341,10,12,-22,-44,-9,-7,22,16
1501876322342341,-26,-60,-31,-49,11,4,-7,-30
1501876322351305,10,3,-45,67,-17,-4,3,0
1501876322351305,-10,13,19,-9,-18,-6,-4,11
1501876322375308,25,11,17,-12,37,10,0,21
1501876322375308,13,11,48,-31,-12,-3,2,47
1501876322376288,-19,-23,-30,-26,7,0,-9,-6
1501876322376288,7,-35,-28,-26,-10,0,-4,-20
1501876322388290,5,52,21,61,-28,-15,-3,70
1501876322388290,10,11,2,10,50,12,10,-70
1501876322394313,-5,43,9,-30,-49,5,-3,24
1501876322394313,-2,-45,5,24,30,-3,-2,-37
1501876322411348,-17,-12,-3,-22,19,-12,-3,-9
1501876322411348,26,50,-46,-44,-24,8,-1,46
1501876322412277,-9,-33,-15,-25,11,-10,7,47
1501876322412277,-11,47,18,60,17,17,4,-50
1501876322433285,1,-30,2,19,-19,-1,9,38
1501876322433285,-11,-46,-11,45,-11,-9,-7,-11
1501876322435278,8,49,15,10,13,8,9,5
1501876322435278,16,-1,-16,30,-6,-5,6,72
1501876322448294,-22,-56,2,-42,7,2,-12,-119
1501876322448294,16,56,-6,47,-23,-7,-2,63
1501876322454314,1,-1,16,-7,6,-2,-10,-90
1501876322454314,-22,-20,-22,-27,-3,-1,5,54
1501876322471345,-7,20,13,7,16,4,-8,-46
1501876322471345,-10,-2,-21,-33,-46,-14,-9,5
1501876322472279,10,-25,12,56,15,3,-1,-10
1501876322472279,-8,-7,-41,-96,48,11,10,-14
1501876322493314,27,92,22,74,3,10,15,52
1501876322493314,-29,-65,-17,0,-5,-6,-39,-86
1501876322495281,11,66,1,-29,-7,-5,17,54
1501876322495281,-9,2,58,49,-27,-15,-6,-37
1501876322508300,-15,-56,-33,-6,4,-2,-4,-3
1501876322508300,14,33,47,40,9,10,13,-14
1501876322514300,6,52,-11,7,0,-6,-4,76
1501876322514300,-15,-114,17,-21,0,7,-17,-103
1501876322531282,-4,52,-24,-58,5,-1,-5,27
1501876322531282,3,-31,17,8,9,1,11,9
1501876322532286,-1,-40,-73,-45,-42,-16,-16,6
1501876322532286,8,33,-4,10,-5,-1,29,109
1501876322553353,2,49,19,19,-1,-1,-11,-19
1501876322553353,-1,-37,0,3,28,5,-2,-34
1501876322555319,-9,-4,4,-22,-3,12,1,-18
1501876322555319,25,71,16,-4,17,0,12,22
1501876322568284,-29,-95,-36,32,-20,-12,-11,10
1501876322568284,7,86,16,-11,0,3,7,-20
1501876322574318,-10,-41,-29,-78,-4,-12,-6,-1
1501876322574318,-5,2,-16,96,23,5,-1,31
1501876322591363,12,12,51,3,-11,2,-3,-10
1501876322591363,10,16,-5,-16,-2,1,6,52
1501876322592324,-15,-11,6,18,-3,-1,-3,-59
1501876322592324,9,-11,11,-12,-29,-6,-1,42
1501876322613329,-8,-26,6,42,23,0,-4,-26
1501876322613329,-3,-23,-57,-17,-21,-10,4,-3
1501876322615301,-3,27,0,-37,1,-3,-6,-5
1501876322615301,1,-6,-14,21,6,15,3,-13
1501876322628310,-1,-48,-5,-1,-10,-3,4,43
1501876322628310,5,17,36,0,23,-1,-11,3
1501876322634351,6,-9,11,37,4,5,14,67
1501876322634351,-2,26,-7,-71,-30,-5,-11,-60
1501876322651329,4,-29,14,32,23,-1,-4,39
1501876322651329,-18,-67,-25,43,-6,2,-4,0
1501876322652291,-10,3,5,-55,3,1,1,-12
1501876322652291,19,-6,-6,43,-27,-11,-10,55
1501876322673358,4,45,-8,-34,4,1,1,11
1501876322673358,-7,21,19,-4,-4,-5,10,5
1501876322675311,12,-41,21,-14,18,5,11,59
1501876322675311,-11,-25,-22,-13,-9,1,-6,-20
1501876322688302,-9,23,27,6,-4,3,-16,-79
1501876322688302,6,-38,-42,-53,3,-2,5,30
1501876322694338,-8,42,-10,19,-8,-8,-18,-42
1501876322694338,-10,24,27,-32,-12,-10,1,18
1501876322718334,4,-40,-10,18,-10,1,8,24
1501876322718334,0,0,4,10,-2,-14,-11,-30
1501876322720304,36,114,39,29,36,25,11,47
1501876322720304,-25,-41,-38,-48,-16,-10,-6,-14
1501876322733331,-4,23,-4,-7,-31,-3,5,5
1501876322733331,-6,4,25,51,19,0,-5,-35
1501876322735303,-1,-10,-29,11,6,-3,-6,-29
1501876322735303,-3,2,22,28,12,4,8,-1
1501876322747340,4,19,-1,-27,-2,1,5,4
1501876322747340,3,8,6,-7,-21,-4,-6,4
1501876322756322,-2,-36,1,-5,0,-3,3,26
1501876322756322,1,28,4,34,11,6,3,-66
1501876322771329,-2,23,-12,-23,5,0,0,33
1501876322771329,-4,-28,-2,44,-2,0,4,9
1501876322772334,7,21,-6,27,7,3,7,83
1501876322772334,-4,-36,-5,-4,-18,-7,-16,-89
1501876322793364,3,30,17,21,-7,-14,-4,13
1501876322793364,-4,20,24,-5,55,22,5,-23
1501876322795304,-5,-11,-36,-3,-9,7,8,-1
1501876322795304,8,19,-7,-32,-8,-6,-5,9
1501876322807310,-9,-25,13,-38,-1,2,-1,6
1501876322807310,7,-7,-19,-67,-33,-4,-2,12
1501876322816310,-19,-26,13,31,4,-8,-13,-52
1501876322816310,18,39,34,45,-2,6,9,22
1501876322831378,-19,-53,-40,-30,12,-5,-8,-51
1501876322831378,2,22,9,0,-13,-3,5,54
1501876322832300,-1,-33,-9,-23,-4,0,-2,-29
1501876322832300,-15,2,13,13,-8,-1,-9,-39
1501876322853305,14,30,18,-47,-21,-4,6,48
1501876322853305,4,19,4,14,46,9,3,0
1501876322855301,9,-15,30,53,-4,3,1,-8
1501876322855301,-11,-40,-68,-83,-26,-11,3,19
1501876322867359,8,-2,-26,10,-3,-5,-3,1
1501876322867359,-2,32,-8,-11,-20,1,3,-21
1501876322876332,-7,32,28,-9,4,-3,-8,-61
1501876322876332,8,-19,19,5,6,1,-3,50
1501876322891369,-16,-8,-11,-12,0,0,-19,-78
1501876322891369,1,-7,-3,-67,-12,-4,13,48
1501876322892305,1,-7,-3,-7,6,-2,5,-27
1501876322892305,-8,3,6,47,19,11,7,-9
1501876322913367,0,-15,-30,12,-9,-8,-8,11
1501876322913367,4,0,28,42,-23,-6,5,31
1501876322915315,-2,-19,-2,22,-20,-25,-18,-25
1501876322915315,-21,-25,18,-71,34,24,-11,-36
1501876322927306,4,26,-4,44,14,8,4,2
1501876322927306,7,-23,7,-8,3,0,7,-5
1501876322936343,-4,5,-37,-105,-27,-4,6,56
1501876322936343,15,13,-42,-1,-37,-18,-8,-6
1501876322951374,-19,-10,8,12,31,2,-5,-46
1501876322951374,-4,7,18,49,-3,0,-2,4
1501876322952343,1,29,0,-1,0,3,-2,14
1501876322952343,3,-9,10,21,-6,-13,8,47
1501876322973371,12,-42,-5,-30,35,24,17,3
1501876322973371,-20,8,-6,18,-17,-13,-24,-52
1501876322975308,6,-10,-38,9,10,8,0,6
1501876322975308,-2,46,-16,24,-2,-6,-1,-11
1501876322987308,11,-37,19,3,-34,-15,15,40
1501876322987308,-11,-10,-9,1,17,1,-10,-13
1501876322996345,-1,-37,29,68,17,10,3,8
1501876322996345,-5,-21,-50,-23,12,1,0,37
1501876323011346,-2,41,2,9,-3,4,-2,12
1501876323011346,-10,-6,-17,-12,-5,-9,-12,-49
1501876323012311,-19,-22,-8,-1,-8,-14,-7,-10
1501876323012311,14,8,18,-8,-52,1,0,21
1501876323033350,-3,27,19,24,54,9,9,25
1501876323033350,8,61,15,-8,-13,3,8,9
1501876323035330,3,-50,-20,-20,-4,-4,-6,20
1501876323035330,-7,-34,5,23,16,0,-12,-32
1501876323047312,0,11,-3,-2,-25,-8,-2,-5
1501876323047312,13,35,-4,38,2,1,2,32
1501876323056323,-6,10,-16,-71,-15,-3,7,-55
1501876323056323,3,28,8,-3,21,1,7,18
1501876323071312,-6,-28,15,13,-14,-1,-11,-3
1501876323071312,21,13,-20,-11,12,2,20,76
1501876323072314,-21,19,18,29,2,0,-25,-26
1501876323072314,1,-10,9,2,-1,-1,3,4
1501876323093372,0,10,-42,-44,-45,-7,3,16
1501876323093372,-5,-25,-7,-3,32,3,-9,-40
1501876323095314,9,-8,27,4,-11,-2,4,19
1501876323095314,-9,9,14,26,21,5,0,-15
1501876323107371,-4,-7,-5,21,-1,-4,-3,-12
1501876323107371,1,-16,-2,22,-5,-1,2,32
1501876323116328,-3,4,-2,-41,-8,2,2,29
1501876323116328,4,40,7,18,0,-4,-14,-83
1501876323131387,6,-2,3,-10,17,-4,7,10
1501876323131387,-9,-73,-33,10,-12,-4,-7,-21
1501876323132318,5,11,11,-5,12,6,4,4
1501876323132318,3,15,2,25,7,-3,12,53
1501876323153388,-6,-5,2,-29,-30,-1,-5,-19
1501876323153388,-5,-2,-3,5,8,-1,-2,-4
1501876323155319,2,12,-6,-26,12,2,0,-5
1501876323155319,-3,-11,6,19,2,0,4,-8
1501876323176390,6,40,-26,9,-8,-9,3,69
1501876323176390,-12,5,16,-31,19,7,-32,-85
1501876323177321,-5,-17,-9,-11,-14,0,-1,-17
1501876323177321,-3,-14,-10,-12,-3,-9,-4,14
1501876323190358,4,59,36,12,17,5,5,3
1501876323190358,-7,-80,-2,-31,-24,-6,-1,-8
1501876323197380,-8,2,-45,-3,-4,-1,-2,-14
1501876323197380,-1,-7,20,-4,18,0,0,16
1501876323213392,7,15,-7,6,-15,-3,-5,-19
1501876323213392,2,31,-7,-22,-21,2,4,13
1501876323215322,7,13,16,57,23,4,10,3
1501876323215322,-14,-34,-8,-27,-17,-10,-22,-13
1501876323236390,-5,14,24,8,7,-5,-2,-28
1501876323236390,4,7,-11,-1,3,10,6,10
1501876323237325,0,0,9,18,-12,-9,1,22
1501876323237325,-5,5,-2,-16,-1,1,-6,-57
1501876323250370,5,27,27,8,12,4,1,17
1501876323250370,-9,-28,-23,2,-21,-10,-7,-14
1501876323257365,2,8,0,-11,-3,-2,3,35
1501876323257365,5,-21,5,13,10,4,5,38
1501876323272364,-4,-45,-15,-13,6,5,-1,-20
1501876323272364,-3,-15,26,17,-25,-19,-2,21
1501876323281327,4,-8,-13,-19,22,15,-4,-33
1501876323281327,7,57,25,15,7,6,9,33
1501876323296355,-7,-124,-30,2,8,1,-8,-16
1501876323296355,2,1,-9,-16,-13,-7,5,49
1501876323297327,-13,53,16,12,-16,-12,-7,-25
1501876323297327,-13,-59,-20,3,16,-2,-11,-59
1501876323318339,7,114,28,0,1,9,8,19
1501876323318339,3,-70,14,17,2,1,-6,-43
1501876323320328,-5,-15,-35,-28,-4,-2,-2,12
1501876323320328,-6,-28,3,-6,-9,-8,2,-23
1501876323332398,-4,12,-21,-23,-10,-3,1,0
1501876323332398,16,101,22,17,3,1,4,12
1501876323341341,9,14,23,25,26,11,7,15
1501876323341341,-1,23,-26,-25,-20,-8,-6,4
1501876323356331,-5,-91,-4,17,-1,-2,2,54
1501876323356331,-4,98,45,28,3,-3,-9,-39
1501876323357333,-6,-30,-34,-26,-12,-3,-1,5
1501876323357333,6,12,-8,17,3,2,3,34
1501876323378393,4,10,-9,7,-6,-1,-4,-17
1501876323378393,1,29,11,1,24,8,6,9
1501876323380364,-2,-84,-6,13,-17,-9,-2,31
1501876323380364,7,83,12,0,1,3,9,4
1501876323392401,-8,-3,4,-5,-3,-1,-7,11
1501876323392401,6,-17,-24,-28,-8,1,6,1
1501876323401341,5,42,9,4,12,-1,0,21
1501876323401341,4,-19,14,12,-13,-3,-7,-29
1501876323416391,-5,-10,-25,44,3,-7,-6,-21
1501876323416391,-9,-49,-26,-36,-5,-7,-2,2
1501876323417337,6,35,21,5,-8,-3,7,33
1501876323417337,-7,21,-8,3,13,4,-15,-20
1501876323438383,-1,100,20,-28,-9,-2,1,-10
1501876323438383,-15,-122,-12,22,4,0,1,29
1501876323440344,-5,17,-32,-43,-30,-9,-7,-43
1501876323440344,20,22,13,6,3,3,13,15
1501876323452396,-1,8,9,4,20,1,1,20
1501876323452396,-10,16,-20,-18,-17,-4,-6,21
1501876323461347,14,56,31,21,32,5,4,-19
1501876323461347,-23,-70,-20,3,-13,0,-9,-37
1501876323476366,3,-2,-17,-26,-21,-6,-10,-64
1501876323476366,-2,-11,12,10,30,0,8,17
1501876323477339,-8,12,3,-4,-24,-3,0,-7
1501876323477339,6,-13,1,14,8,1,2,36
1501876323498350,4,-34,-3,-9,7,-2,0,18
1501876323498350,11,90,9,-7,-27,-1,3,10
1501876323504405,-11,-45,-1,7,20,-4,-17,-41
1501876323504405,2,13,8,-13,-5,4,12,31
1501876323512369,-6,-66,-17,5,-17,-6,-2,6
1501876323512369,12,16,2,-2,1,-2,12,61
1501876323521340,-23,-34,-9,-20,-5,-7,-23,-92
1501876323521340,-13,3,2,-1,-13,-2,-2,6
1501876323536387,7,45,10,8,19,1,-3,9
1501876323536387,-4,11,-12,-8,-8,0,-1,-19
1501876323537368,13,22,15,18,3,2,11,47
1501876323537368,-2,-37,1,-11,-6,-5,1,14
1501876323558342,-4,-5,1,1,-14,-6,-2,-18
1501876323558342,9,0,14,14,21,7,2,15
1501876323560372,0,-19,-25,-10,-11,-1,10,43
1501876323560372,0,100,12,0,-3,-4,-17,-105
1501876323572381,-13,-49,-13,-20,-1,-3,-7,14
1501876323572381,-7,-27,12,26,5,2,3,-10
1501876323581355,-1,-34,-7,-57,-4,0,-6,-24
1501876323581355,15,10,-12,-8,-2,1,11,41
1501876323596392,-2,-1,9,12,-5,-4,1,8
1501876323596392,-12,-17,8,-12,-7,-5,-12,-31
1501876323597357,8,25,21,19,-10,1,12,11
1501876323597357,4,-17,-33,-8,20,-2,-5,20
1501876323618415,6,23,26,11,13,10,6,2
1501876323618415,-6,-39,-30,-14,-13,-2,-1,-44
1501876323620355,6,11,21,13,-14,-2,-5,35
1501876323620355,4,8,6,0,18,0,13,62
1501876323632379,-15,-11,-4,2,9,1,-9,-84
1501876323632379,16,57,23,28,-1,-7,-2,3
1501876323641361,-4,-26,8,17,-8,2,2,44
1501876323641361,-8,-6,-6,-12,-11,-6,1,-57
1501876323656358,-2,33,21,-4,9,-2,-9,-3
1501876323656358,-2,46,-15,27,1,4,4,20
1501876323657347,-4,-44,-22,-26,-3,-7,-6,-17
1501876323657347,0,-17,6,10,-10,3,3,40
1501876323678390,-4,8,-17,-21,2,-2,0,-8
1501876323678390,-3,-26,-1,-13,-15,-7,-10,-14
1501876323680382,5,2,4,31,33,8,1,-16
1501876323680382,-8,-21,-6,-8,-12,3,8,43
1501876323701363,-2,-85,-16,-38,-13,-7,-7,-30
1501876323701363,5,1,3,-16,3,2,2,2
1501876323702366,-3,25,1,47,-2,-1,-6,3
1501876323702366,-2,-15,-14,-19,-23,-5,-4,-5
1501876323716362,7,-12,11,-2,13,3,7,45
1501876323716362,-12,-21,-5,-4,-2,-5,-12,-37
1501876323717360,5,72,28,3,6,2,-3,-6
1501876323717360,-11,-67,-28,0,15,-3,-4,-46
1501876323738393,2,9,-2,12,-11,-4,2,29
1501876323738393,-6,-14,-15,-26,-3,-2,-2,18
1501876323740384,0,7,12,13,-9,4,4,-9
1501876323740384,1,8,2,-6,32,6,1,27
1501876323761391,10,10,-12,17,-11,-1,-1,-51
1501876323761391,-3,46,3,-8,-2,0,0,20
1501876323762355,-5,-4,-6,17,4,0,0,6
1501876323762355,-1,20,-4,-39,-32,-10,-5,4
1501876323774398,8,4,-7,-40,25,9,6,53
1501876323774398,-3,-25,-2,5,-5,2,1,-11
1501876323783390,-3,-7,1,-1,-9,-9,-4,-4
1501876323783390,-2,-23,-7,11,-1,-2,4,3
1501876323798356,6,42,21,25,0,5,12,40
1501876323798356,-17,8,-20,-31,-15,-10,-18,-94
1501876323800356,-1,8,-10,-15,1,-7,-3,-1
1501876323800356,-5,-31,17,28,29,10,-4,-6
1501876323821388,-10,-10,-15,11,-16,1,-4,-12
1501876323821388,7,9,5,10,17,6,10,34
1501876323822359,0,-67,-14,-34,-15,-7,1,-2
1501876323822359,2,44,17,19,2,-2,-2,-12
1501876323835358,-2,-24,-8,0,4,-2,-6,-42
1501876323835358,12,13,-2,-14,-9,-1,9,96
1501876323842368,-12,8,1,8,-3,-4,-3,-60
1501876323842368,3,3,-12,-18,-7,4,0,5
1501876323858359,-10,-37,0,26,-5,-5,-4,-58
1501876323858359,3,-4,0,-12,8,1,-4,0
1501876323860382,1,20,-10,-16,-30,-4,4,53
1501876323860382,2,10,0,-17,27,4,-6,-19
1501876323880406,-5,-11,-1,0,-19,-12,-2,5
1501876323880406,13,32,8,11,8,6,10,14
1501876323888362,-6,-18,7,8,19,-1,-12,-2
1501876323888362,0,15,6,10,-29,-3,-2,6
1501876323895428,-2,26,-22,-12,3,2,0,-5
1501876323895428,-3,-10,16,-14,-9,0,7,25
1501876323902431,0,-20,-22,-6,1,0,-7,-54
1501876323902431,-1,3,11,5,-10,-4,-6,26
1501876323918367,0,6,27,36,10,-4,0,0
1501876323918367,-4,-28,-16,-15,10,7,2,-34
1501876323920363,11,19,-9,11,21,5,6,34
1501876323920363,-4,25,5,14,-13,-4,-3,-4
1501876323941374,-1,-10,1,-14,-1,5,-3,-5
1501876323941374,-10,1,22,29,12,-3,-5,-27
1501876323942366,0,4,5,-4,-1,-1,2,35
1501876323942366,2,27,-24,-21,-26,-2,-3,-67
1501876323955432,12,-4,21,8,32,7,16,57
1501876323955432,-13,6,-19,10,7,8,-12,-49
1501876323962428,-3,-2,-12,-17,-8,-5,-5,8
1501876323962428,12,27,19,16,-8,-5,6,24
1501876323978431,-9,-5,-11,-19,0,-2,-5,-23
1501876323978431,8,0,0,4,-6,-2,1,17
1501876323980367,-9,-34,-5,-9,0,-3,-2,-41
1501876323980367,3,-10,16,22,30,6,5,7
1501876324001378,3,21,-9,2,-18,-2,0,21
1501876324001378,-2,-27,-14,-23,-5,-5,3,32
1501876324002381,-12,13,-4,18,-13,-6,-8,-44
1501876324002381,4,-23,-5,-22,-7,-6,2,23
1501876324015433,2,3,16,30,-3,0,-5,15
1501876324015433,4,13,-6,-10,-5,-2,6,19
1501876324022368,1,2,15,-28,9,7,-8,3
1501876324022368,-10,-19,-10,5,-7,-5,-10,-37
1501876324038437,-14,-6,-9,2,-1,-1,-5,1
1501876324038437,21,21,13,17,-16,-4,7,4
1501876324040371,-3,-37,1,13,-15,1,11,41
1501876324040371,-9,-8,-22,-24,25,-1,-12,-33
1501876324061371,2,20,3,-11,-10,-6,-5,0
1501876324061371,-5,-35,11,-2,-16,-12,-6,-10
1501876324062373,2,-29,-14,-4,15,8,7,21
1501876324062373,2,-26,9,31,10,6,4,8
1501876324075440,1,36,6,-23,-16,4,2,9
1501876324075440,-5,-23,-20,27,-2,-4,-4,-12
1501876324082414,1,-17,2,-25,-12,-6,7,25
1501876324082414,-3,18,10,11,6,-5,-5,-32
1501876324098443,-1,-32,-2,26,6,-3,3,6
1501876324098443,-10,11,5,-26,9,9,-7,-8
1501876324100406,11,18,11,11,0,0,5,4
1501876324100406,-7,-2,0,-16,-10,-5,5,2
1501876324121373,3,44,5,26,-14,-8,-4,-21
1501876324121373,-4,-27,-6,-9,15,2,-2,-12
1501876324122376,-6,9,-4,22,12,6,-3,-13
1501876324122376,10,-10,12,-9,-6,6,2,21
1501876324135437,-4,-2,-22,-24,6,-2,5,32
1501876324135437,-11,-43,8,15,5,-10,-20,-59
1501876324151389,1,-24,-5,-34,-18,0,0,1
1501876324151389,-8,-13,21,17,8,5,1,12
1501876324158445,-3,-1,-18,9,4,0,-3,-20
1501876324158445,-4,7,-9,-19,6,-3,-6,-49
1501876324160376,0,31,14,12,-8,-2,-3,-7
1501876324160376,0,-18,-5,2,1,0,6,64
1501876324181379,2,26,-1,16,1,0,-9,2
1501876324181379,-9,-1,-4,-14,-16,-8,-5,-23
1501876324182379,5,5,-5,-6,10,0,1,-17
1501876324182379,-8,-77,-13,-3,-12,-2,-1,29
1501876324194419,-8,-4,5,-31,7,0,1,-8
1501876324194419,9,31,10,19,-11,-3,4,29
1501876324203412,-6,-6,7,5,6,7,2,-39
1501876324203412,6,39,-31,-38,2,-1,1,4
1501876324218382,-8,-28,-16,-25,-7,6,-3,-42
1501876324218382,2,1,10,18,0,1,0,41
1501876324220381,4,-4,-5,10,-5,-12,6,30
1501876324220381,-7,28,5,2,-2,1,-14,-44
1501876324241392,6,-47,-6,-9,-1,1,1,30
1501876324241392,-8,-26,-18,-17,1,1,0,-2
1501876324242414,-1,23,11,13,-18,-5,-6,-7
1501876324242414,1,-2,-14,11,5,-3,1,-5
1501876324254445,3,-10,9,-1,-7,-3,3,8
1501876324254445,4,10,1,-9,-26,-8,-3,-13
1501876324263402,2,-5,-15,17,45,15,-3,12
1501876324263402,7,24,-15,-21,-20,-5,4,3
1501876324278441,-5,-20,-9,-4,-4,-1,-2,-9
1501876324278441,6,8,-11,10,11,4,9,17
1501876324280383,-12,-17,7,3,-7,-6,-9,-13
1501876324280383,7,-26,22,1,-26,0,2,34
1501876324301402,-3,-7,-20,14,22,-8,1,-16
1501876324301402,-2,7,13,-3,-1,6,-6,-27
1501876324302393,-1,14,-13,-22,-2,-5,0,12
1501876324302393,1,19,13,9,2,4,0,-29
1501876324314425,2,29,4,-4,-17,-9,-4,41
1501876324314425,-4,-21,6,14,-7,7,6,1
1501876324323421,10,16,7,8,14,0,10,45
1501876324323421,-19,-24,-8,-25,9,-6,-12,-46
1501876324338426,3,-3,2,-14,-4,7,-1,-4
1501876324338426,0,29,-18,3,3,-1,0,9
1501876324340387,3,22,10,11,-13,-5,-4,8
1501876324340387,2,8,-3,14,-5,-7,10,12
1501876324360432,-12,-34,9,-18,1,-2,-11,-36
1501876324360432,1,24,1,-14,1,-3,4,20
1501876324368413,-5,-22,-21,-16,8,-1,-6,-35
1501876324368413,18,11,5,0,4,11,2,52
1501876324374454,-6,14,-15,7,6,7,0,-17
1501876324374454,3,-3,15,9,-1,-7,0,22
1501876324383425,-1,32,9,3,-3,3,1,-29
1501876324383425,-7,-45,-6,-4,-8,-6,2,22
1501876324398457,5,-2,18,21,11,-2,-3,43
1501876324398457,6,30,1,4,-14,-2,-12,-66
1501876324400425,-11,-29,-40,-35,-16,-3,-2,-7
1501876324400425,-8,4,-7,12,0,-7,-11,-42
1501876324421413,-1,11,13,-20,-1,7,9,13
1501876324421413,-2,-17,-3,26,12,-2,0,18
1501876324422394,1,24,12,-1,-11,-5,-5,-19
1501876324422394,1,5,4,15,15,3,10,-7
1501876324434437,-4,-33,-6,-7,-3,-6,-14,-22
1501876324434437,5,28,8,-13,-5,0,2,17
1501876324443399,4,0,7,11,16,6,0,2
1501876324443399,-4,-65,-13,-11,-20,-9,2,23
1501876324458458,-1,13,0,6,-4,-4,5,-21
1501876324458458,-7,-25,-18,-27,-3,-1,-9,-28
1501876324460395,-2,-8,-9,-13,-15,-2,-1,42
1501876324460395,3,36,2,16,6,-4,-5,-3
1501876324481410,7,-12,9,-14,2,-2,2,18
1501876324481410,-12,11,5,-17,7,0,0,-21
1501876324482395,13,29,-1,19,2,-4,17,20
1501876324482395,-4,2,-8,-25,-14,-1,-18,-27
1501876324494397,-3,-2,-9,4,5,11,-3,-27
1501876324494397,1,17,9,3,-6,-3,4,6
1501876324503405,-8,-27,17,12,10,-2,2,-4
1501876324503405,-1,0,-18,-12,2,-1,-1,6
1501876324518410,0,4,-17,-6,-9,-9,-2,-9
1501876324518410,-1,-18,5,14,9,3,0,-4
1501876324520401,8,38,3,-11,-4,-3,-2,28
1501876324520401,8,14,18,13,-15,4,3,18
1501876324541400,1,6,-10,-5,8,0,9,17
1501876324541400,-2,11,-3,13,10,-1,-4,10
1501876324542399,-6,-24,4,19,-3,-2,-10,-33
1501876324542399,2,50,14,-28,-15,-5,-7,-66
1501876324554401,-6,-41,-24,-12,-2,-2,2,21
1501876324554401,6,7,16,-3,4,-1,4,47
1501876324563402,6,-2,-9,2,-2,-4,-1,1
1501876324563402,-13,31,-18,-15,6,1,-4,-10
1501876324578410,-2,-63,4,12,-12,-10,2,22
1501876324578410,4,8,13,-3,8,2,-9,-2
1501876324580411,-10,4,-16,34,4,8,-5,-43
1501876324580411,-7,-37,-8,-13,-3,-5,-7,-10
1501876324601403,1,50,2,-3,-2,-5,-2,-17
1501876324601403,3,1,-3,-4,4,-1,4,41
1501876324602403,-2,-30,11,-1,-12,-3,-8,-30
1501876324602403,3,-6,10,31,21,10,12,55
1501876324623473,-5,-2,14,2,-1,1,-3,-17
1501876324623473,0,4,-27,-10,-3,0,0,1
1501876324625441,2,-19,2,-23,-10,-2,2,4
1501876324625441,-3,-7,-2,4,-4,-2,1,-9
1501876324638463,-1,0,14,1,-22,-12,-4,38
1501876324638463,-11,3,-2,1,5,0,-8,-97
1501876324640405,3,9,0,-4,18,7,1,14
1501876324640405,5,-13,-5,2,5,-3,0,-6
1501876324661424,-2,5,-8,4,1,0,-2,-8
1501876324661424,5,-23,-14,-9,-39,-5,8,58
1501876324662407,-4,4,-3,-15,5,-3,-1,-7
1501876324662407,10,35,25,22,26,4,9,42
1501876324683450,-12,-10,3,-10,-5,-1,-20,-82
1501876324683450,-7,-21,-24,8,4,-8,-3,-19
1501876324685408,0,-9,-8,-24,-12,-1,1,52
1501876324685408,-4,22,-5,-7,-10,-3,-8,-75
1501876324698466,8,-13,7,12,-9,6,9,39
1501876324698466,-4,-13,2,10,20,-1,-6,-15
1501876324700407,-6,-4,12,1,-9,-2,-7,2
1501876324700407,3,26,13,8,-5,-8,0,16
1501876324721412,6,24,-14,-9,-2,9,12,25
1501876324721412,-3,-26,2,-18,-10,-5,-14,-11
1501876324722439,0,-6,-2,14,8,-3,0,-11
1501876324722439,-4,-1,-3,-3,2,7,-2,0
1501876324743454,3,-7,-5,0,9,-3,0,-1
1501876324743454,6,23,-2,4,-10,4,10,30
1501876324745446,-10,4,18,2,-19,-8,-11,-45
1501876324745446,1,-39,1,-4,23,4,1,-8
1501876324757482,-1,50,-20,5,-11,-3,-1,-1
1501876324757482,-7,-55,-5,-10,8,-2,-6,-31
1501876324764410,4,1,5,14,13,-2,1,28
1501876324764410,-5,-9,1,8,-11,-2,0,1
1501876324781430,14,24,7,-8,3,8,7,6
1501876324781430,-3,-23,-15,-13,-4,-3,1,32
1501876324782413,-6,22,2,8,-7,-9,-5,-46
1501876324782413,-10,-55,-20,-9,-9,3,-1,-5
1501876324803480,-7,-6,7,7,-5,-6,-11,-7
1501876324803480,3,25,15,-9,9,4,8,40
1501876324805452,-7,-28,2,-4,13,9,2,-5
1501876324805452,9,-1,-26,-18,-25,-9,-1,7
1501876324817475,2,24,10,7,-2,-6,-2,14
1501876324817475,-7,-25,-8,-2,-4,5,4,-17
1501876324824453,2,0,0,-21,-6,-4,2,23
1501876324824453,3,16,8,10,4,2,-5,-16
1501876324841437,-9,-36,1,15,4,-5,-8,-3
1501876324841437,6,25,8,2,11,2,7,12
1501876324842418,7,-12,-11,-13,-27,-2,5,49
1501876324842418,-12,-21,-1,9,32,2,0,-3
1501876324863489,-1,9,3,-13,-13,-5,-3,-4
1501876324863489,-3,20,0,14,9,6,-3,-18
1501876324865418,5,-3,-10,-1,-7,2,3,1
1501876324865418,2,20,2,1,-4,-7,-6,-2
1501876324877479,3,-38,9,-2,-6,1,9,30
1501876324877479,-10,-11,4,10,-5,-1,-6,-23
1501876324884459,-1,13,-38,-37,-11,-9,-8,-37
1501876324884459,-4,-23,4,13,12,6,-3,4
1501876324901442,1,22,-6,-15,10,0,-1,3
1501876324901442,2,-2,8,-5,-15,-1,2,12
1501876324902421,-5,-6,9,15,2,-4,-1,-12
1501876324902421,8,13,-5,-7,-6,-3,8,28
1501876324923443,-13,-2,-10,-9,-20,-8,-14,-40
1501876324923443,4,0,6,23,50,5,-1,16
1501876324925422,-3,41,-1,-8,0,6,-6,-10
1501876324925422,1,-52,-3,0,-18,-8,-6,-35
1501876324937493,5,-5,11,-10,3,6,3,0
1501876324937493,-8,4,-2,1,-24,-7,-4,-8
1501876324944461,-11,-18,-9,-10,6,-6,-2,-15
1501876324944461,0,2,1,-1,10,6,3,27
1501876324961442,6,16,-1,-3,-1,-3,4,-16
1501876324961442,-9,-3,12,1,1,1,-15,-9
1501876324962424,9,9,8,16,22,7,14,28
1501876324962424,-13,-20,-30,-16,-22,-9,-14,-44
1501876324983471,-6,-1,7,1,5,-1,-3,17
1501876324983471,2,14,-8,-15,-6,-3,2,-16
1501876324985446,3,-3,7,10,-11,-7,4,36
1501876324985446,8,35,5,11,28,15,2,-36
1501876324997493,-9,-45,9,-11,10,5,-1,-11
1501876324997493,2,0,-29,-30,-18,-8,0,8
1501876325004424,-1,20,12,27,3,4,1,-29
1501876325004424,4,4,12,-13,-23,-7,6,47
1501876325021437,4,22,-3,8,-4,-6,-14,-23
1501876325021437,-5,-24,-2,-4,6,3,0,-33
1501876325022428,1,-8,7,5,-3,3,4,6
1501876325022428,-6,27,8,1,-7,-7,-6,5
1501876325043480,4,22,-9,-9,5,2,2,20
1501876325043480,8,-1,-4,17,16,-3,3,17
1501876325044458,-5,-14,5,-4,-6,2,2,8
1501876325044458,0,2,-9,-13,14,6,3,22
1501876325057537,-11,5,9,-3,1,-1,-8,-72
1501876325057537,1,-29,0,7,-23,-6,-1,6
1501876325064518,9,4,-11,-5,-7,-5,6,23
1501876325064518,-14,8,6,-12,13,1,-15,-29
1501876325080506,-4,-40,8,19,3,-7,1,21
1501876325080506,-3,69,0,-1,7,7,-3,-13
1501876325082481,5,-39,2,0,8,6,-2,-1
1501876325082481,0,-21,-17,1,-31,-10,2,32
1501876325103508,5,29,-16,-5,5,-1,1,-13
1501876325103508,5,16,14,10,-8,-8,4,31
1501876325105471,-17,-17,-12,-15,23,3,-17,-55
1501876325105471,-1,5,4,6,-4,1,4,-23
1501876325117511,-4,2,0,-1,-2,3,1,-3
1501876325117511,6,-10,0,8,-1,-2,7,25
1501876325126480,0,18,8,-7,-34,-3,-6,0
1501876325126480,3,-35,-16,-24,19,4,7,43
1501876325140545,-10,0,-13,4,0,-2,-7,-29
1501876325140545,3,-13,4,-28,-8,0,1,3
1501876325142482,-6,26,-12,4,4,-4,-2,-14
1501876325142482,5,-21,5,3,-8,-4,2,12
1501876325163516,0,12,12,3,-25,-4,5,22
1501876325163516,-5,-30,-6,5,-3,0,-4,3
1501876325169516,-2,35,-1,-17,24,-1,-2,-18
1501876325169516,2,-17,-14,4,-13,-8,-3,4
1501876325177518,3,0,-8,-8,12,7,4,14
1501876325177518,-4,5,3,10,-3,2,-3,-11
1501876325186487,-4,4,-2,-1,-10,-5,1,13
1501876325186487,10,27,22,7,-8,0,9,10
1501876325200509,-3,-4,-12,-11,3,-2,-7,-21
1501876325200509,-3,-11,-6,-6,-6,-5,-6,10
1501876325202483,6,2,-3,9,6,2,4,18
1501876325202483,-8,-17,-1,3,-1,-4,-5,-6
1501876325223515,0,-26,0,1,-14,-2,2,23
1501876325223515,7,5,2,4,18,3,1,-7
1501876325225478,-13,-6,-14,1,-2,-3,-9,-3
1501876325225478,-2,3,-2,3,-12,-5,-2,-27
1501876325237542,5,20,4,10,9,0,2,23
1501876325237542,-5,-4,-11,-26,-14,-4,0,5
1501876325246478,7,-32,8,21,-32,-2,-1,27
1501876325246478,-13,36,9,-6,36,1,-8,-34
1501876325260541,4,-16,-24,-6,3,6,-1,-7
1501876325260541,1,-8,4,-1,-7,-1,0,-6
1501876325262479,-2,-25,1,-2,1,-1,0,13
1501876325262479,2,10,-6,0,-16,-1,1,11
1501876325283491,1,10,4,0,-6,0,2,14
1501876325283491,5,5,13,-1,7,-8,-3,-3
1501876325285516,-9,-16,-18,-7,10,3,-4,-33
1501876325285516,6,7,9,11,1,6,-1,-5
1501876325306505,-2,-7,-6,-4,9,1,2,-3
1501876325306505,3,4,0,-10,-5,2,3,10
1501876325307515,3,28,16,13,-8,-4,5,-3
1501876325307515,1,-19,0,-14,13,-7,-13,-23
1501876325320521,-7,15,11,9,25,8,1,-1
1501876325320521,-2,-4,-16,6,-12,-5,-2,-3
1501876325322491,-1,-11,4,-7,12,1,9,25
1501876325322491,-2,17,-8,-2,-26,-1,-4,-7
1501876325343525,4,40,0,0,-17,-4,-8,-58
1501876325343525,-7,-64,-5,-6,15,1,-3,-12
1501876325345485,-4,1,1,4,7,1,-5,1
1501876325345485,-1,5,1,8,-5,2,9,-17
1501876325357519,0,4,9,-11,-17,-3,0,31
1501876325357519,-6,4,-1,-1,10,5,-3,4
1501876325366485,6,25,-2,-6,-5,-3,0,-37
1501876325366485,-1,-7,7,6,7,3,10,37
1501876325381513,-12,-47,-6,8,-24,-9,-14,-20
1501876325381513,-1,6,-1,-1,38,-1,-3,-14
1501876325382519,4,-1,-6,-6,-8,0,-4,24
1501876325382519,-3,5,3,7,2,-3,2,13
1501876325403532,2,-9,8,-11,5,4,6,2
1501876325403532,-12,20,-15,7,-22,0,-9,-67
1501876325405497,2,-8,4,1,15,-2,-1,14
1501876325405497,-1,1,-14,-16,-14,-4,-1,-19
1501876325417543,6,-2,0,14,2,-6,4,34
1501876325417543,7,20,9,2,-9,-3,3,30
1501876325426524,-6,-20,-1,-10,11,5,-3,-17
1501876325426524,-1,-5,-3,-3,-2,3,-1,3
1501876325448562,-5,-29,-4,-4,-6,-4,-3,12
1501876325448562,1,30,10,0,3,-7,6,17
1501876325450491,-6,-27,-2,5,-24,0,-7,-18
1501876325450491,-1,-3,-29,-14,16,-1,-11,-30
1501876325463529,2,6,0,-9,17,2,-2,17
1501876325463529,2,9,9,12,-10,5,-1,24
1501876325465489,-9,17,6,-6,3,-7,-2,-32
1501876325465489,2,14,17,10,-5,-3,1,8
1501876325477562,-4,-26,-18,-9,-10,-6,-3,-24
1501876325477562,11,7,-2,2,4,7,7,37
1501876325486493,-8,1,-3,-7,0,-5,-6,-29
1501876325486493,-6,-7,-5,-3,1,1,-6,2
1501876325500556,0,-7,-12,6,5,-1,2,-17
1501876325500556,-1,-13,11,3,-12,-6,8,51
1501876325502502,-2,12,2,-3,-11,-3,-9,-46
1501876325502502,5,-5,1,0,-2,1,-5,-47
1501876325523564,-3,-5,5,-1,19,5,0,4
1501876325523564,-5,-4,-9,-9,-21,-5,-4,-25
1501876325525497,5,-1,3,6,21,3,4,35
1501876325525497,-2,7,0,-1,-9,-1,1,9
1501876325545536,1,0,4,-1,-8,-1,-2,1
1501876325545536,-8,-14,-1,0,11,-3,-5,-30
1501876325547495,7,1,-3,-3,-9,1,5,36
1501876325547495,-2,12,8,10,1,0,5,29
1501876325560565,-2,-15,-17,-19,-10,-3,-3,14
1501876325560565,3,1,5,13,16,0,-2,-3
1501876325562496,-3,-15,-5,-6,2,4,1,2
1501876325562496,-5,6,4,7,7,1,-5,-31
1501876325583539,4,12,5,1,-7,-10,2,12
1501876325583539,-1,19,1,-7,-16,6,-5,-36
1501876325585501,1,-27,-11,-14,9,-4,1,21
1501876325585501,-2,-7,7,14,7,0,5,11
1501876325605505,1,23,1,12,-2,-2,0,-27
1501876325605505,2,-6,-7,-17,-5,-5,-4,17
1501876325607507,0,11,3,2,-13,-3,-1,8
1501876325607507,-5,-13,-7,-12,-11,-3,-3,0
1501876325621544,3,11,5,6,10,-2,2,15
1501876325621544,-2,-11,1,-1,-11,-1,3,-34
1501876325623534,0,10,-15,8,9,-1,-2,10
1501876325623534,3,-5,-4,-11,-8,1,0,40
1501876325643558,-12,6,-2,-4,2,-1,-13,-69
1501876325643558,1,2,-12,-2,-2,-3,-1,11
1501876325645503,0,-8,7,-1,1,3,2,-7
1501876325645503,-4,-24,-3,5,-12,-8,-3,0
1501876325665562,9,7,-1,-4,-5,5,6,41
1501876325665562,-6,-7,-2,5,18,0,-2,-19
1501876325667502,2,9,-7,-13,-12,-6,-2,3
1501876325667502,5,22,4,1,-17,0,9,39
1501876325681527,-1,-3,6,2,7,-1,-3,-32
1501876325681527,-14,-12,2,15,7,-1,-13,4
1501876325682504,1,-4,-3,-2,-7,1,-6,-39
1501876325682504,1,17,3,-8,8,0,-1,23
1501876325703549,2,-3,-4,-9,-25,-5,4,-4
1501876325703549,-10,-20,-4,7,23,4,-4,-5
1501876325705507,1,9,1,7,-19,-3,-4,-2
1501876325705507,0,-32,-11,-4,5,-6,-6,-13
1501876325726572,2,14,13,9,11,-1,4,26
1501876325726572,10,0,-7,-5,-11,10,9,-1
1501876325727520,3,-12,6,3,17,-1,7,71
1501876325727520,-10,9,-21,-31,-6,0,-5,-92
1501876325740576,-1,-13,-2,5,1,-3,-5,16
1501876325740576,4,-9,9,5,-14,-5,2,0
1501876325747543,-2,11,3,5,20,3,-1,1
1501876325747543,-6,-16,3,5,-4,-7,2,-3
1501876325763552,-2,27,4,6,1,7,-2,-13
1501876325763552,4,-5,-13,-6,-7,-1,4,-11
1501876325765510,-2,-10,0,-5,1,-2,1,7
1501876325765510,0,10,2,19,10,1,-4,22
1501876325785575,-9,-31,-12,-31,-21,-1,-1,-41
1501876325785575,7,6,-5,-10,0,-1,5,57
1501876325787511,-7,-8,0,9,1,-4,-6,-70
1501876325787511,4,4,0,-9,-19,-12,-8,4
1501876325800574,-2,-24,-4,1,37,11,6,47
1501876325800574,-11,3,8,2,-6,-2,-9,-28
1501876325807510,4,4,-8,-5,-9,-1,-2,-13
1501876325807510,-3,0,2,0,-4,-2,-2,-22
1501876325830559,1,13,6,11,8,-2,-2,2
1501876325830559,2,18,-4,-12,-12,-5,1,1
1501876325832525,0,-19,9,9,14,6,1,10
1501876325832525,5,13,-8,-6,-17,-6,-1,40
1501876325845584,-9,-25,-15,-11,0,4,-4,-49
1501876325845584,-8,-21,3,-1,2,-1,-2,-15
1501876325847525,1,33,3,-2,-20,-5,-4,-6
1501876325847525,1,-35,11,24,10,1,5,12
1501876325860585,1,11,-14,-26,-11,-4,-1,21
1501876325860585,-2,-4,-8,-13,-9,-7,-5,-21
1501876325867514,-6,-9,-3,-8,-10,-4,-1,-2
1501876325867514,6,16,-1,10,14,5,5,38
1501876325883577,3,-8,3,6,1,-2,4,10
1501876325883577,-9,-3,7,-3,-9,-6,-15,-53
1501876325885515,0,9,-6,-7,8,4,2,14
1501876325885515,-3,-9,11,7,11,4,3,-51
1501876325905555,-2,-12,8,5,-21,-5,3,51
1501876325905555,2,4,-21,-14,8,1,-2,7
1501876325907516,7,5,-6,-5,-1,-11,6,34
1501876325907516,1,23,5,-3,2,6,-7,-15
1501876325920587,-3,-32,-3,3,-6,-7,-9,-7
1501876325920587,0,7,9,-7,-11,4,11,25
1501876325927534,-12,-10,-11,1,-13,-3,-10,-53
1501876325927534,-4,-25,-3,-12,17,2,-1,4
1501876325944525,9,25,7,5,-6,-7,3,10
1501876325944525,1,1,-10,-1,13,1,2,20
1501876325945529,6,13,14,-1,-15,-2,5,32
1501876325945529,-6,-1,1,6,11,3,-3,-27
1501876325965580,-4,-3,-1,4,-18,-1,-4,-29
1501876325965580,0,-3,-9,10,24,-2,1,42
1501876325967553,5,19,0,-14,-20,-4,0,-12
1501876325967553,4,-17,-3,-1,9,4,4,19
1501876325980587,-3,17,3,-1,0,4,1,-10
1501876325980587,6,-2,-2,-8,-12,-3,3,26
1501876325987538,-7,-13,4,7,3,1,0,-4
1501876325987538,-3,9,1,-10,-14,-9,-4,6
1501876326003585,-1,-2,-14,1,1,0,-3,5
1501876326003585,1,-19,6,3,1,-1,1,-18
1501876326004536,0,17,0,5,5,2,-3,-7
1501876326004536,-3,-15,5,-6,2,0,3,-3
1501876326025563,-9,12,1,6,13,7,-2,-28
1501876326025563,5,14,18,14,-21,-5,4,45
1501876326027533,-2,-3,-13,-14,4,-2,-6,12
1501876326027533,-5,-4,-2,10,-15,-4,-1,-53
1501876326039590,6,-4,-7,-19,23,0,1,28
1501876326039590,1,11,13,10,-8,2,-6,-58
1501876326048525,-1,-24,-5,4,-11,1,2,24
1501876326048525,-2,-12,-27,-21,-10,-7,-1,-3
1501876326063569,-1,19,5,2,-4,-6,0,-1
1501876326063569,-3,-1,3,0,-6,-1,-1,3
1501876326065530,-4,-24,3,19,33,12,2,-8
1501876326065530,5,14,-12,-28,-14,0,0,15
1501876326085601,-2,-9,6,6,-7,-3,-2,11
1501876326085601,1,13,-8,-7,4,-7,-4,-12
1501876326087526,-1,-6,15,12,-8,-6,-2,4
1501876326087526,-7,-4,-12,2,-2,0,-2,19
1501876326099526,4,21,9,5,3,-3,-1,19
1501876326099526,0,25,-5,1,17,4,2,-45
1501876326108529,1,-20,-9,-10,6,-2,-3,-26
1501876326108529,-5,2,11,4,-2,3,-8,0
1501876326123604,-4,-19,1,4,-6,0,1,-11
1501876326123604,-3,-2,-19,5,-12,-7,-2,28
1501876326125530,-1,23,-4,-28,5,6,-1,-41
1501876326125530,4,13,7,1,4,-3,3,-9
1501876326145596,-1,-10,1,11,5,-3,-12,-37
1501876326145596,-4,8,6,-13,3,5,2,10
1501876326147542,-1,-22,-12,-4,4,-1,3,21
1501876326147542,-6,9,8,7,-6,-2,-3,-1
1501876326159551,3,14,3,1,0,-3,0,4
1501876326159551,-4,-30,7,9,-5,-5,-8,-17
1501876326168548,-2,1,-19,-18,-19,1,4,32
1501876326168548,-1,-6,-10,1,14,4,2,4
1501876326183555,-2,-6,-3,1,-4,-2,1,-18
1501876326183555,2,6,3,-8,-14,-7,-3,25
1501876326185533,2,24,17,21,34,-5,-3,2
1501876326185533,2,4,1,-8,-11,6,8,48
1501876326205598,-2,2,-9,-8,-4,-1,0,-37
1501876326205598,4,-15,-6,-1,-6,-2,-1,-16
1501876326207570,-6,-8,4,-4,-37,-6,3,2
1501876326207570,-1,5,8,4,29,-7,-13,-4
1501876326228575,-3,-28,-9,0,2,4,6,16
1501876326228575,-3,-5,3,-9,-4,1,-7,-3
1501876326229535,5,7,0,15,0,-2,0,9
1501876326229535,-2,-6,-1,-15,-12,-7,2,15
1501876326243579,3,8,1,-6,-12,8,3,23
1501876326243579,-4,-1,-2,9,18,0,-5,-15
1501876326245538,-7,-4,-3,-3,-14,-4,-2,-3
1501876326245538,9,-1,-2,11,10,-3,2,27
1501876326265598,-18,-13,-5,-8,1,-4,-5,-40
1501876326265598,1,18,-1,1,-2,3,-1,4
1501876326267549,1,0,-6,-5,-9,-3,-8,-24
1501876326267549,2,14,10,9,10,9,3,-4
1501876326279581,0,-39,5,2,-2,-4,-1,14
1501876326279581,0,-3,-17,-9,0,-1,9,45
1501876326288539,-2,-12,-6,-13,-18,-8,-7,-39
1501876326288539,-7,0,-3,17,14,2,-12,-25
1501876326303563,6,30,10,-9,5,9,4,12
1501876326303563,-4,-13,1,1,0,-3,0,-22
1501876326305540,6,0,0,5,-1,2,3,38
1501876326305540,-9,-5,-8,-7,-13,-8,-2,-36
1501876326325601,3,15,-1,2,-6,-2,0,12
1501876326325601,-5,-3,5,0,4,-3,-1,12
1501876326327541,-3,-12,-6,4,-1,0,-5,-29
1501876326327541,-2,4,11,-5,7,5,-4,-3
1501876326339582,2,-4,-13,13,-17,-8,-1,23
1501876326339582,-1,-8,-6,-33,7,7,3,-8
1501876326348554,-3,4,4,2,10,3,0,4
1501876326348554,-5,-6,14,3,-16,-10,0,-16
1501876326363580,13,21,-13,-6,3,1,4,12
1501876326363580,0,-5,3,9,5,-3,-2,22
1501876326364544,-5,-11,1,7,15,1,0,-3
1501876326364544,8,4,-2,-7,-21,0,10,58
1501876326385585,-7,11,2,1,2,-3,-6,-45
1501876326385585,0,-18,-10,-4,-8,-1,-8,-26
1501876326387545,-4,5,1,2,22,3,-3,-23
1501876326387545,1,14,-2,0,-17,-5,-4,19
1501876326399583,-2,-7,-3,-4,-3,-7,-2,-15
1501876326399583,-5,-31,-4,8,23,5,1,-5
1501876326408559,2,5,-6,-3,-9,-8,-2,17
1501876326408559,0,-16,-6,-7,-4,4,5,-2
1501876326423559,-8,-5,7,-1,3,3,-2,-3
1501876326423559,3,14,2,1,-8,-5,-3,1
1501876326425546,12,-3,4,9,-2,0,9,44
1501876326425546,-4,-12,-4,-9,2,-3,-7,-21
1501876326445586,2,5,0,-4,3,4,0,14
1501876326445586,-4,-9,2,6,-15,0,-3,-29
1501876326447583,3,19,1,-5,15,-3,-1,-16
1501876326447583,-4,-1,-4,-4,-17,-4,1,41
1501876326459591,-6,-21,6,12,4,-1,-9,-37
1501876326459591,1,17,-4,-10,-8,1,-1,-3
1501876326468548,-4,-9,-6,-10,-1,0,1,14
1501876326468548,-1,10,2,5,-1,-3,0,-37
1501876326483590,6,10,-4,-5,-11,0,6,15
1501876326483590,0,18,4,10,14,-5,-3,0
1501876326485553,-2,13,6,-1,-15,-3,-5,-14
1501876326485553,2,-14,-2,10,21,4,6,10
1501876326505591,-7,-20,-15,-27,-7,0,0,11
1501876326505591,-5,-7,8,-2,-18,-3,1,-36
1501876326507563,1,16,-2,4,-12,-1,0,16
1501876326507563,-2,3,5,5,15,-5,-8,-25
1501876326528555,2,-2,1,7,-2,-5,-8,19
1501876326528555,-4,-6,-2,6,4,3,-1,-15
1501876326529555,-2,-1,-3,-6,10,5,4,-2
1501876326529555,4,-19,-4,4,-14,2,7,18
1501876326543615,-4,-2,2,3,10,-3,-5,-6
1501876326543615,7,25,-1,-9,-9,0,-3,29
1501876326545565,-8,-4,0,4,4,-2,-4,-12
1501876326545565,1,-24,1,14,-8,-5,3,53
1501876326565625,-8,-5,-4,0,-8,6,-4,-44
1501876326565625,-1,0,-5,-25,16,0,-2,7
1501876326567557,5,32,7,-1,-2,-1,-1,-5
1501876326567557,0,7,-9,-6,-6,0,-1,3
1501876326588622,0,-24,-2,5,6,-4,5,27
1501876326588622,-2,-5,0,14,0,-3,0,-3
1501876326589556,-4,-11,-3,-3,3,0,-4,5
1501876326589556,6,11,9,2,3,8,10,-4
1501876326602624,-18,-4,-12,-8,-2,-7,-25,-66
1501876326602624,1,-3,3,11,-22,-5,-2,-1
1501876326609559,0,7,-6,-11,25,4,-1,2
1501876326609559,-4,-23,-3,3,-7,-1,-4,-18
1501876326625572,0,9,7,-4,-13,-3,10,33
1501876326625572,-3,-12,-4,-7,1,-11,0,22
1501876326627563,0,18,7,8,-13,6,-2,-49
1501876326627563,-1,-10,-4,-11,9,0,-2,14
1501876326648560,5,-5,-5,7,6,1,5,20
1501876326648560,-5,-16,6,2,-2,-4,-1,-15
1501876326650561,6,11,0,-8,-10,-6,7,48
1501876326650561,-13,-16,-14,-11,7,1,-11,-51
1501876326662625,1,9,11,6,0,0,2,-5
1501876326662625,5,7,0,3,11,2,2,31
1501876326669603,1,-11,0,3,-9,-2,5,-1
1501876326669603,-5,7,0,-2,-8,1,-7,-13
1501876326685629,2,0,-4,-1,8,-1,3,12
1501876326685629,2,12,0,5,1,2,1,-19
1501876326687562,-6,-19,1,-2,4,-2,-5,3
1501876326687562,6,15,3,-12,-5,-1,-1,2
1501876326708603,1,1,-4,0,-6,-4,3,9
1501876326708603,1,-4,-1,-6,-3,1,-3,19
1501876326709576,-1,-21,11,13,-24,-3,-2,7
1501876326709576,-4,10,-24,-10,1,1,4,-27
1501876326722608,3,-2,-6,-8,30,0,-5,41
1501876326722608,3,16,9,2,-10,3,1,-22
1501876326729565,-5,-13,-8,-14,-5,-4,-7,-15
1501876326729565,-2,4,8,2,-5,-2,-4,-6
1501876326745607,3,6,-9,5,-13,-6,3,12
1501876326745607,-1,-1,-9,2,9,4,6,23
1501876326747601,-11,-25,0,-3,-5,-2,-11,-61
1501876326747601,0,-4,2,6,7,-7,-3,-5
1501876326768587,-1,17,3,-16,-15,3,-1,-19
1501876326768587,1,8,1,7,11,-4,4,26
1501876326769568,-2,-7,-7,-3,-3,0,-3,8
1501876326769568,2,32,6,6,-5,-1,-1,-11
1501876326782616,3,-22,5,3,17,3,0,7
1501876326782616,-9,-16,-8,-7,-16,-3,-4,-34
1501876326789610,3,3,-5,-4,0,2,7,30
1501876326789610,0,5,2,-1,0,-2,-3,15
1501876326805602,-2,12,8,6,1,-4,-3,-16
1501876326805602,-3,-15,-2,-9,-6,2,2,-14
1501876326807571,-3,7,2,3,9,0,-5,-14
1501876326807571,0,-10,-10,-1,-13,-3,-1,10
1501876326828626,1,1,0,-5,-3,0,0,14
1501876326828626,-2,1,3,8,4,1,-1,-20
1501876326829587,1,-6,2,-4,12,-3,0,8
1501876326829587,-8,-6,-3,-4,-6,-1,-3,5
1501876326842637,-2,-10,-2,-1,-7,-3,-1,9
1501876326842637,-4,5,-4,-5,-9,-1,-4,-18
1501876326849572,2,5,0,13,9,0,-2,16
1501876326849572,10,16,6,-19,2,0,6,24
1501876326865640,-14,-3,-7,7,12,1,-4,-38
1501876326865640,1,2,2,0,0,3,1,11
1501876326867583,-1,-6,-2,-3,-8,-4,6,12
1501876326867583,-5,-12,-12,-3,-8,-6,-9,-22
1501876326888615,8,8,2,3,-23,1,-1,5
1501876326888615,-6,-18,-1,5,33,-3,-5,-8
1501876326889574,1,-6,-1,-2,-6,1,4,23
1501876326889574,-3,0,1,6,9,2,-3,8
1501876326902641,5,18,3,-9,-3,-2,2,3
1501876326902641,-5,-38,-6,4,4,3,-1,-11
1501876326909614,1,2,-4,-5,-8,-4,2,2
1501876326909614,5,-1,9,7,0,1,2,37
1501876326925612,-7,-17,-8,-2,-7,-7,-8,-54
1501876326925612,5,21,2,-9,-17,-1,1,19
1501876326927576,-5,0,-9,-9,11,2,-3,-19
1501876326927576,-4,-13,-2,0,-9,-5,-2,-2
1501876326948641,-1,15,9,2,7,-2,0,18
1501876326948641,4,15,-2,-2,-10,-3,2,5
1501876326950586,-1,-6,2,1,-1,-1,2,-4
1501876326950586,-3,-25,-10,1,-2,-2,0,-14
1501876326962578,4,7,-4,-5,13,-1,-5,4
1501876326962578,-2,-8,4,-1,-12,-6,-7,-28
1501876326969620,-2,-1,-12,-4,-7,4,-3,-4
1501876326969620,2,36,5,-1,9,0,-1,4
1501876326985641,-9,-48,-9,-3,-12,-3,0,-15
1501876326985641,1,8,2,3,-4,-1,-1,27
1501876326987615,-4,11,3,1,2,0,-3,-37
1501876326987615,0,-11,-1,4,8,4,3,-12
1501876327008580,-7,-1,1,4,3,-4,-2,-1
1501876327008580,2,12,0,-4,-5,-1,-3,-3
1501876327009581,1,1,-6,-6,-18,-1,7,22
1501876327009581,-5,-36,-7,-1,13,-1,-17,-35
1501876327022600,2,19,8,8,2,4,3,15
1501876327022600,-6,-20,-7,-12,-10,-5,-6,-14
1501876327031583,4,7,4,4,7,5,1,8
1501876327031583,-1,-9,-1,-3,-2,-6,1,-1
1501876327045645,-5,-5,-3,0,2,3,1,-20
1501876327045645,2,13,-4,7,3,0,1,27
1501876327047593,2,-5,0,-8,-5,-3,-3,-14
1501876327047593,-1,11,11,0,-3,-10,-5,-7
1501876327068627,-4,-27,-17,-9,-6,6,-5,-24
1501876327068627,0,3,6,-1,1,-4,0,-3
1501876327069583,0,-8,-4,7,4,2,5,51
1501876327069583,-7,12,3,-5,-8,0,-5,-62
1501876327082606,6,3,6,1,12,-1,-1,14
1501876327082606,-2,0,-5,1,-4,0,-1,-3
1501876327090625,-2,1,3,0,0,-1,-3,-12
1501876327090625,3,16,-7,-11,0,-1,2,29
1501876327105647,2,17,4,2,-6,0,5,30
1501876327105647,-2,-10,-2,1,-3,-2,-2,-8
1501876327107597,1,6,3,12,18,5,1,16
1501876327107597,-1,-8,-1,-4,-13,1,6,5
1501876327128649,-2,19,-4,-12,-6,-3,-3,-15
1501876327128649,1,-8,7,0,-2,-4,1,11
1501876327129595,-4,5,-7,-1,-5,-6,-6,-15
1501876327129595,1,4,-1,4,11,6,4,16
1501876327142608,-2,-5,0,3,1,-1,-3,4
1501876327142608,-4,-4,-7,-4,-1,-2,0,-7
1501876327150658,2,2,3,-4,-4,-1,0,2
1501876327150658,2,0,-2,1,-11,-2,1,-11
1501876327165630,2,-9,-1,-3,2,3,0,19
1501876327165630,0,4,1,3,3,3,3,-18
1501876327167600,-6,-17,-4,-6,-4,-5,-4,-12
1501876327167600,0,-6,1,3,2,0,6,31
1501876327188656,-3,0,-3,-1,-2,-4,-2,-30
1501876327188656,-7,5,2,-1,3,0,-6,-23
1501876327189591,3,4,1,-3,-5,0,-3,28
1501876327189591,-7,-11,-6,0,13,0,-3,-38
