timestamp,emg1,emg2,emg3,emg4,emg5,emg6,emg7,emg8
1501876360700300,7,4,19,25,3,9,12,26
1501876360700300,-1,-30,-19,-27,-27,-17,-17,34
1501876360701278,2,16,34,15,12,10,10,17
1501876360701278,0,-31,-20,-11,-18,-9,6,54
1501876360702276,-9,33,17,10,7,2,0,-46
1501876360702276,3,6,1,14,-1,10,15,8
1501876360705298,0,-6,-1,34,3,-5,-19,34
1501876360705298,19,53,-29,-60,-18,-6,-4,-32
1501876360712289,-23,-38,0,-25,-24,-3,-5,-5
1501876360712289,-8,-37,34,56,56,8,6,-20
1501876360721322,12,62,-23,-26,14,-7,0,3
1501876360721322,-4,-4,5,-33,-8,7,4,39
1501876360727330,8,6,8,9,-9,-4,-4,-2
1501876360727330,-7,24,-3,10,-14,-6,-3,15
1501876360742341,-10,-30,-62,-87,-33,-5,0,-46
1501876360742341,1,-12,16,68,23,-1,-4,3
1501876360750303,-6,-39,-1,-51,-14,-4,3,42
1501876360750303,22,41,43,71,-1,-1,3,6
1501876360765307,-7,-44,-55,-18,35,8,3,-13
1501876360765307,-23,-11,20,0,-16,-3,-10,-33
1501876360773281,20,41,-15,31,-4,1,1,52
1501876360773281,-3,0,-25,-57,-6,-3,6,44
1501876360787308,-1,31,42,27,-9,2,-9,-21
1501876360787308,3,13,25,-1,11,-8,-6,0
1501876360828286,6,34,-8,-11,30,3,8,40
1501876360828286,-15,-3,9,84,-73,-12,-9,-22
1501876360829321,11,32,-2,-58,83,7,1,12
1501876360829321,-7,-87,-46,-23,-6,3,-2,2
1501876360832354,-3,3,33,70,-4,-1,-4,27
1501876360832354,0,21,5,-77,-1,-6,4,21
1501876360833324,-16,-28,-42,61,-38,-6,-10,-57
1501876360833324,1,72,26,17,13,-4,4,4
1501876360840331,-3,-30,-6,16,-6,2,-5,-14
1501876360840331,8,29,23,28,5,-1,12,46
1501876360846329,0,-2,-7,-78,-23,1,13,10
1501876360846329,3,81,29,8,22,2,-15,-27
1501876360854339,2,-57,-50,-39,-56,-10,-7,-23
1501876360854339,-17,-22,9,-8,42,-2,-13,-37
1501876360869330,25,30,-4,-63,-13,-3,4,47
1501876360869330,-23,-1,-18,-11,-4,5,-1,-3
1501876360876356,16,9,19,7,6,-10,0,9
1501876360876356,20,64,-15,-14,5,7,3,63
1501876360900291,-27,-30,3,-22,-22,-2,9,-37
1501876360900291,13,-28,11,19,-28,-11,-10,-52
1501876360901301,3,11,22,31,34,7,-8,-20
1501876360901301,2,17,-51,-74,-2,2,8,12
1501876360915307,-2,40,20,31,-3,-4,-5,29
1501876360915307,3,4,18,30,-21,1,1,37
1501876360915307,9,41,-15,-56,-6,-2,3,-22
1501876360915307,-5,-62,16,70,45,-3,-6,-25
1501876360937355,2,3,20,69,2,7,-8,-5
1501876360937355,-6,-46,-6,4,6,-2,2,-5
1501876360938330,7,37,-19,-15,1,-3,2,27
1501876360938330,-11,36,44,38,10,2,-5,-34
1501876360960335,-7,-95,-42,-7,-21,1,1,20
1501876360960335,-3,-35,-4,-52,-6,-4,7,36
1501876360961293,-10,3,-9,-6,2,4,-2,0
1501876360961293,-10,-54,-4,35,-1,-8,-3,-3
1501876360975317,2,3,2,42,13,-5,0,28
1501876360975317,-4,22,29,9,-16,-2,-7,-37
1501876360975317,-15,25,-48,-101,24,2,-5,-87
1501876360975317,3,-17,14,61,-13,5,7,-2
1501876360997353,2,23,-2,-68,-3,2,-4,-3
1501876360997353,35,97,-1,-14,-34,-7,22,71
1501876360998333,-43,-123,20,30,-2,-17,-27,-53
1501876360998333,0,15,-58,-27,28,11,-6,-20
1501876361020336,-1,39,23,32,-8,-1,2,-26
1501876361020336,2,-20,-2,37,29,-6,-1,17
1501876361021320,13,89,15,10,-18,10,17,21
1501876361021320,6,-36,8,-3,-20,3,0,1
1501876361035321,-11,-22,-1,67,37,-7,-7,17
1501876361035321,-15,-59,-30,-116,-18,7,-3,-38
1501876361035321,7,-17,33,45,4,7,8,60
1501876361035321,-14,-32,-30,-63,2,-7,10,-44
1501876361057366,26,36,13,36,-22,0,-3,29
1501876361057366,-15,-13,3,20,19,-9,-16,-46
1501876361058311,-1,-1,-59,-44,-11,1,2,3
1501876361058311,21,30,18,11,-11,2,5,29
1501876361080340,-9,31,11,-8,15,-5,2,-25
1501876361080340,9,71,7,38,-10,2,-4,3
1501876361081300,8,26,7,33,-1,-1,11,40
1501876361081300,-20,-5,2,-23,17,4,1,1
1501876361095324,28,58,13,-10,18,-4,-4,12
1501876361095324,-11,-19,-2,31,-11,10,2,5
1501876361095324,-2,-11,6,-32,3,-4,6,20
1501876361095324,-8,-36,-14,-4,-37,-7,-10,-55
1501876361117307,3,-23,31,16,15,6,9,23
1501876361117307,2,78,0,-1,32,-1,-2,-36
1501876361118312,4,-39,-3,-48,-23,-10,-10,14
1501876361118312,-7,5,-4,-48,13,9,0,33
1501876361140336,-2,-15,7,39,-10,0,-2,-8
1501876361140336,10,-20,-4,56,22,11,6,8
1501876361141318,3,17,1,12,-22,-16,-7,-9
1501876361141318,-7,-25,10,-30,10,-6,6,71
1501876361155315,-9,13,-10,45,-6,-3,-16,-48
1501876361155315,-1,-60,-2,-84,7,10,0,10
1501876361155315,-12,35,-4,56,4,1,4,-7
1501876361155315,21,53,-6,-21,-15,-4,-3,-1
1501876361177376,-22,-92,-1,2,-13,-5,1,-6
1501876361177376,5,18,22,6,-49,-19,-2,40
1501876361178318,-4,-28,-27,-22,80,20,-6,-40
1501876361178318,-3,-25,-13,-10,-35,-11,-4,-52
1501876361200325,-2,-12,-22,-28,2,11,2,23
1501876361200325,10,20,2,-6,-16,-7,4,84
1501876361201316,-16,-32,5,-57,-18,-2,-6,-46
1501876361201316,3,37,33,76,2,-2,0,0
1501876361215319,-3,2,-28,-50,-4,-3,-8,6
1501876361215319,-10,2,-7,5,-4,3,-1,-31
1501876361215319,8,12,36,19,6,3,2,-18
1501876361215319,-6,-67,-58,-16,-18,-6,-4,-27
1501876361237349,1,53,21,-14,-15,-2,1,3
1501876361237349,-14,-16,-16,4,49,-7,9,35
1501876361238311,11,61,13,42,-43,-9,-23,-85
1501876361238311,3,-19,20,-2,49,18,-2,3
1501876361260323,-4,16,-36,21,7,-5,-3,-16
1501876361260323,2,-53,-9,-45,0,-1,9,-2
1501876361261311,-10,-26,8,18,-16,-3,1,17
1501876361261311,-1,13,15,-11,-21,3,4,17
1501876361274349,3,-15,-32,-74,-11,-7,-5,45
1501876361274349,18,70,11,16,34,3,-6,-33
1501876361282377,0,2,-5,11,12,5,8,27
1501876361282377,-1,66,-3,1,-29,-5,0,16
1501876361297350,-3,-20,5,15,15,-2,6,-7
1501876361297350,1,2,6,10,-21,5,-2,7
1501876361298325,-10,1,-8,19,42,1,5,7
1501876361298325,0,-14,-22,-4,-6,-6,-9,-21
1501876361320355,8,1,2,0,-19,0,3,15
1501876361320355,-8,0,-8,30,4,-5,-6,-13
1501876361321315,4,1,6,22,-30,-10,7,47
1501876361321315,1,23,11,12,20,7,-6,-6
1501876361334380,-1,7,3,8,2,-11,-5,-39
1501876361334380,-10,-14,-22,8,-10,13,-8,-25
1501876361342355,-15,-50,14,-40,-63,3,9,-8
1501876361342355,22,77,22,22,50,-11,-8,19
1501876361357323,-18,-48,-22,-10,-35,1,7,-3
1501876361357323,9,28,-19,22,34,-3,-7,2
1501876361358327,-18,-15,-7,0,-7,-1,0,-5
1501876361358327,-10,7,16,-20,-32,-8,-6,-25
1501876361380359,13,7,35,46,21,-1,-2,-34
1501876361380359,-1,-31,-16,10,-3,5,8,52
1501876361381319,1,45,13,-30,15,9,1,-9
1501876361381319,10,-28,-15,18,-30,-8,-6,-1
1501876361394381,-7,18,22,-2,37,-1,4,24
1501876361394381,-7,25,-21,8,4,3,0,-20
1501876361402388,13,-39,-17,-22,-14,-14,-5,69
1501876361402388,-5,19,14,2,20,13,-1,-37
1501876361417344,-1,-9,-22,33,-22,-7,-5,6
1501876361417344,8,-14,10,-66,1,2,8,18
1501876361418333,-10,21,2,45,17,-3,-10,-15
1501876361418333,-6,-5,-37,-37,-31,-5,3,6
1501876361440360,7,-11,3,-35,-1,6,7,34
1501876361440360,-24,-46,9,37,0,-3,-14,-86
1501876361441335,16,16,8,-33,24,0,-1,20
1501876361441335,9,13,2,9,-7,-3,9,38
1501876361454392,-11,-59,4,24,7,1,-16,-38
1501876361454392,-7,14,-9,-81,-25,-7,4,-45
1501876361462368,6,-25,8,37,0,6,-2,17
1501876361462368,-13,3,2,-2,-21,-2,0,-7
1501876361477388,7,69,20,-29,8,4,6,31
1501876361477388,15,21,-4,75,28,-3,3,-6
1501876361478335,-26,2,-27,-75,-9,3,-21,-93
1501876361478335,-5,-35,-4,23,16,-2,3,9
1501876361500325,-10,-14,-32,-65,-39,-2,1,3
1501876361500325,8,-22,29,14,-11,-18,-5,23
1501876361500325,-13,34,-1,57,36,1,9,15
1501876361500325,4,14,-8,-41,25,-5,-12,-11
1501876361514397,-2,-67,0,-6,-65,2,-6,-59
1501876361514397,-14,4,-4,17,67,8,0,59
1501876361522335,25,-7,6,20,-3,-4,6,37
1501876361522335,-12,-9,1,61,8,0,-4,-27
1501876361537359,-2,35,15,-51,-10,-2,-1,-11
1501876361537359,8,8,10,-34,-21,-6,-1,2
1501876361538328,5,5,-8,14,-10,4,2,52
1501876361538328,-3,-20,7,-18,-17,-1,6,33
1501876361560339,-3,53,-5,62,28,-8,-6,-32
1501876361560339,-4,-5,10,-29,-19,4,-6,-39
1501876361560339,26,74,37,1,-22,2,15,56
1501876361560339,-4,-19,-50,10,60,8,-11,-42
1501876361574329,-4,53,12,-32,-35,2,-3,-16
1501876361574329,-8,-58,22,67,17,-1,1,5
1501876361582396,-14,-48,-42,-57,-20,-14,1,2
1501876361582396,13,32,11,-22,-67,-2,4,27
1501876361597330,6,-14,12,41,33,3,15,34
1501876361597330,-20,-39,-37,-14,7,-1,-16,-17
1501876361598332,-6,-15,14,82,-1,1,-7,-79
1501876361598332,15,-1,-1,-18,22,8,11,52
1501876361620342,-11,-22,5,37,15,-12,-10,20
1501876361620342,0,12,18,-32,-41,-1,-2,-45
1501876361620342,-17,36,-6,22,-1,-2,-4,-28
1501876361620342,-1,-77,-29,-35,-53,-9,-5,-6
1501876361634333,4,19,2,23,34,5,9,17
1501876361634333,9,6,-2,-2,-14,8,19,87
1501876361642366,-13,-8,-7,-33,30,-16,-24,-81
1501876361642366,-11,6,41,87,12,11,-3,-14
1501876361657333,10,-10,-9,-112,-25,1,4,30
1501876361657333,1,-4,-51,18,2,3,-7,-38
1501876361658335,9,-40,1,-28,-17,0,11,42
1501876361658335,-10,-6,13,11,-24,-10,-8,-4
1501876361680352,12,29,10,28,-1,-12,-11,-39
1501876361680352,-15,-29,-10,-27,6,10,7,-13
1501876361680352,9,17,-6,2,16,3,0,37
1501876361680352,-15,-46,-23,-47,-17,-11,-5,-7
1501876361703407,4,-8,8,55,-3,1,1,29
1501876361703407,-8,19,-5,-14,-2,-11,-7,-11
1501876361704349,6,20,13,1,6,3,-5,-14
1501876361704349,15,49,41,30,11,3,2,21
1501876361717382,-6,-16,-47,-22,2,2,5,-21
1501876361717382,17,-28,0,71,-16,4,12,70
1501876361718349,-17,-43,-2,-54,-27,-2,-14,-53
1501876361718349,-8,73,8,16,39,-5,-14,-48
1501876361740338,-10,-39,5,25,-3,4,-6,-32
1501876361740338,7,-23,1,-9,-19,-11,6,31
1501876361740338,6,26,11,9,5,7,7,14
1501876361740338,-6,0,6,-16,-4,4,-5,3
1501876361763385,13,49,24,35,29,3,-3,-27
1501876361763385,-15,-41,-82,-87,-15,-3,-8,3
1501876361763385,9,5,28,64,44,1,8,7
1501876361763385,3,41,-13,-63,-12,-7,5,5
1501876361777381,6,-5,22,22,23,15,6,7
1501876361777381,-3,18,4,-25,-19,-8,-4,42
1501876361778373,9,2,-13,-6,1,-6,0,5
1501876361778373,-10,-52,-8,7,-37,-4,-2,-46
1501876361799407,-4,11,15,-2,64,3,-3,35
1501876361799407,13,65,3,37,-23,-3,-8,-4
1501876361808354,-11,-17,-15,-38,-18,8,11,35
1501876361808354,0,-16,22,16,0,0,4,-4
1501876361823412,6,-48,-50,-23,-17,-9,-5,21
1501876361823412,-9,76,49,9,-12,-2,-6,-66
1501876361824344,1,-90,-11,42,4,0,2,48
1501876361824344,-2,1,-19,12,-25,-6,4,48
1501876361845402,-16,4,19,17,44,11,5,-43
1501876361845402,11,13,-26,-77,-2,-2,-7,-14
1501876361847360,8,9,-5,22,-3,-5,-9,-21
1501876361847360,-16,-12,12,3,2,2,3,7
1501876361859386,-4,-27,-8,-19,-22,0,4,34
1501876361859386,5,-7,18,50,13,-1,-5,-22
1501876361868379,13,38,2,-37,-11,-3,5,23
1501876361868379,0,-9,13,12,-1,-5,-2,-20
1501876361883419,-8,-5,-50,-61,19,-11,0,28
1501876361883419,-6,-18,8,-2,10,9,-3,-9
1501876361884361,-3,-18,-10,1,-29,-15,-5,-17
1501876361884361,5,51,20,18,44,17,2,-3
1501876361905410,-12,-31,-5,22,-51,-11,-7,-5
1501876361905410,-13,-5,6,-18,39,-6,-2,-6
1501876361907348,-12,-17,-2,30,8,-3,-10,-58
1501876361907348,19,37,-15,-4,-2,4,6,44
1501876361919408,-5,-35,4,-15,-17,0,0,-9
1501876361919408,-4,-28,-9,2,-24,-8,2,-23
1501876361934389,-5,36,7,-4,18,15,3,51
1501876361934389,6,12,-12,-40,61,0,2,5
1501876361943429,10,17,15,-5,-27,-2,1,-7
1501876361943429,-2,-1,-14,17,-26,-6,-8,-24
1501876361944350,-15,-9,1,-8,-26,-14,-13,-38
1501876361944350,-5,-29,5,10,9,7,4,-4
1501876361965393,13,17,2,-12,-7,3,1,24
1501876361965393,-1,-9,-14,61,-10,-7,2,15
1501876361967359,0,20,10,-17,-4,-3,1,5
1501876361967359,-3,-39,-8,34,44,18,1,-3
1501876361979417,9,62,-11,-68,-13,-5,2,23
1501876361979417,-7,-2,21,35,-21,1,-7,-23
1501876361988365,1,-5,-14,6,7,6,10,-5
1501876361988365,2,36,13,-44,9,1,-10,1
1501876362003426,-21,-49,-6,31,-34,-13,-17,-61
1501876362003426,13,25,15,34,-7,11,13,7
1501876362004357,-6,-64,-17,11,57,3,-4,30
1501876362004357,-7,-18,-6,-6,-44,-13,-5,-16
1501876362025419,6,19,27,29,43,11,5,-19
1501876362025419,1,-54,-16,-40,-13,-15,-3,55
1501876362027382,-6,32,28,18,4,4,-6,5
1501876362027382,6,7,-14,-18,0,-2,5,28
1501876362039369,-16,-31,-14,36,-29,-6,-9,-14
1501876362039369,-4,34,39,27,57,-4,4,-18
1501876362048366,30,94,5,-29,5,10,15,31
1501876362048366,-10,-53,-2,-1,-22,-11,-5,-14
1501876362063424,5,26,-4,18,-1,10,-2,24
1501876362063424,-5,10,-24,-45,19,-1,-6,-15
1501876362064363,-15,-37,-22,-35,-29,-11,-8,-45
1501876362064363,19,18,11,12,15,2,10,43
1501876362085421,-4,26,-14,-9,-14,-3,3,-12
1501876362085421,-3,-81,-3,34,8,-4,-8,14
1501876362087368,-3,3,11,-18,-12,-2,2,2
1501876362087368,14,31,13,26,-7,8,19,58
1501876362099430,-9,-23,-21,-22,19,-2,-19,-74
1501876362099430,10,14,2,-56,-20,7,2,3
1501876362108393,-1,5,4,18,12,5,3,11
1501876362108393,-10,-32,-21,36,-9,-13,1,39
1501876362123430,7,12,-6,-38,20,-5,-5,-66
1501876362123430,-8,-4,21,29,-1,-4,-12,-22
1501876362124361,3,-10,17,25,-32,-7,-1,8
1501876362124361,-6,23,-15,-24,9,-3,-5,-21
1501876362145425,-8,-66,8,9,-3,9,16,44
1501876362145425,-5,14,-11,-25,-1,-1,-3,0
1501876362147373,5,-10,4,15,-28,-4,-5,-7
1501876362147373,-3,-25,-31,-70,9,-4,-14,-21
1501876362168409,2,19,3,21,15,-4,5,27
1501876362168409,2,31,-8,-33,-16,6,9,7
1501876362169366,0,-36,-4,17,-20,-7,6,69
1501876362169366,-21,7,7,14,18,-1,-19,-121
1501876362183411,11,42,-6,-40,27,-3,-9,5
1501876362183411,-1,-13,10,8,-18,10,10,11
1501876362184365,-5,2,-22,-3,6,-2,-7,-4
1501876362184365,11,-12,9,-14,-42,-2,4,13
1501876362205432,2,10,-3,27,-2,-4,-3,13
1501876362205432,-6,-9,14,-44,-12,-7,-4,-9
1501876362207374,1,2,-8,-2,21,3,6,-17
1501876362207374,8,-2,-3,15,-19,-4,1,24
1501876362228435,4,17,42,79,14,7,3,-11
1501876362228435,-6,-11,-11,6,-2,-10,6,58
1501876362229390,7,15,2,-19,20,11,-6,-36
1501876362229390,-11,10,-9,-11,-7,-7,7,23
1501876362243403,21,21,1,0,-16,7,7,14
1501876362243403,-7,7,3,-20,9,-4,-3,-9
1501876362244377,-14,-33,17,46,-2,3,-1,-3
1501876362244377,-15,-21,-27,-32,15,-4,-4,-9
1501876362265431,5,6,9,-16,-36,-5,-1,-2
1501876362265431,4,-28,-23,-37,-12,-4,-3,-3
1501876362267378,-19,-6,-33,-44,-7,-2,-10,-13
1501876362267378,3,12,2,30,45,-1,4,-10
1501876362288448,-6,-30,2,31,-27,-4,4,13
1501876362288448,-2,38,15,5,49,12,-6,-45
1501876362289371,11,-7,-7,-25,-6,-6,-7,1
1501876362289371,1,-21,21,32,-25,-1,-2,-19
1501876362303444,-2,25,-10,-29,23,-1,3,60
1501876362303444,0,4,12,68,11,7,0,-30
1501876362304403,-10,-26,0,1,5,-6,-5,-45
1501876362304403,3,21,-3,-24,-37,0,-1,1
1501876362325414,-5,-35,-18,-11,40,-11,-6,-10
1501876362325414,-6,30,12,29,-10,1,1,29
1501876362327391,1,3,3,14,-39,-9,0,1
1501876362327391,-6,-45,9,6,26,10,7,3
1501876362348418,-3,5,2,-14,-23,-4,-1,35
1501876362348418,7,27,2,-29,15,-7,-13,4
1501876362349374,7,28,-1,-12,-5,0,10,24
1501876362349374,-8,-12,-11,3,-25,-4,-15,-37
1501876362362397,-9,-19,5,-20,0,10,1,21
1501876362362397,-3,-16,-3,35,-4,-6,1,-30
1501876362369432,0,18,5,16,-23,-5,0,1
1501876362369432,16,43,-16,8,-21,7,3,-25
1501876362385444,-21,24,-1,-25,42,3,-3,-1
1501876362385444,8,-20,4,1,-12,-8,5,42
1501876362387376,1,15,27,6,-1,4,0,12
1501876362387376,5,7,-7,-9,20,4,5,17
1501876362408443,2,8,-1,-8,-35,-10,-3,-34
1501876362408443,0,-18,-13,20,-4,2,-8,-4
1501876362409379,-15,-43,-5,26,36,-4,-6,-1
1501876362409379,2,20,8,-22,-8,1,-6,-9
1501876362422441,-9,-21,7,16,-46,-7,6,24
1501876362422441,10,-14,-10,-17,45,3,-1,-39
1501876362429422,-5,-23,-13,-53,14,3,2,-8
1501876362429422,4,24,-5,-6,-15,-5,-1,16
1501876362445419,-3,6,11,-8,-8,0,-4,0
1501876362445419,-4,-40,-16,35,-29,2,2,13
1501876362447379,5,-8,-19,-12,4,-3,2,20
1501876362447379,2,0,-1,-29,-1,-8,-7,-4
1501876362468423,-4,8,-14,5,-39,-8,-8,-9
1501876362468423,10,39,9,-24,32,11,6,-42
1501876362469381,-7,19,1,15,-40,-11,-8,4
1501876362469381,-14,-38,6,-12,60,8,5,7
1501876362482415,11,-25,4,35,-16,-10,-4,-27
1501876362482415,-1,69,1,-21,24,-6,3,14
1501876362489431,-13,-36,8,5,2,13,-2,-20
1501876362489431,13,21,-5,25,-69,-11,3,8
1501876362505424,-19,-25,-16,12,37,2,-12,-29
1501876362505424,-4,10,-5,-16,-6,7,14,-7
1501876362507383,17,20,4,-11,-11,-6,-3,24
1501876362507383,-10,-43,-3,9,-17,-7,-9,7
1501876362528430,-6,5,0,6,-9,-3,6,-13
1501876362528430,1,-23,-7,-14,-10,6,-1,1
1501876362529417,-5,43,23,26,23,2,-8,-13
1501876362529417,-4,7,-29,-61,10,-5,-8,-3
1501876362542451,1,-16,-14,-7,-15,-2,4,-13
1501876362542451,6,8,-14,1,-14,-1,2,33
1501876362549423,4,18,2,-7,-2,-4,2,-9
1501876362549423,-1,18,2,10,-17,-1,0,13
1501876362565451,0,-35,-5,-19,24,-6,-5,15
1501876362565451,-7,18,18,-3,-21,2,-2,-31
1501876362567389,9,-8,-17,11,38,4,-6,6
1501876362567389,6,20,14,38,-31,-1,0,-17
1501876362588395,-10,-4,1,-41,16,5,-5,19
1501876362588395,-11,-19,7,-19,-8,-11,-1,25
1501876362589388,6,-13,-14,-38,-53,2,9,11
1501876362589388,-9,7,8,40,54,-8,-6,-28
1501876362602432,6,-3,-8,-35,17,6,4,-24
1501876362602432,13,-1,15,9,-3,-2,-4,36
1501876362609407,-1,14,-5,-3,13,2,3,-11
1501876362609407,-3,-13,13,28,19,-1,-1,39
1501876362625432,16,48,16,13,-12,3,0,-34
1501876362625432,-11,-32,-12,-21,11,2,5,-9
1501876362627389,-9,-17,-23,2,-9,-4,-9,0
1501876362627389,-3,-30,-7,32,23,-6,-5,-16
1501876362648438,4,16,-10,-61,-46,-3,2,10
1501876362648438,-6,-26,-6,-2,-17,-3,-3,-1
1501876362649393,5,6,15,27,19,3,7,7
1501876362649393,-3,4,19,24,1,4,3,-5
1501876362661432,3,18,3,-11,1,1,6,23
1501876362661432,0,35,-30,-29,-23,-7,-9,14
1501876362670400,2,-24,-6,-30,6,0,-4,-51
1501876362670400,4,-20,6,12,-6,-2,-3,-3
1501876362685457,6,18,9,19,4,-3,-2,1
1501876362685457,-5,-2,6,22,7,3,2,15
1501876362687393,-5,3,-21,7,-8,-7,6,38
1501876362687393,7,6,-8,-26,-2,-1,3,-62
1501876362708469,-10,-50,-14,-26,14,10,-5,16
1501876362708469,1,-7,4,53,11,-5,-5,-3
1501876362709396,-11,-13,0,-20,0,1,-1,-25
1501876362709396,5,12,1,-30,-26,0,6,33
1501876362721415,3,10,7,30,-2,-5,-6,1
1501876362721415,3,14,-9,2,-4,-5,-3,-13
1501876362730429,-2,-3,-6,-18,8,-2,8,40
1501876362730429,-9,-16,5,-14,-20,-3,-12,-21
1501876362745438,-3,9,-3,36,56,-2,-10,-31
1501876362745438,6,4,14,-10,-21,1,2,41
1501876362747429,-8,1,-32,-8,0,-2,-7,-70
1501876362747429,-5,-30,-8,-7,31,6,7,37
1501876362768474,0,3,1,5,-39,-10,-2,-1
1501876362768474,6,5,-9,-10,18,3,6,19
1501876362769399,-13,0,1,7,-11,-11,-15,-62
1501876362769399,12,33,9,14,-30,4,1,28
1501876362781411,-16,-21,-10,-45,34,0,-3,-20
1501876362781411,5,-6,10,6,-48,-7,1,11
1501876362790409,3,14,23,18,26,12,18,34
1501876362790409,9,-20,4,-20,3,7,-12,-17
1501876362805468,4,10,7,53,19,7,5,51
1501876362805468,-8,-21,-18,-11,-4,-8,-5,-55
1501876362807432,1,13,21,-6,11,-6,-3,0
1501876362807432,-17,-21,-8,-17,-6,-4,-5,-36
1501876362828449,15,24,26,31,-21,-1,7,42
1501876362828449,-5,-22,-30,-39,-12,-7,-5,-29
1501876362829402,-1,6,0,17,22,12,4,1
1501876362829402,12,14,-5,-14,-15,-6,5,27
1501876362841443,-8,14,15,14,10,5,-2,-17
1501876362841443,-8,-20,6,22,5,7,3,10
1501876362850404,2,20,-4,-12,15,-5,-6,3
1501876362850404,-1,-4,-7,22,10,-4,-2,9
1501876362865442,-2,-13,-15,-5,-18,-3,-2,12
1501876362865442,-4,12,2,-14,-11,2,-1,-10
1501876362867436,5,-1,-1,-10,-34,-13,-7,-15
1501876362867436,-13,-17,-6,-4,-20,6,4,-7
1501876362888444,7,6,-7,-11,55,1,0,1
1501876362888444,-3,1,25,38,18,1,-2,-13
1501876362889406,10,-13,-11,7,-9,4,0,25
1501876362889406,-13,4,-13,-38,-11,-7,7,30
1501876362901478,-2,-8,-15,34,-25,-9,-16,-53
1501876362901478,-9,12,2,-54,-16,-10,-5,-20
1501876362910412,0,-31,-5,-6,31,8,9,47
1501876362910412,-8,-4,-1,19,-1,-4,-20,-56
1501876362925472,2,-3,-22,-37,-47,4,6,13
1501876362925472,-1,-7,0,18,16,-2,0,-16
1501876362927407,-2,9,5,8,36,5,-1,-4
1501876362927407,-7,6,19,9,-15,-3,6,-1
1501876362955472,0,-17,3,-6,19,0,-2,5
1501876362955472,9,20,-23,19,-9,-5,2,23
1501876362957441,5,-4,5,4,-42,8,3,-1
1501876362957441,2,5,8,-3,37,-2,1,13
1501876362961468,-3,9,0,15,1,-4,1,-14
1501876362961468,-3,12,17,-13,-23,2,-3,-6
1501876362970448,-3,-34,-11,23,36,1,-2,1
1501876362970448,7,24,-14,-37,-18,1,0,8
1501876362985455,-5,-11,-7,-24,15,-2,1,5
1501876362985455,15,14,14,25,7,-3,9,75
1501876362987410,-19,-11,7,6,-32,-11,-13,-59
1501876362987410,3,36,9,31,-20,-1,-6,-11
1501876363008470,-9,-28,-1,-5,2,3,7,15
1501876363008470,4,-36,-17,-6,21,2,-3,-10
1501876363009416,15,33,22,-15,13,-1,3,30
1501876363009416,0,-1,-17,18,-10,-8,-1,-4
1501876363021483,-11,-27,10,-6,-27,4,-2,4
1501876363021483,8,28,9,-20,14,5,1,-6
1501876363030414,-9,-10,-3,-1,-37,-19,-6,-10
1501876363030414,8,6,-1,-12,54,17,3,18
1501876363045447,8,20,8,-6,-26,-10,1,-4
1501876363045447,-13,-38,14,13,20,18,10,-12
1501876363047424,14,27,-25,-25,-22,-1,0,45
1501876363047424,-3,-37,-6,-6,-3,-15,-5,8
1501876363068415,-10,-6,-13,1,18,3,-12,-46
1501876363068415,-2,10,31,23,-15,-5,-2,-22
1501876363069415,-1,1,1,0,-6,1,-5,4
1501876363069415,-5,-22,-5,15,-16,-6,-3,17
1501876363090417,11,-12,-2,-22,-2,0,1,-10
1501876363090417,-11,5,-15,-5,10,1,-4,-20
1501876363092419,5,25,-14,-25,-19,3,4,12
1501876363092419,6,26,23,21,-8,-1,4,6
1501876363105430,-7,-32,-14,27,-10,-9,-1,1
1501876363105430,1,-25,-6,-26,31,-3,-8,-1
1501876363107417,0,13,-2,20,8,4,5,-15
1501876363107417,-5,-3,4,-28,7,-1,-1,4
1501876363128457,3,13,26,-9,20,-5,-3,14
1501876363128457,4,0,-11,44,-2,13,-1,13
1501876363129420,-12,9,-9,-25,-6,-6,-5,-28
1501876363129420,1,-32,3,17,-14,-14,4,9
1501876363150428,-11,-7,-20,-35,3,7,2,-1
1501876363150428,9,30,30,25,-20,-4,-3,0
1501876363152421,1,-35,-18,0,8,0,4,17
1501876363152421,-7,29,7,12,28,-5,-6,-51
1501876363165486,10,29,-1,11,-15,4,3,-7
1501876363165486,-8,-47,-5,-10,22,1,-2,24
1501876363167433,-5,13,3,-13,-10,0,-5,-7
1501876363167433,-3,-1,-33,-32,-36,-6,0,18
1501876363188424,7,-3,-2,33,-8,0,3,11
1501876363188424,-14,4,-9,-52,-24,-13,-20,-78
1501876363189423,9,17,36,28,18,7,5,-4
1501876363189423,-1,-12,-11,0,6,4,-3,-17
1501876363210462,5,17,18,4,13,2,7,50
1501876363210462,-8,-9,-30,-29,-14,-5,-2,-24
1501876363212456,-6,-17,-5,1,-9,-10,-7,-25
1501876363212456,-2,24,1,-12,32,12,-1,-29
1501876363225464,-8,-15,-11,10,-15,-1,0,3
1501876363225464,3,9,18,4,-19,-9,2,50
1501876363227457,-2,-53,-11,1,10,1,-10,-3
1501876363227457,12,16,3,22,8,2,5,-5
1501876363248444,-13,13,-2,-11,35,-2,-10,-49
1501876363248444,-12,-10,-20,-12,-20,-8,-6,5
1501876363249426,9,9,20,11,18,0,6,12
1501876363249426,2,12,-10,4,-7,10,8,24
1501876363270471,-8,-7,-5,-14,-17,-5,-9,-6
1501876363270471,4,11,3,12,17,-1,3,-18
1501876363272427,1,4,5,34,7,1,-1,-5
1501876363272427,-9,-20,0,-50,-24,-9,-7,5
1501876363285454,8,51,11,-35,-27,-4,10,21
1501876363285454,-7,-60,-15,22,43,8,0,8
1501876363291484,2,8,3,1,-14,-5,-6,3
1501876363291484,-2,-3,-10,8,20,-3,-15,-66
1501876363308442,-2,1,-4,19,-42,-7,-1,6
1501876363308442,3,-3,4,-10,2,0,7,18
1501876363309446,-8,-1,8,1,0,-1,-4,-18
1501876363309446,2,-11,2,0,-27,0,5,2
1501876363330471,2,15,-1,-5,28,2,-1,-19
1501876363330471,-5,24,3,22,6,-4,-5,17
1501876363332465,5,-17,-1,-11,17,1,2,-14
1501876363332465,-13,-45,0,-12,-6,-1,0,-2
1501876363344431,-2,-11,-13,8,-11,1,-7,-26
1501876363344431,10,18,0,-9,2,6,10,27
1501876363351477,-12,7,4,-6,-19,-8,-1,-3
1501876363351477,3,12,22,20,13,1,4,23
1501876363368468,2,-30,-17,-24,-6,-5,-8,-18
1501876363368468,5,14,7,12,-20,-3,-7,-6
1501876363369435,-4,23,-1,3,6,0,5,25
1501876363369435,4,-18,1,14,24,7,0,-21
1501876363390478,-1,-2,6,-26,-24,0,3,20
1501876363390478,6,7,-6,11,29,8,4,-6
1501876363392434,-5,2,-11,-17,-34,-9,-2,-5
1501876363392434,7,11,13,9,-24,-4,2,19
1501876363404497,-3,-25,-6,-2,57,1,1,-5
1501876363404497,-1,21,3,2,-15,0,17,51
1501876363411502,-19,-31,-7,-5,-14,-8,-33,-73
1501876363411502,0,2,-8,-4,25,3,-7,17
1501876363428437,-1,1,11,37,-8,-3,-5,-15
1501876363428437,-1,-2,-13,-27,-17,-4,1,11
1501876363429435,6,27,10,1,30,7,13,35
1501876363429435,9,-40,0,15,-5,3,5,-34
1501876363450445,-13,22,1,-25,-33,-2,-5,15
1501876363450445,-3,-35,0,-6,8,-2,2,-11
1501876363452437,6,9,-5,-7,-9,-3,7,39
1501876363452437,-7,25,-3,-15,-59,-4,-5,10
1501876363464477,0,-24,5,24,48,8,-2,-5
1501876363464477,-2,21,5,17,-45,-11,-6,-17
1501876363471505,-1,-19,4,-15,15,10,11,0
1501876363471505,2,25,-30,-20,35,-10,-5,26
1501876363488451,-1,-17,1,-3,-16,7,-1,-16
1501876363488451,-3,4,7,-1,-13,0,-4,-7
1501876363489440,5,15,-18,11,-15,-4,0,19
1501876363489440,2,-8,-11,-44,16,-1,0,9
1501876363511508,-1,24,6,49,11,0,3,-3
1501876363511508,3,-26,-5,-9,1,-3,1,10
1501876363512441,7,13,16,33,-30,2,-2,-24
1501876363512441,-6,6,1,-37,51,10,-1,13
1501876363524480,-4,3,-5,5,-18,-9,-7,-40
1501876363524480,-2,-3,-10,-16,-16,-1,-1,3
1501876363531513,-2,-12,1,-18,-10,-9,-1,26
1501876363531513,-13,4,-5,35,26,-5,2,15
1501876363548445,8,-9,2,-20,-11,7,-2,-7
1501876363548445,0,31,-3,-3,5,4,-5,-35
1501876363549444,-4,-34,-16,0,-3,-7,-1,-10
1501876363549444,-2,1,14,24,5,1,-3,4
1501876363570511,3,8,1,-4,-15,-3,9,-1
1501876363570511,-10,12,-4,-21,4,-8,-7,-18
1501876363572477,2,-3,-7,-2,14,12,-1,8
1501876363572477,-3,12,9,5,0,-3,0,-31
1501876363584479,0,-14,-9,13,-5,-6,-1,32
1501876363584479,0,17,-1,-10,0,-1,-5,-26
1501876363593457,1,-14,6,3,27,5,7,20
1501876363593457,-7,0,-9,-9,-51,-9,-5,-12
1501876363608447,1,-8,10,-7,-4,2,4,25
1501876363608447,2,-7,-28,-1,9,-3,-7,-11
1501876363609455,-5,21,-12,-20,-2,-2,-8,-19
1501876363609455,12,-27,5,11,-5,4,7,23
1501876363630485,-6,3,2,15,-19,-8,-7,-25
1501876363630485,3,14,18,12,-38,-4,2,35
1501876363632483,2,-15,8,1,47,7,5,-31
1501876363632483,-3,-16,-20,-15,-12,-1,-5,-8
1501876363644491,-9,-7,-20,-20,24,-9,-8,-10
1501876363644491,2,-14,16,27,15,8,2,6
1501876363653460,0,7,-34,-46,-55,-6,2,16
1501876363653460,-5,-10,0,11,29,-1,-4,16
1501876363668471,2,3,7,-11,-11,6,0,-12
1501876363668471,3,4,4,2,14,-2,3,-1
1501876363669452,-2,30,8,10,-13,-7,-9,-16
1501876363669452,-10,-53,-4,3,-11,-10,-1,15
1501876363690450,8,10,4,6,10,11,7,9
1501876363690450,0,7,2,4,-42,-1,1,10
1501876363692455,2,10,3,15,68,11,2,4
1501876363692455,0,32,12,7,-26,-2,0,5
1501876363704499,4,-25,5,-15,27,3,3,-4
1501876363704499,-10,-29,-10,-2,4,-5,2,0
1501876363713452,-7,-16,-3,-3,-46,-12,-9,5
1501876363713452,4,8,-15,2,12,2,1,7
1501876363728469,-5,7,-5,-16,-6,0,-7,-23
1501876363728469,0,4,15,5,8,-3,-1,-8
1501876363729455,-10,-45,-12,-1,-32,-10,-7,1
1501876363729455,-2,-2,10,27,-32,-1,-7,-32
1501876363750454,-3,-6,-9,-39,41,-5,6,20
1501876363750454,3,15,-8,4,6,3,0,-15
1501876363752455,-6,-7,20,3,24,4,-4,-10
1501876363752455,3,-3,3,-4,-15,0,5,21
1501876363764528,-1,10,-3,10,-25,-5,-6,-21
1501876363764528,-1,-1,11,-2,-7,-2,2,8
1501876363773469,-3,0,-1,10,11,-3,-3,-24
1501876363773469,12,22,17,9,4,6,9,35
1501876363788474,-9,-15,-8,0,-15,-6,-12,-29
1501876363788474,0,-11,-3,-16,13,7,1,-2
1501876363789465,1,-4,3,5,-2,8,-2,-25
1501876363789465,-2,4,4,4,18,1,2,13
1501876363810513,-3,0,0,-11,30,0,-3,-29
1501876363810513,4,-4,-2,10,-12,-2,-5,-1
1501876363812466,0,-2,-3,-18,-12,-6,4,19
1501876363812466,3,46,20,14,-20,2,-5,-26
1501876363824529,-6,-67,-25,12,23,-3,0,18
1501876363824529,-8,-13,-5,-14,10,-2,-7,-11
1501876363833472,3,8,8,11,-18,-2,3,20
1501876363833472,8,12,-7,-35,-4,-1,-1,-6
1501876363848475,-3,3,14,29,-46,-6,1,34
1501876363848475,0,-7,-21,-28,15,5,7,31
1501876363849462,-7,-37,-5,2,19,-2,-14,-44
1501876363849462,-2,-20,-8,5,5,-3,-1,13
1501876363870531,1,22,8,-5,-4,4,1,-18
1501876363870531,0,18,14,6,-32,-6,-1,-21
1501876363872461,3,-4,-5,35,61,2,6,20
1501876363872461,-7,-22,-7,-29,-17,1,-5,-43
1501876363893463,4,12,2,9,-30,-7,-2,20
1501876363893463,-4,16,-4,10,58,-7,-3,-11
1501876363894464,12,43,16,7,-22,9,8,8
1501876363894464,-4,-34,-8,8,25,4,-3,-12
1501876363908476,2,20,-8,-8,-16,0,6,34
1501876363908476,-4,-11,3,21,-2,-5,-13,-54
1501876363909466,-5,12,0,-35,5,-2,2,-1
1501876363909466,2,3,-17,-9,-10,-4,10,42
1501876363930513,-2,4,0,1,-24,-2,-11,-16
1501876363930513,-1,-5,1,-4,25,-1,-4,2
1501876363932498,-2,-1,-3,-2,-9,-1,-1,-21
1501876363932498,-10,1,-7,-9,-10,-6,-9,-8
1501876363944515,11,4,-8,3,17,8,14,33
1501876363944515,-5,0,3,1,-61,-4,-5,-38
1501876363953477,-4,-20,-4,2,42,0,-8,17
1501876363953477,-2,-10,-1,5,8,-3,-6,-29
1501876363968477,1,12,-4,-12,-9,-4,-1,12
1501876363968477,2,16,7,17,4,1,6,16
1501876363969467,-1,-23,11,-20,-37,-1,5,-4
1501876363969467,-7,11,-31,-3,-5,-3,-7,25
1501876363990532,4,6,5,-1,16,0,-4,2
1501876363990532,1,-24,-21,-4,7,1,3,20
1501876363992468,1,31,3,-4,-8,-1,1,17
1501876363992468,6,0,20,15,-46,-9,2,-14
1501876364004511,-10,-24,-8,-19,23,10,4,17
1501876364004511,3,8,1,7,33,-3,-7,-48
1501876364013476,1,7,-6,2,-9,1,-2,-4
1501876364013476,1,2,1,-15,-4,0,3,-1
1501876364028481,0,-6,-6,12,5,-4,-4,-13
1501876364028481,2,5,-4,-19,-22,-1,-1,11
1501876364029500,4,-1,3,1,0,-9,7,42
1501876364029500,-7,2,7,-6,9,5,-6,-32
1501876364050513,4,16,10,19,-18,-3,2,-21
1501876364050513,-3,-12,3,-11,46,7,1,27
1501876364052485,-2,2,-23,-3,-50,-9,-8,-7
1501876364052485,-1,-1,16,19,-9,3,5,-12
1501876364073484,1,6,-2,-2,52,4,1,14
1501876364073484,3,13,-3,-12,-26,-2,-1,35
1501876364074474,-4,-9,-6,-16,-14,-1,0,-37
1501876364074474,-6,-40,1,10,18,6,3,12
1501876364088490,4,26,1,2,-25,-7,1,-9
1501876364088490,6,7,1,-5,-6,2,-6,-20
1501876364089476,-3,2,0,6,-9,-5,-3,10
1501876364089476,-3,5,-5,-31,37,3,0,8
1501876364110523,0,5,11,29,3,5,-4,-19
1501876364110523,2,-26,-6,1,-3,-5,3,20
1501876364112476,-2,-3,-3,-1,-8,1,5,11
1501876364112476,1,7,-2,8,-5,-1,-6,-28
1501876364133488,-1,19,9,-6,0,-4,1,31
1501876364133488,1,-12,1,-14,-21,-1,5,41
1501876364134477,-14,6,5,-4,20,2,-13,-66
1501876364134477,2,-12,-14,5,-22,-5,3,10
1501876364146539,-4,3,3,-25,-27,-15,-10,-5
1501876364146539,-4,-22,-24,-2,40,10,2,-6
1501876364155486,-3,-17,-1,-14,-10,-4,2,13
1501876364155486,6,33,10,-3,1,1,0,6
1501876364170479,-2,-10,-1,6,-32,-9,-4,-3
1501876364170479,-8,-22,-8,-20,31,-6,0,-36
1501876364172481,9,16,-6,14,19,6,1,24
1501876364172481,3,-3,-5,0,6,-3,-4,-13
1501876364193497,1,-15,2,-9,-8,2,2,42
1501876364193497,3,27,15,19,-29,3,3,3
1501876364194482,-2,16,17,1,4,2,2,-2
1501876364194482,9,7,1,9,-9,-7,2,15
1501876364207555,-5,-22,-12,2,23,12,5,-11
1501876364207555,5,23,3,11,10,-3,-1,-4
1501876364214533,4,-16,-9,-5,-8,-2,0,10
1501876364214533,-3,27,17,21,-12,-8,-1,-3
1501876364230541,-4,-18,-10,-26,16,10,4,-11
1501876364230541,0,-5,0,1,-2,6,2,7
1501876364232520,-5,-15,-11,0,-15,-9,-9,-13
1501876364232520,-6,0,8,3,17,-2,-1,-4
1501876364253496,3,7,4,9,11,2,2,-11
1501876364253496,-8,-5,-2,-10,-14,-5,-6,-30
1501876364254494,1,14,0,22,-43,6,5,2
1501876364254494,-7,-22,-12,-41,50,1,-6,5
1501876364267546,3,-9,0,1,-7,-5,-1,-19
1501876364267546,-2,-5,11,1,-27,-1,-3,28
1501876364274551,0,7,9,-3,-4,-2,1,4
1501876364274551,-7,11,-5,11,14,0,-2,-29
1501876364290489,6,-8,3,5,17,8,3,-6
1501876364290489,-4,-13,-11,-10,-20,-8,-3,31
1501876364292486,-7,-12,-1,4,8,2,-1,-4
1501876364292486,0,6,3,7,-11,-1,-7,-6
1501876364313507,-4,5,-10,-8,-18,-1,8,19
1501876364313507,-11,-53,-2,-3,-10,-10,-10,-60
1501876364314489,2,-1,-6,-14,20,3,0,23
1501876364314489,1,-7,-2,-6,-67,-2,-2,0
1501876364327530,-11,9,7,13,48,1,-2,-22
1501876364327530,5,10,-3,-9,-32,3,7,14
1501876364334530,-5,-1,-1,-5,43,0,-1,-1
1501876364334530,6,-11,0,12,-7,0,1,30
1501876364350501,-3,0,-12,-30,-12,-11,-2,7
1501876364350501,-4,3,2,27,-14,-5,-10,-45
1501876364352505,1,8,13,-19,-5,-4,-2,9
1501876364352505,-2,9,-5,-6,3,3,3,-7
1501876364373514,-4,-29,-6,6,-13,-5,-2,36
1501876364373514,-1,11,13,8,-20,-3,11,24
1501876364374501,-8,6,-20,-24,17,7,-21,-82
1501876364374501,1,1,-2,1,20,2,1,6
1501876364387560,-1,0,-2,-7,-17,-5,-7,-14
1501876364387560,3,4,-1,12,61,5,1,2
1501876364394536,8,17,2,13,-49,-11,5,40
1501876364394536,-6,-30,1,-14,37,8,2,-7
1501876364410531,0,4,10,2,-19,1,-2,-3
1501876364410531,-6,-10,-25,-20,-7,-9,-7,7
1501876364412530,1,7,14,21,-9,-3,-2,-32
1501876364412530,0,-6,-6,-10,-4,-3,-7,-21
1501876364433513,-3,-12,-8,2,-24,-8,0,20
1501876364433513,-3,10,7,3,13,10,-4,-24
1501876364434503,-1,-2,-8,18,-5,-2,5,17
1501876364434503,2,-13,-1,-6,29,3,2,13
1501876364447534,-5,10,5,13,4,-3,-5,-33
1501876364447534,3,-10,-8,-20,-23,1,8,35
1501876364454538,2,-11,-19,17,32,-2,-6,-7
1501876364454538,0,11,10,-11,-19,-3,2,20
1501876364470562,3,12,6,1,20,3,-5,-14
1501876364470562,-2,1,2,11,-3,0,-8,-5
1501876364472534,-1,3,12,-1,-11,3,10,20
1501876364472534,6,-11,-13,-5,-3,-1,8,-16
1501876364493514,-9,-8,-18,-5,-18,-13,-17,-30
1501876364493514,-1,4,14,-6,-5,1,0,12
1501876364494498,1,-6,8,7,25,7,1,-4
1501876364494498,-2,5,-14,3,4,0,0,4
1501876364507573,3,6,9,8,-11,2,1,13
1501876364507573,-5,16,-2,2,-9,-4,-2,-34
1501876364514566,2,1,-1,3,18,4,3,1
1501876364514566,-9,-3,-3,-4,-27,-5,-3,-3
1501876364530500,5,16,4,-2,13,3,0,14
1501876364530500,-2,-4,9,10,0,-6,-4,-20
1501876364532537,-4,-12,1,-14,-13,-1,6,21
1501876364532537,-4,8,3,9,9,-4,-5,-6
1501876364553520,7,26,15,3,1,-3,1,20
1501876364553520,5,-15,-15,2,10,11,8,-23
1501876364554501,-1,-19,-5,-26,-34,-12,-10,18
1501876364554501,-1,-9,-4,8,1,6,-3,-10
1501876364566544,-7,-4,2,-12,10,-1,-2,-50
1501876364566544,-2,12,-10,-6,12,-5,-3,33
1501876364575540,6,-4,-8,-1,-2,1,4,-10
1501876364575540,1,10,1,-5,-19,-1,-4,12
1501876364590573,2,-16,1,8,-20,-1,4,17
1501876364590573,-2,7,4,-1,6,0,2,-8
1501876364592541,0,-5,-6,-1,-19,-8,-4,15
1501876364592541,-6,-8,11,-14,17,-2,-3,17
1501876364613526,-3,-11,-34,-18,-1,0,-4,-21
1501876364613526,-1,6,11,-9,14,0,-4,3
1501876364614505,-1,-5,-7,19,-5,-1,1,-1
1501876364614505,-1,7,-8,-18,4,-3,-2,0
1501876364626573,1,-22,-2,0,-10,4,5,13
1501876364626573,-7,-9,7,4,-6,-7,0,-1
1501876364635527,-2,24,-4,3,13,7,-4,-25
1501876364635527,2,-20,17,7,-42,-6,1,22
1501876364650506,0,2,-8,-14,31,-1,0,35
1501876364650506,4,9,0,5,0,-5,-12,-19
1501876364652507,-2,-9,4,-4,-9,-3,6,3
1501876364652507,-4,-2,-1,38,16,5,-6,-17
1501876364673518,9,29,5,-17,-7,4,2,-7
1501876364673518,-4,-16,-14,4,-9,-5,3,24
1501876364674508,8,31,15,-34,-15,-3,7,37
1501876364674508,-5,-30,-27,-34,8,-1,-2,-56
1501876364686551,-3,-9,0,25,-3,-6,-1,8
1501876364686551,1,21,10,11,25,8,-1,-19
1501876364695509,-7,-18,-1,0,-17,-2,-5,-5
1501876364695509,4,-11,10,0,-11,-6,8,44
1501876364710582,-2,6,-2,-13,-65,-4,-3,-30
1501876364710582,-2,10,5,-2,50,8,2,-14
1501876364712519,-4,-5,-4,8,-2,-4,-9,1
1501876364712519,5,20,8,5,-3,-4,7,40
1501876364733533,-12,-22,6,-4,3,2,-11,-32
1501876364733533,8,26,4,17,-43,-5,-1,18
1501876364734512,-7,-41,-14,-20,31,4,3,2
1501876364734512,-4,16,-9,-8,0,-2,-10,-27
1501876364746579,3,-15,2,19,27,-3,1,15
1501876364746579,-11,-6,-6,-17,-35,-5,-1,-5
1501876364755552,-2,-3,-1,19,40,4,-1,-19
1501876364755552,-2,3,-10,-5,-30,-3,6,33
1501876364770584,1,11,4,1,11,-3,-2,-40
1501876364770584,8,-13,-10,-14,10,3,2,9
1501876364772552,-3,2,3,6,-19,-4,0,4
1501876364772552,-1,-2,-2,2,10,-1,0,12
1501876364793533,2,21,11,14,4,12,-2,-12
1501876364793533,-1,-12,1,-24,9,1,-1,-8
1501876364794530,1,5,0,24,-12,2,3,-3
1501876364794530,-4,-1,0,-20,38,1,-7,-10
1501876364806578,-5,-21,1,8,2,-7,-1,8
1501876364806578,2,-6,-12,-12,-10,0,1,1
1501876364815558,0,-1,5,6,-16,-4,0,6
1501876364815558,0,18,1,4,25,8,3,-21
1501876364830578,6,-2,-4,-4,-15,0,8,65
1501876364830578,3,14,4,8,3,-6,-12,-48
1501876364832518,-3,5,-11,-24,-17,-7,-7,-13
1501876364832518,-7,-33,1,13,-6,-3,0,-3
1501876364853539,-2,18,-8,-8,18,3,0,4
1501876364853539,-1,-26,17,28,-27,-4,5,13
1501876364854543,-2,2,-11,-16,49,1,-2,-4
1501876364854543,-1,17,-12,-7,-23,-1,-3,-31
1501876364866559,1,-5,-7,2,-2,4,-2,-4
1501876364866559,-2,22,7,19,10,-3,-2,46
1501876364881580,-5,-30,-3,-18,3,-3,-4,-45
1501876364881580,0,-7,-8,8,13,3,2,16
1501876364890590,3,1,-1,2,-20,-5,2,29
1501876364890590,-2,14,1,-5,1,0,0,-30
1501876364892522,3,7,-10,-11,7,-3,-2,22
1501876364892522,-5,9,14,16,8,-7,-4,-27
1501876364913546,3,4,-3,-4,-15,3,2,0
1501876364913546,-6,-15,-2,-7,0,3,-4,-5
1501876364914534,3,4,6,7,-2,-3,-1,15
1501876364914534,0,15,-8,-13,-5,-1,-3,-28
1501876364926587,-1,-27,2,11,2,-2,4,4
1501876364926587,-6,-3,-30,-32,16,-5,-6,14
1501876364935563,-1,-17,16,15,-8,1,-5,-32
1501876364935563,4,10,8,7,-9,-4,2,25
1501876364950536,-9,-10,-7,6,4,-4,-4,-8
1501876364950536,4,1,6,0,-17,-3,-2,-27
1501876364952525,0,12,0,8,38,7,4,10
1501876364952525,-2,-7,-17,-3,-19,-2,-4,-2
1501876364972582,-4,-5,-2,-15,3,-7,0,-11
1501876364972582,-2,-11,-5,7,-8,-1,2,11
1501876364974558,3,14,-3,-28,-6,0,-3,4
1501876364974558,4,1,23,17,3,3,2,9
1501876364995593,-3,-6,-19,-3,4,0,-1,-1
1501876364995593,5,11,-2,5,0,-1,3,2
1501876364997528,2,1,2,10,-5,2,14,49
1501876364997528,-11,9,2,-21,-12,-4,-19,-53
1501876365010566,-2,-21,-4,0,16,-1,-7,-28
1501876365010566,1,-3,3,4,-10,-2,-1,26
1501876365012529,-4,15,11,13,-6,3,-2,-54
1501876365012529,0,-7,-9,1,16,-4,4,45
1501876365033548,1,20,8,7,5,4,0,-41
1501876365033548,-9,-25,3,4,9,-1,-7,14
1501876365034529,1,-2,-9,-12,-21,0,-1,13
1501876365034529,-1,1,8,-14,-9,-4,-1,5
1501876365055597,2,28,-10,-7,21,2,-1,-10
1501876365055597,-1,-12,-4,9,4,0,2,8
1501876365057531,-5,-7,-6,-6,-15,-6,-6,-12
1501876365057531,3,23,9,0,-16,-1,8,22
1501876365070599,-7,-28,0,0,7,-1,-13,-35
1501876365070599,4,16,2,-3,7,4,-2,-16
1501876365072532,-4,-14,-7,-2,0,-5,-3,1
1501876365072532,0,-1,-12,-1,-53,-3,-2,-11
1501876365093542,2,23,11,-2,58,5,11,45
1501876365093542,1,-20,-7,-9,-3,-2,-3,-11
1501876365094533,-4,2,1,13,-10,-5,-9,-30
1501876365094533,2,-22,5,-31,-35,-1,3,7
1501876365115567,-2,6,-15,-5,12,-1,1,16
1501876365115567,-4,10,0,-4,13,-6,-5,-8
1501876365117543,1,6,4,3,2,5,2,20
1501876365117543,2,-3,5,18,1,1,6,0
1501876365130600,-12,-11,0,-8,-53,-17,-19,-39
1501876365130600,-3,-16,3,7,29,13,4,0
1501876365132541,1,10,-3,5,-28,-5,1,13
1501876365132541,5,11,-3,1,64,6,3,33
1501876365152576,-3,15,18,8,-35,-1,-1,-38
1501876365152576,2,-23,-10,-14,24,-6,1,35
1501876365154536,1,-14,-3,-24,-34,-5,-1,-13
1501876365154536,-3,-18,-4,20,39,4,-3,-23
1501876365175576,1,20,-2,-8,-16,1,3,41
1501876365175576,-6,-5,-4,7,-26,-6,-7,-39
1501876365177538,3,-8,3,-1,16,0,6,40
1501876365177538,2,-9,-15,-15,-9,-3,-9,-24
1501876365189580,-6,-1,-2,10,-1,2,0,-7
1501876365189580,-1,1,6,-3,-1,2,3,7
1501876365196577,-7,4,-9,6,-22,-6,2,-3
1501876365196577,4,0,4,-7,31,6,1,34
1501876365213559,4,-21,-7,-18,-11,-8,-2,7
1501876365213559,-3,8,1,2,-25,5,-5,-12
1501876365214540,1,-3,-4,-5,-11,2,-2,-13
1501876365214540,-2,23,-9,-6,17,0,-2,5
1501876365235586,8,-14,15,-8,20,5,5,12
1501876365235586,3,-5,-22,-18,-1,-3,6,30
1501876365237549,-1,6,14,5,-8,-4,-5,-4
1501876365237549,-3,-6,-4,22,-18,-3,-2,-30
1501876365249583,0,22,2,-8,-14,-4,-5,-17
1501876365249583,-9,-35,3,26,-13,0,-1,-10
1501876365256588,5,11,1,-41,10,1,-2,0
1501876365256588,-1,8,4,-1,-3,2,0,13
1501876365272589,1,-6,-1,19,7,0,8,13
1501876365272589,1,6,3,-2,-5,-6,-9,-35
1501876365274553,-3,-1,-3,-1,16,1,-10,-4
1501876365274553,-5,-1,-10,-13,-18,-6,-4,-19
1501876365295568,-5,-40,-1,-2,-20,-6,1,31
1501876365295568,4,11,-14,-6,11,4,6,23
1501876365297574,-11,-8,2,23,6,0,-6,-27
1501876365297574,-3,9,5,-6,8,3,-6,-25
1501876365309548,0,5,-12,6,-7,-1,-1,-6
1501876365309548,-3,-14,-1,-23,-31,1,6,15
1501876365316593,6,23,5,9,24,3,7,17
1501876365316593,-9,-15,-1,6,-17,-7,-8,-14
1501876365333562,-3,-24,-5,0,14,3,-4,-38
1501876365333562,0,-6,2,15,-42,-8,5,18
1501876365334573,-2,17,-12,-30,35,4,0,17
1501876365334573,0,-5,3,10,2,0,1,0
1501876365355618,8,9,7,-5,-16,-1,-2,43
1501876365355618,-1,24,-2,-3,22,-5,-8,-63
1501876365357583,1,-22,-3,-11,-33,-1,2,-9
1501876365357583,-3,-11,5,11,12,-3,4,30
1501876365369587,4,11,7,-1,2,4,3,5
1501876365369587,3,27,16,-5,3,-4,-5,-3
1501876365376560,-5,1,-17,15,21,-5,-3,0
1501876365376560,0,-31,6,-1,-18,4,1,-18
1501876365392591,-4,25,-1,-2,-5,-9,-7,23
1501876365392591,2,-3,-10,10,-26,11,7,16
1501876365394561,-7,-29,-3,-8,35,-4,-4,2
1501876365394561,1,4,6,-2,29,9,8,12
1501876365415592,-5,5,14,8,-25,-6,-4,-25
1501876365415592,6,10,0,-7,0,-5,6,36
1501876365417555,0,2,15,14,-37,-5,-8,10
1501876365417555,-4,-21,-42,-20,-1,-6,-13,-44
1501876365429593,-5,12,0,1,20,4,0,-6
1501876365429593,1,5,-5,-9,15,-3,-2,1
1501876365436551,2,-4,3,-2,-11,-1,5,14
1501876365436551,0,17,-6,-2,-7,-3,4,-3
1501876365453567,-3,-8,-5,6,-16,-7,-10,-25
1501876365453567,-4,0,-1,-21,18,2,0,4
1501876365454554,0,4,12,22,6,-1,1,3
1501876365454554,-1,-8,-5,-11,-11,7,-3,-2
1501876365475622,3,-10,-6,-1,6,-1,3,11
1501876365475622,3,1,3,4,-1,-4,-2,35
1501876365477556,-7,-9,4,16,-9,-8,-4,-44
1501876365477556,-2,43,13,-8,-8,-1,3,-3
1501876365489592,2,-8,-19,2,-13,4,-1,-7
1501876365489592,2,19,21,3,31,0,-3,-8
1501876365498557,-5,-30,-29,-9,-4,-1,8,23
1501876365498557,-3,13,5,3,-4,-8,-12,7
1501876365513595,-5,-11,9,0,-16,3,-2,-41
1501876365513595,-2,-2,-7,6,-16,-8,-5,-15
1501876365514568,2,18,-7,-12,6,8,8,-6
1501876365514568,5,-10,11,-16,-9,-3,-7,23
1501876365535622,-4,1,6,-4,9,2,-2,7
1501876365535622,-3,-24,2,10,14,4,-1,-16
1501876365537558,0,-5,-3,13,16,-3,-5,-13
1501876365537558,-1,10,-5,6,-14,-5,2,16
1501876365549560,2,-6,2,-9,-1,-5,3,4
1501876365549560,2,-4,1,2,10,5,1,-5
1501876365558560,1,10,11,1,-18,-4,-2,3
1501876365558560,0,-12,-29,-1,-7,0,2,-2
1501876365572621,-1,20,4,0,19,6,1,-10
1501876365572621,-5,-18,-10,-1,-8,-8,-3,5
1501876365574597,0,9,2,-1,3,5,-4,-24
1501876365574597,4,-2,11,14,2,-2,7,11
1501876365595621,-4,-7,-3,-9,5,4,4,6
1501876365595621,-2,14,-3,-4,-16,-2,-8,-11
1501876365597589,4,-9,5,7,17,1,0,21
1501876365597589,-4,0,1,20,26,-5,-4,-26
1501876365609575,2,-17,-23,-21,-26,-2,2,10
1501876365609575,-2,6,7,-13,-13,-2,-6,-28
1501876365618598,3,0,-7,-9,-10,-9,-3,10
1501876365618598,-3,-2,16,29,10,10,7,-10
1501876365632602,0,16,-1,2,49,3,-7,19
1501876365632602,-3,-6,-6,-19,-17,-2,2,21
1501876365634564,2,1,-12,-3,-17,1,-1,-9
1501876365634564,-8,-14,-5,-12,-43,-9,-4,-2
1501876365655604,4,8,10,10,29,-5,1,15
1501876365655604,-6,5,6,14,10,11,-1,-16
1501876365657567,-7,-11,-11,-14,-9,-4,-1,34
1501876365657567,1,-13,-4,-20,-6,-5,1,-9
1501876365669566,5,9,-5,14,1,-2,-5,25
1501876365669566,-8,-30,2,-8,-13,-4,-6,-38
1501876365678567,-6,-1,-3,6,30,6,-1,-25
1501876365678567,0,-11,-4,2,-10,-4,0,29
1501876365693586,-3,-11,-2,-19,-2,0,4,5
1501876365693586,-3,32,3,8,-5,-4,5,-3
1501876365694600,5,-4,-8,-11,-38,-2,1,-29
1501876365694600,-1,-24,6,15,34,8,-4,6
1501876365715633,-3,2,0,6,1,-1,-1,-10
1501876365715633,-3,0,4,-1,22,1,-2,10
1501876365717568,-3,-2,0,-7,6,-3,-5,-21
1501876365717568,4,6,-16,-17,-13,-4,4,35
1501876365729579,2,-2,3,6,-9,3,5,-11
1501876365729579,2,-1,0,6,-6,-7,-4,17
1501876365738571,2,7,6,6,13,1,-2,-4
1501876365738571,2,8,7,0,2,1,-6,-22
1501876365752615,-4,-17,-3,-8,-5,-1,1,23
1501876365752615,2,4,-10,-6,-8,0,2,-4
1501876365754579,1,14,3,-10,2,0,-3,-2
1501876365754579,-5,-41,-4,-2,-6,-8,4,6
1501876365775635,-2,-4,1,4,-18,-6,-7,-1
1501876365775635,3,11,-13,-7,-2,-7,-2,-6
1501876365777573,-1,-3,0,12,27,7,-2,9
1501876365777573,2,26,3,-14,12,6,3,-8
1501876365788861,1,9,10,-2,-13,-5,8,13
1501876365788861,4,-27,-11,5,-4,2,0,-8
1501876365797837,-2,13,12,12,-25,-8,-5,16
1501876365797837,-1,-5,-4,-14,-3,4,2,-12
1501876365812858,-3,-6,-2,13,6,-6,-4,-26
1501876365812858,-5,-4,-1,-1,2,5,1,22
1501876365814847,-1,-9,3,21,13,7,1,-8
1501876365814847,0,-9,-13,-17,-8,-4,-7,-10
1501876365835867,-6,-15,-5,-13,-21,-4,-2,-6
1501876365835867,1,5,3,11,19,-1,6,10
1501876365836822,1,-6,3,-4,-10,-5,-6,13
1501876365836822,-6,7,9,4,-20,-6,-1,1
1501876365848886,0,5,-8,8,21,2,-3,-34
1501876365848886,0,-3,-5,1,15,6,1,15
1501876365857851,-3,-4,-1,-9,-8,3,5,-20
1501876365857851,1,12,8,7,-1,0,-4,-11
1501876365872822,2,0,7,3,-2,-2,5,31
1501876365872822,4,24,-15,-6,-6,-2,-4,-17
1501876365874855,-7,-19,-11,-10,-5,-3,-8,-7
1501876365874855,2,17,6,6,-1,-6,-5,-6
1501876365895871,-5,-9,-1,4,-14,4,1,-2
1501876365895871,-3,-14,-3,-3,22,4,5,18
1501876365896826,1,-2,4,-2,-11,-3,0,2
1501876365896826,4,20,-9,10,-5,3,4,8
1501876365908885,-2,4,5,-15,-23,-9,-9,-15
1501876365908885,-5,-7,5,-6,19,4,-2,-8
1501876365917836,2,7,18,7,-6,-8,1,-2
1501876365917836,-4,-7,-26,-15,15,5,2,27
1501876365932869,1,25,-7,-6,-8,4,-1,-15
1501876365932869,2,-10,7,42,3,-4,-4,-26
1501876365934859,7,1,-4,-46,-3,2,3,5
1501876365934859,-8,-30,-9,-3,-1,-8,0,36
1501876365955896,1,3,-11,-4,8,2,-6,-21
1501876365955896,0,8,10,9,-15,-5,-7,-10
1501876365956828,-4,-3,-5,-7,11,2,0,-11
1501876365956828,4,14,15,8,-7,0,-4,-25
1501876365977890,-2,-22,-10,-11,-22,-9,5,21
1501876365977890,-3,4,2,-10,5,6,-8,-16
1501876365979862,0,10,1,14,-13,-4,8,38
1501876365979862,-3,2,8,-1,36,10,-7,-71
1501876365992870,3,-1,0,2,1,6,6,23
1501876365992870,0,9,-8,-4,4,-9,0,0
1501876365994842,4,-15,-3,-8,-33,-10,2,11
1501876365994842,-2,-3,2,7,33,7,0,4
1501876366015898,-1,7,5,2,4,-8,-9,1
1501876366015898,-3,-7,-3,-11,-18,0,0,20
1501876366016831,-1,2,-6,-9,-2,0,3,-14
1501876366016831,3,25,6,13,-6,-1,-3,-27
1501876366037899,-6,-58,-1,2,-9,4,0,-12
1501876366037899,5,5,0,-2,26,3,8,38
1501876366039832,-10,-24,-13,3,-8,-5,-14,-39
1501876366039832,3,-19,2,3,4,-8,-3,-2
1501876366052898,-1,20,-9,-18,-9,3,5,7
1501876366052898,-7,-9,-1,-22,-15,-7,-9,-23
1501876366054835,5,3,12,15,3,7,2,17
1501876366054835,2,8,-8,4,5,-3,2,5
1501876366075908,2,0,2,-8,-1,-1,-5,3
1501876366075908,-2,-13,5,6,-14,-12,1,-9
1501876366076837,-7,19,-14,-9,13,7,-5,9
1501876366076837,1,2,3,3,-22,-1,-1,10
1501876366097837,-3,-10,-8,3,9,-1,1,-1
1501876366097837,1,-15,6,7,15,1,1,8
1501876366099836,-3,2,16,27,10,2,3,-21
1501876366099836,-3,4,-13,-21,-12,6,0,49
1501876366112867,-5,28,1,7,12,0,-6,-63
1501876366112867,-2,11,-3,-10,-25,-2,-9,-19
1501876366118899,-2,-15,3,13,8,-5,-2,0
1501876366118899,6,-16,8,-6,2,-4,4,10
1501876366135904,-1,20,6,14,11,-6,-5,6
1501876366135904,-3,6,-10,-12,-15,1,-3,9
1501876366136841,5,19,5,-6,-20,-1,4,3
1501876366136841,-11,-14,-8,-5,21,-6,1,-16
1501876366157901,0,-16,-2,-16,-2,-3,-6,-5
1501876366157901,4,-10,-8,4,-6,6,6,24
1501876366159839,-8,-3,-8,2,13,-2,-5,-36
1501876366159839,-2,-6,2,-12,-27,-4,-1,-13
1501876366172860,2,15,10,11,11,6,8,22
1501876366172860,2,8,-5,-9,-17,-6,-7,-16
1501876366178886,1,11,-2,1,0,3,-3,9
1501876366178886,-4,-3,-2,11,-6,0,-4,-7
1501876366195908,-5,-40,4,-16,-17,0,-3,-10
1501876366195908,2,16,8,9,36,2,4,6
1501876366196859,15,14,-8,-2,9,1,19,79
1501876366196859,-12,-4,-3,2,-8,-7,-22,-58
1501876366217881,-6,-23,-10,-10,-7,-2,-6,-6
1501876366217881,-2,0,1,1,-14,-5,-2,-21
1501876366219845,-6,-18,3,-3,21,-9,-7,-15
1501876366219845,-1,2,6,-3,-16,3,8,27
1501876366232862,3,14,-5,18,19,-2,5,22
1501876366232862,-4,-8,2,-15,-7,0,-4,-21
1501876366238910,2,7,0,-2,-7,-2,-3,10
1501876366238910,1,-22,8,19,-12,-6,-3,1
1501876366255855,-1,14,-1,-8,22,6,1,-10
1501876366255855,1,-18,-3,-4,-11,-3,8,44
1501876366256846,-6,10,-6,-9,9,4,-4,-31
1501876366256846,4,4,-3,7,6,-4,-3,-9
1501876366277890,4,19,4,12,-7,5,4,20
1501876366277890,-2,-10,-1,-3,14,3,0,4
1501876366279846,1,-3,-1,0,-8,-1,2,12
1501876366279846,-5,-20,-13,-11,-6,-4,-3,-18
1501876366292867,-2,-5,2,10,-34,-14,-4,-8
1501876366292867,1,-7,-13,-24,24,5,12,46
1501876366298891,-10,-2,-2,-6,-3,-3,-19,-63
1501876366298891,2,8,5,-1,-3,-4,-7,-14
1501876366315886,-1,-2,-18,-2,-5,2,-1,-1
1501876366315886,-2,22,8,10,-33,-9,0,-13
1501876366316855,-2,-12,-7,-15,-4,-10,-9,15
1501876366316855,2,-20,-6,9,37,17,7,36
1501876366337875,-2,11,4,-7,0,1,-2,-7
1501876366337875,-2,-4,-4,13,-16,-1,-1,-6
1501876366339850,1,0,4,-26,-3,-5,2,5
1501876366339850,-1,18,-2,-15,-21,-4,4,1
1501876366352867,0,2,3,7,8,-4,-1,-4
1501876366352867,2,5,-3,3,15,4,1,23
1501876366358913,0,-2,7,21,-10,-1,-1,-17
1501876366358913,-4,9,-3,2,-3,0,-3,-4
1501876366375899,2,-1,-4,-17,-1,5,5,24
1501876366375899,-10,-15,-1,9,-9,-6,-2,-38
1501876366376858,-3,3,-5,-4,2,2,-4,7
1501876366376858,1,18,7,6,-6,-3,5,5
1501876366397917,2,-6,-2,-11,4,4,1,8
1501876366397917,4,7,3,13,0,-9,-11,-4
1501876366399853,-4,-15,-2,-7,13,13,4,2
1501876366399853,3,14,-4,-11,-20,-7,-1,-2
1501876366412855,-7,-21,0,2,12,-7,-1,11
1501876366412855,-3,2,10,14,-10,-3,-4,-26
1501876366418920,5,14,-9,-11,18,3,2,20
1501876366418920,4,-3,1,-6,-4,1,1,13
1501876366435856,0,-8,13,11,-4,0,-3,-10
1501876366435856,0,-3,-23,-10,16,13,8,9
1501876366436856,-2,-7,-8,1,-15,-5,0,1
1501876366436856,0,2,4,1,-3,-4,0,-27
1501876366457926,-6,8,-2,-7,0,-4,-11,-12
1501876366457926,4,14,2,-22,-9,-2,-4,-11
1501876366459857,-3,-4,-7,-2,-18,-7,0,5
1501876366459857,2,-6,-5,0,19,5,1,14
