timestamp,emg1,emg2,emg3,emg4,emg5,emg6,emg7,emg8
1501879350544359,8,-1,-28,-11,9,8,10,10
1501879350544359,-17,-12,5,-23,-14,-4,-9,-42
1501879350545365,6,-12,19,107,4,-7,-19,-1
1501879350545365,19,0,-1,-102,-9,-3,18,16
1501879350558360,-26,30,8,24,-2,-1,3,-21
1501879350558360,64,6,-34,29,11,5,12,109
1501879350559367,-74,0,30,19,-7,-7,-2,-104
1501879350559367,-37,6,-13,50,5,-2,-36,-97
1501879350581361,14,-5,-24,-99,-23,-10,9,31
1501879350581361,-4,-19,-23,-48,-10,0,5,-25
1501879350582361,29,46,11,-6,0,2,11,114
1501879350582361,18,73,7,7,16,0,-1,-42
1501879350604363,6,-12,-7,21,5,4,-5,-65
1501879350604363,-19,-28,8,24,7,7,1,-39
1501879350604363,24,64,9,-22,-9,-6,13,72
1501879350604363,5,-52,-24,-32,3,5,24,103
1501879350618363,-39,30,-13,71,-11,-12,-37,-45
1501879350618363,0,-124,-9,-95,-15,-5,-4,-12
1501879350619362,-19,76,2,-4,0,-4,-25,-101
1501879350619362,19,103,-12,-46,4,2,21,104
1501879350641365,12,20,16,60,-1,2,18,51
1501879350641365,29,-13,-14,-45,-11,-7,0,50
1501879350642372,-28,-77,-17,29,3,2,0,42
1501879350642372,2,-32,6,0,-6,1,-3,-48
1501879350664383,-3,40,33,54,-5,-13,-45,-45
1501879350664383,39,121,13,60,15,6,12,80
1501879350664383,-43,70,42,22,4,3,-17,-120
1501879350664383,22,-23,-63,23,2,-1,17,118
1501879350678367,-49,-81,-12,-91,-3,-2,4,4
1501879350678367,32,94,38,43,5,5,15,81
1501879350679367,31,-70,-14,28,-22,-21,-24,-18
1501879350679367,-57,-47,36,13,40,8,20,64
1501879350701368,-8,-6,-16,62,13,17,-6,-1
1501879350701368,9,87,31,-82,-24,-9,-4,44
1501879350702367,-42,-73,-36,2,-2,-11,-4,-51
1501879350702367,17,-17,15,-87,-26,8,-25,-22
1501879350724370,-3,-85,-47,-34,-22,-7,13,-24
1501879350724370,-2,-19,3,-12,12,-3,3,-33
1501879350725376,17,23,7,22,26,8,16,108
1501879350725376,30,-4,9,31,-15,0,19,77
1501879350740370,-9,65,12,-31,24,7,-17,84
1501879350740370,-6,42,3,6,-4,-5,-19,-43
1501879350741370,11,-32,-32,-64,3,20,33,71
1501879350741370,-16,-48,-22,48,-82,-26,-19,-128
1501879350761375,39,32,51,-10,63,13,9,27
1501879350761375,-32,15,5,17,10,5,-5,-33
1501879350762373,10,27,-26,37,-24,-14,-10,7
1501879350762373,8,30,7,-57,15,13,-10,26
1501879350784373,-31,-31,-26,98,-47,-22,2,-48
1501879350784373,-26,-34,14,-15,20,-7,-10,-45
1501879350784373,32,12,32,-40,2,15,31,122
1501879350784373,-39,27,-42,-61,-45,-42,-55,-128
1501879350798374,-17,-16,20,48,11,6,7,-53
1501879350798374,2,-18,-27,11,29,4,7,-11
1501879350799373,-5,-3,23,18,-1,4,-10,-25
1501879350799373,22,10,38,61,23,5,22,103
1501879350821377,34,39,-14,-82,18,8,11,24
1501879350821377,-31,-45,-27,-47,-40,-10,-23,-69
1501879350822374,2,11,17,-60,-26,-17,2,-47
1501879350822374,17,-1,6,79,28,25,11,93
1501879350851376,-6,14,-29,0,-4,-12,-7,-37
1501879350851376,-3,-32,3,4,-11,3,13,30
1501879350852376,5,60,-7,-34,-17,-4,-22,-83
1501879350852376,-15,-8,-16,-5,36,-4,-4,-20
1501879350858383,30,8,24,-67,-37,2,13,68
1501879350858383,-24,-63,-30,48,-2,-12,-11,-2
1501879350859377,-10,21,-6,-3,13,11,7,47
1501879350859377,7,117,50,48,-13,-16,-7,-89
1501879350881378,12,-19,-81,-40,14,8,-6,2
1501879350881378,-14,14,-14,-8,-6,-1,1,-18
1501879350882379,26,25,35,53,-12,0,22,86
1501879350882379,-9,-53,-4,-22,15,1,-16,-34
1501879350904381,23,23,33,35,-15,-8,16,127
1501879350904381,-13,-39,24,29,2,7,-13,-3
1501879350904381,-8,-47,-19,-8,16,2,3,9
1501879350904381,3,11,16,8,-56,-8,-2,33
1501879350918380,12,26,-18,-36,53,11,7,-9
1501879350918380,-3,4,-3,31,-23,0,1,31
1501879350919382,1,48,30,34,0,-4,-2,-42
1501879350919382,14,-78,-24,-65,23,14,13,14
1501879350941383,-20,21,7,-7,-44,-18,-30,-38
1501879350941383,12,46,9,-3,34,9,4,30
1501879350942389,-12,-44,-47,-21,-4,-3,-6,-72
1501879350942389,11,54,55,40,11,4,6,26
1501879350964387,-12,-25,-15,-53,-41,-10,-2,-64
1501879350964387,8,-24,12,38,40,9,7,59
1501879350964387,-5,-31,2,-29,-42,-2,2,-22
1501879350964387,0,26,-5,26,105,7,-4,-23
1501879350978386,7,44,29,-1,-25,0,31,65
1501879350978386,-24,-84,-23,26,-59,-20,-46,-46
1501879350979384,-14,-37,-46,-80,37,9,-16,-27
1501879350979384,-6,-22,21,53,-30,0,4,-11
1501879351001386,0,23,2,-42,-3,4,8,20
1501879351001386,0,4,5,-8,4,0,7,-22
1501879351002386,-3,-4,5,24,1,-10,-9,4
1501879351002386,8,23,-7,-5,-100,-17,5,46
1501879351024387,4,-46,1,115,127,20,1,-10
1501879351024387,-6,-39,35,33,-32,9,-2,54
1501879351024387,0,38,-57,26,-22,3,2,29
1501879351024387,-22,-39,-32,-111,-23,-7,-14,-9
1501879351046387,21,31,38,57,-47,-3,22,67
1501879351046387,-6,-1,-2,-73,15,-8,-4,-52
1501879351047387,5,-13,32,36,23,7,-1,-7
1501879351047387,8,7,1,29,-13,-5,10,3
1501879351061389,-8,-2,11,88,20,3,-12,-1
1501879351061389,-3,36,-16,-62,-4,-2,3,-17
1501879351062391,-2,-21,32,-32,-14,-9,-10,18
1501879351062391,-3,-3,-38,6,33,6,9,27
1501879351084390,-11,-10,15,-2,-13,-5,-22,-71
1501879351084390,11,57,-13,11,-1,5,10,11
1501879351085390,-3,-29,-4,41,-28,-13,3,34
1501879351085390,7,-12,-1,-47,12,3,-11,-53
1501879351098392,-4,-14,2,21,5,4,-11,-1
1501879351098392,7,6,-21,62,-14,-10,8,2
1501879351105393,0,23,14,-68,-3,1,2,2
1501879351105393,0,-12,-7,33,18,7,6,25
1501879351129393,-8,0,7,-23,-7,-5,-10,-13
1501879351129393,11,23,-7,-8,-19,-2,5,7
1501879351129393,-9,-44,-2,36,58,2,-4,1
1501879351129393,-9,10,25,25,5,7,4,-14
1501879351151395,5,-23,-43,-68,-12,-1,13,56
1501879351151395,4,-3,14,13,-17,-2,-6,-16
1501879351153394,6,20,22,16,9,3,3,17
1501879351153394,-3,-11,-24,39,22,0,-10,-24
1501879351157397,-6,19,-8,-60,-39,-11,0,-4
1501879351157397,-5,9,-5,-20,33,8,4,-20
1501879351166395,19,21,1,-78,-21,-1,1,49
1501879351166395,-9,4,5,36,-13,2,-4,-48
1501879351181396,3,-28,-24,34,-2,-11,3,21
1501879351181396,-6,4,11,15,17,-3,0,18
1501879351183396,8,-8,11,-2,-15,6,0,-34
1501879351183396,-2,-28,-1,-63,7,-4,5,55
1501879351204397,-6,-11,-24,2,-6,1,-9,-30
1501879351204397,4,16,-2,-12,-34,-10,-1,-15
1501879351205396,-20,-14,-9,-18,32,1,-9,-28
1501879351205396,2,20,18,51,-9,1,4,7
1501879351217398,7,4,12,16,21,13,13,53
1501879351217398,-3,9,3,28,8,-1,-10,-34
1501879351226399,-4,0,-36,-16,-22,-4,-4,-11
1501879351226399,-14,-37,28,5,-13,-4,-2,-15
1501879351240399,9,-10,-21,-26,-5,-9,1,59
1501879351240399,-4,3,9,3,8,7,-7,-26
1501879351249400,1,4,28,77,3,2,10,20
1501879351249400,1,37,-7,-91,-16,-7,-2,-27
1501879351271414,17,45,20,59,39,11,3,37
1501879351271414,-4,-75,-31,-48,-24,-10,-1,49
1501879351273403,-11,28,-27,-19,-7,-7,-3,-36
1501879351273403,1,-26,-9,12,12,4,-8,-20
1501879351277404,-7,-1,15,-18,17,0,1,-47
1501879351277404,2,10,-6,31,3,-1,-1,-1
1501879351294403,12,37,-9,-41,-24,-1,-1,21
1501879351294403,-9,-35,-29,-2,0,-2,-4,-1
1501879351301405,-9,-12,24,-51,-19,-7,1,-5
1501879351301405,-5,7,0,15,-11,-8,-13,-46
1501879351303403,3,-9,-30,-1,32,3,1,22
1501879351303403,6,23,24,-3,-6,-2,2,-3
1501879351324406,-20,-47,-5,-36,-34,-9,-13,-30
1501879351324406,18,32,-23,-32,23,5,15,56
1501879351325405,0,-3,20,41,-37,-6,-1,5
1501879351325405,7,80,-6,-8,9,3,-11,4
1501879351337405,-7,-76,18,20,-26,-5,0,-17
1501879351337405,-6,5,2,-5,7,0,-3,-22
1501879351346408,2,-19,13,39,37,7,-7,-1
1501879351346408,-11,5,-9,-5,-7,-3,-3,-5
1501879351361406,7,21,-12,-35,-2,4,0,-23
1501879351361406,-4,4,5,-9,-2,-1,3,15
1501879351363417,0,-9,-31,-4,-12,-1,2,13
1501879351363417,7,22,22,18,-1,-2,-4,-8
1501879351391408,4,-5,-15,1,-10,-1,1,27
1501879351391408,-26,-47,-18,-42,15,1,-17,-92
1501879351393408,7,33,36,31,28,4,8,33
1501879351393408,-7,-25,-39,-20,-12,-3,-3,-2
1501879351397411,3,19,26,48,-12,-6,-4,6
1501879351397411,3,20,-40,-41,-10,5,7,11
1501879351406413,-2,-39,-14,-12,-41,-8,1,13
1501879351406413,-1,-13,-6,-19,11,5,10,0
1501879351421424,5,78,32,44,21,2,-4,-1
1501879351421424,4,-23,-12,-3,-9,-5,-7,-26
1501879351423410,-12,-16,8,12,-9,-4,-4,-8
1501879351423410,-3,-26,-13,-10,0,2,0,-18
1501879351444413,-7,3,-6,19,0,0,0,-14
1501879351444413,14,42,39,22,-3,-1,10,44
1501879351445412,-6,-11,-17,5,31,-9,-15,14
1501879351445412,2,4,11,-23,-10,2,-6,-21
1501879351466416,-4,0,-2,27,27,6,-2,-25
1501879351466416,3,3,31,8,-15,-1,2,40
1501879351468414,-6,-17,-29,19,-5,-3,3,-35
1501879351468414,7,17,3,-4,-6,-8,1,38
1501879351481423,-2,-13,-1,-24,-1,0,-6,-19
1501879351481423,2,-7,-13,-45,0,0,3,23
1501879351483415,-5,-2,6,-29,13,5,11,57
1501879351483415,-9,-11,-10,32,4,-3,-16,-49
1501879351504420,-4,-17,-11,-14,-53,-6,-9,-32
1501879351504420,0,3,29,-9,45,-1,10,9
1501879351505415,0,25,29,0,3,-4,-16,-56
1501879351505415,7,-6,-10,-8,-14,2,14,30
1501879351526418,-5,-26,9,43,15,-7,-10,24
1501879351526418,-8,9,-11,-36,-18,-4,-19,-39
1501879351528418,8,-13,-16,-43,-23,2,15,9
1501879351528418,1,-1,9,48,9,1,3,51
1501879351541419,-1,-3,-13,-36,-18,-4,4,36
1501879351541419,3,0,18,61,12,-1,-4,-16
1501879351543417,-2,4,-15,-25,5,0,-6,-8
1501879351543417,-2,-19,-12,-58,-10,-2,0,-21
1501879351571432,0,14,1,-29,13,3,10,-1
1501879351571432,1,21,14,80,12,3,4,17
1501879351573419,5,-19,-28,-95,-54,-8,4,39
1501879351573419,-10,-21,-27,11,30,4,-8,-34
1501879351593419,-6,-7,-15,-19,3,0,-2,-28
1501879351593419,5,-1,-6,2,-25,0,1,7
1501879351602424,7,28,18,55,28,2,2,4
1501879351602424,-9,-19,20,27,-21,-5,3,-1
1501879351602424,7,7,11,-8,40,3,4,30
1501879351602424,3,15,-17,-2,7,3,1,-15
1501879351604420,-2,6,-7,-20,11,9,2,8
1501879351604420,-1,15,-10,1,10,-7,-13,-23
1501879351624421,3,-36,10,39,-2,0,2,0
1501879351624421,1,-8,8,10,-34,-4,4,40
1501879351625423,-3,17,-15,-3,23,-2,-5,-39
1501879351625423,-19,-33,11,12,-6,0,-1,8
1501879351646445,2,20,-22,-16,-19,-7,-3,-24
1501879351646445,-6,-6,5,18,7,0,-1,12
1501879351648424,4,-14,19,30,-24,-6,-1,10
1501879351648424,11,22,12,-33,37,14,14,18
1501879351660424,-6,-23,-47,-20,-11,-5,-11,-17
1501879351660424,0,13,6,0,-2,1,2,17
1501879351667425,0,-23,27,-11,-2,-9,0,12
1501879351667425,4,20,30,50,24,1,-3,-29
1501879351684425,-3,-11,-15,6,-13,0,2,15
1501879351684425,0,11,-25,-99,2,1,-3,-28
1501879351686425,-1,-15,5,47,-25,-3,4,18
1501879351686425,-7,8,7,-2,2,1,-11,-63
1501879351706426,2,0,1,-10,14,2,-2,20
1501879351706426,-6,1,-2,31,6,-4,-1,-34
1501879351708427,-4,-5,-17,-70,-25,-1,-5,9
1501879351708427,-3,-24,-13,-16,-30,-14,-3,21
1501879351720441,2,37,0,20,2,1,-5,-25
1501879351720441,-8,-23,-11,-16,-12,-3,7,22
1501879351727428,-2,22,15,11,17,3,-8,-46
1501879351727428,4,-1,-4,23,0,-7,1,30
1501879351744429,-6,25,14,-20,11,6,-3,-23
1501879351744429,5,-31,2,-6,-16,-2,13,70
1501879351745429,-7,16,-5,11,1,-4,-13,-101
1501879351745429,4,-13,4,28,0,4,-1,36
1501879351766429,0,-26,-3,-8,-19,-3,9,23
1501879351766429,-3,24,-1,36,11,-5,-9,-32
1501879351768445,-3,-16,-5,-29,-10,7,-5,-14
1501879351768445,-5,4,-55,-50,-13,-5,2,20
1501879351781457,-5,-6,29,-7,11,0,-3,-35
1501879351781457,9,17,3,9,-2,2,5,38
1501879351789434,-20,-93,2,27,-21,-14,-6,-60
1501879351789434,2,32,1,7,76,25,5,-12
1501879351804432,5,-5,-8,-1,-19,-1,4,32
1501879351804432,-1,-2,-12,9,0,-3,-3,-11
1501879351805434,12,34,34,29,-3,4,7,15
1501879351805434,1,3,-3,42,-18,-4,2,2
1501879351826433,-1,17,-13,-66,-7,-6,-3,15
1501879351826433,6,-40,1,-9,-4,1,0,-7
1501879351828436,-3,-5,-16,13,14,-1,4,5
1501879351828436,-8,37,34,17,-84,-12,-4,-11
1501879351840436,-3,-4,-11,29,73,14,7,20
1501879351840436,1,22,-9,-15,-3,-4,-8,-4
1501879351847437,0,13,21,8,1,-7,-5,-14
1501879351847437,12,-20,-7,20,7,0,7,27
1501879351864450,-6,1,-2,18,-41,-11,-21,-48
1501879351864450,-5,-1,12,15,8,3,3,10
1501879351871436,-2,11,-12,22,20,0,-6,1
1501879351871436,1,-13,-18,-49,-23,-5,2,12
1501879351886437,-4,-20,11,8,9,-2,-6,-33
1501879351886437,-6,-12,6,21,35,0,1,-5
1501879351892437,-1,26,-9,-21,-15,2,-4,9
1501879351892437,2,-30,5,16,14,-7,7,16
1501879351900438,3,5,-2,-22,-15,2,0,33
1501879351900438,-4,8,-25,-15,-18,-5,-9,-19
1501879351907441,3,-11,12,46,28,7,-2,-3
1501879351907441,-4,-12,-26,-36,-25,-4,1,21
1501879351924439,7,27,13,-6,13,1,6,6
1501879351924439,-8,-10,27,27,2,0,-5,-25
1501879351925439,6,6,3,-25,-16,-3,3,40
1501879351925439,-1,3,-12,-6,13,3,-4,-11
1501879351946441,5,22,19,45,-8,-5,9,45
1501879351946441,-1,-3,-8,45,0,-1,-6,-31
1501879351948443,-4,-32,-12,-19,-21,1,-7,32
1501879351948443,0,13,10,3,14,1,-8,-18
1501879351960444,-6,1,4,-8,-12,-6,-3,-13
1501879351960444,4,-28,7,-4,3,-1,5,35
1501879351969442,-3,-17,-26,-2,5,0,2,-3
1501879351969442,-10,0,-8,-30,-4,-6,-7,-23
1501879351984441,4,6,9,40,-10,-1,4,17
1501879351984441,-2,5,4,2,-1,0,13,18
1501879351985443,-7,4,-35,-40,4,-3,-15,-46
1501879351985443,0,-8,4,-3,4,0,-6,7
1501879352006446,2,20,-17,5,-13,0,2,-15
1501879352006446,-2,26,32,3,20,2,-1,-3
1501879352008445,1,3,-21,-10,-3,0,9,29
1501879352008445,-4,19,7,19,-2,0,-2,-21
1501879352020445,2,-2,8,-8,5,-2,-9,-19
1501879352020445,3,-25,-8,-19,-14,2,-2,-4
1501879352029458,9,15,20,16,10,0,10,27
1501879352029458,-4,-16,-12,-9,10,1,-8,5
1501879352043448,-6,-19,9,0,-13,-3,6,9
1501879352043448,2,21,-15,-20,-1,-4,-18,-26
1501879352045450,-1,9,11,3,-2,-3,3,0
1501879352045450,5,-3,8,26,-7,-1,11,32
1501879352066447,-8,-12,0,-4,7,-4,-12,-34
1501879352066447,-2,2,9,18,4,5,5,18
1501879352068458,2,3,-13,-45,1,0,0,-1
1501879352068458,2,-14,-6,14,-6,-5,-8,-2
1501879352080448,-9,-12,-26,-14,-5,1,2,-20
1501879352080448,4,4,6,-3,-14,-4,0,13
1501879352089449,-3,-2,23,39,-2,3,-1,-4
1501879352089449,-4,-13,6,-41,20,3,1,4
1501879352104450,4,-9,-25,5,-20,-2,3,16
1501879352104450,-3,16,-2,10,-39,-12,-10,-32
1501879352105449,3,4,8,-8,37,12,6,6
1501879352105449,7,12,38,42,11,4,4,-13
1501879352126451,-5,6,-34,-14,-8,-2,-2,4
1501879352126451,3,-16,-37,-20,-30,-15,14,36
1501879352128452,-12,-14,4,19,-11,5,-18,-55
1501879352128452,2,1,20,50,33,6,-4,-15
1501879352149452,2,6,21,-42,-2,-7,-7,-6
1501879352149452,-4,-27,-24,-35,4,9,10,30
1501879352150454,3,7,-13,5,-12,-11,-4,-13
1501879352150454,-2,0,-17,-44,5,-2,-2,-20
1501879352164453,0,-1,21,16,3,5,-1,-1
1501879352164453,-6,-10,1,16,6,0,-5,-5
1501879352166464,3,8,10,59,0,-2,6,34
1501879352166464,-6,5,-4,-52,-33,-7,-3,-7
1501879352186455,5,-4,-19,-3,24,4,15,6
1501879352186455,-5,16,-13,-18,-8,-7,-14,-15
1501879352188455,3,-3,2,-17,26,8,5,16
1501879352188455,2,7,9,28,-23,-8,2,37
1501879352200455,8,-1,6,1,-2,0,-1,-22
1501879352200455,-9,-34,0,-2,6,2,-1,-31
1501879352215469,-2,-1,5,0,3,-3,-1,27
1501879352215469,-9,-5,-5,-2,-23,-8,0,-60
1501879352224457,0,7,3,-25,5,1,1,18
1501879352224457,5,2,-2,-14,-2,2,-3,-12
1501879352225457,-1,-11,1,29,22,3,8,11
1501879352225457,2,7,2,-54,-44,-7,-4,18
1501879352246494,-9,-20,14,79,41,6,-4,-2
1501879352246494,4,29,-16,-63,-19,-1,-2,4
1501879352248458,-4,-28,3,13,5,-5,7,11
1501879352248458,-3,-13,-31,-17,-7,4,-3,-28
1501879352260461,4,2,14,8,-14,-1,-3,-3
1501879352260461,0,16,16,19,0,-7,-7,-5
1501879352269461,4,8,6,-20,-3,-2,4,19
1501879352269461,-8,-11,-30,-18,1,3,6,20
1501879352284466,-7,-11,14,2,-5,-8,-7,-59
1501879352284466,9,29,22,37,17,12,5,5
1501879352285463,-7,-22,-43,-32,-20,-13,-15,-25
1501879352285463,5,11,6,14,1,-4,-5,0
1501879352306466,0,-2,-5,-17,1,2,5,32
1501879352306466,-5,0,22,29,13,0,2,8
1501879352308462,3,17,-11,-7,-13,-4,1,-12
1501879352308462,8,-10,11,20,6,0,0,9
1501879352320477,-2,-2,-14,-11,-3,0,-1,3
1501879352320477,1,-7,-16,-7,1,-3,-3,-2
1501879352329463,-9,-2,8,-47,1,3,3,-11
1501879352329463,-2,-15,-9,17,-3,1,6,6
1501879352344464,3,22,1,4,-10,-5,-8,-9
1501879352344464,0,-13,9,-8,-1,0,1,15
1501879352345473,-4,-17,-13,8,-11,-3,-7,-31
1501879352345473,4,24,20,50,8,0,4,22
1501879352366466,-8,-6,-4,-21,18,2,-5,-53
1501879352366466,5,0,-13,1,9,4,3,30
1501879352368466,1,21,-5,-62,-18,-1,-4,5
1501879352368466,-7,-2,16,-11,-10,-5,-6,-15
1501879352380487,4,14,-6,1,-24,-7,4,35
1501879352380487,-7,-18,-27,-26,-2,0,4,19
1501879352389467,-1,6,32,40,-7,3,0,-7
1501879352389467,1,11,-14,-21,30,1,-10,-13
1501879352404467,-9,-23,-2,-9,-23,-3,-6,-27
1501879352404467,-7,-4,9,13,19,-2,-3,-9
1501879352405467,-1,-10,-7,-24,2,-4,-1,5
1501879352405467,1,3,-3,0,3,-2,3,11
1501879352426469,-4,2,-1,7,-14,-4,-4,4
1501879352426469,6,9,21,18,-7,-1,2,-11
1501879352428470,-4,6,-3,4,12,2,-3,0
1501879352428470,5,-4,-10,-16,0,-2,1,34
1501879352449473,-11,-22,-16,-13,-12,-3,-9,-52
1501879352449473,0,5,-3,-5,15,-1,-3,-8
1501879352450470,3,11,12,6,-24,0,5,30
1501879352450470,9,11,9,3,19,1,-3,8
1501879352464481,-11,6,-7,-15,10,2,3,-1
1501879352464481,-3,-9,-45,-87,-27,-7,-3,-17
1501879352465471,-3,5,5,17,-23,-4,-4,-14
1501879352465471,0,-9,-8,-1,7,2,1,-2
1501879352486474,9,4,35,31,0,0,4,39
1501879352486474,-5,-18,-36,-13,4,0,-4,-18
1501879352488473,1,-7,-1,-3,-3,-3,-4,-4
1501879352488473,-6,9,7,7,-16,-1,1,-17
1501879352509474,8,-4,-9,-4,-8,-4,-2,33
1501879352509474,4,30,29,18,39,11,4,15
1501879352510473,-2,-35,-23,44,18,0,10,5
1501879352510473,-7,-11,3,-21,-15,-3,-16,-33
1501879352524474,-5,-20,-19,10,-3,1,-1,4
1501879352524474,-2,-11,13,5,-13,-2,-4,-2
1501879352525474,3,30,15,28,14,-2,-1,3
1501879352525474,-7,-7,-7,-25,-8,-1,1,6
1501879352546477,5,21,7,-9,-1,-2,3,14
1501879352546477,-5,-26,9,15,-20,-7,-8,-22
1501879352548476,-2,1,11,-3,20,4,2,24
1501879352548476,4,7,-19,2,8,1,3,-39
1501879352568476,-8,-20,-24,-59,-6,-2,-9,14
1501879352568476,2,20,15,13,-13,-5,2,-11
1501879352570478,4,-5,21,4,17,6,-1,-2
1501879352570478,-10,-18,-16,32,-21,-7,2,12
1501879352583477,-1,9,0,-23,15,11,7,-36
1501879352583477,0,15,-3,5,-5,-3,-6,4
1501879352590478,1,-17,13,-22,-20,-5,0,8
1501879352590478,3,12,4,14,13,1,4,17
1501879352606495,1,9,-9,51,-10,-7,-1,11
1501879352606495,-10,-28,-11,-59,0,-4,-6,-26
1501879352608480,5,14,-5,-2,0,1,-3,-4
1501879352608480,1,5,10,13,-7,-1,4,-23
1501879352636484,-6,-9,9,21,-3,-7,-6,42
1501879352636484,7,10,14,25,18,3,7,6
1501879352638484,-7,-11,-23,-38,-5,-3,-9,-22
1501879352638484,-5,3,-20,42,7,-1,-5,-21
1501879352643482,2,-29,5,-22,2,2,6,-6
1501879352643482,3,4,10,45,3,2,1,9
1501879352650482,-8,-5,-41,-75,-33,-6,-10,-28
1501879352650482,-6,-17,8,-3,20,2,2,26
1501879352666484,4,41,6,-2,10,1,0,-20
1501879352666484,1,-22,-2,12,-16,-5,5,44
1501879352668483,0,-14,7,34,-9,-2,0,-8
1501879352668483,-1,31,4,-36,6,2,-2,-11
1501879352688484,-2,-18,-5,3,-11,-3,-3,-4
1501879352688484,2,18,4,-19,1,4,2,1
1501879352690483,-4,6,-13,38,-12,-7,1,3
1501879352690483,3,-5,3,-22,-9,-4,-5,7
1501879352703501,8,7,17,29,14,7,11,23
1501879352703501,-4,9,-6,-43,-7,-1,-9,-33
1501879352710485,-2,-16,-13,16,4,-1,-1,27
1501879352710485,-1,-19,5,9,1,-7,3,24
1501879352726488,4,5,7,2,14,6,-5,2
1501879352726488,-9,17,3,22,-1,-1,2,-12
1501879352728486,-1,-11,-14,-41,1,-2,-10,-47
1501879352728486,-1,-18,-11,-9,-5,1,6,13
1501879352748491,-2,-4,-5,-5,-13,-7,-9,-25
1501879352748491,3,2,17,18,1,-4,-4,16
1501879352750487,-2,6,17,36,8,0,7,-3
1501879352750487,-3,4,-25,-29,-11,1,-2,-6
1501879352763508,9,-5,7,-6,4,2,13,32
1501879352763508,-13,-16,-4,9,1,-6,-18,-44
1501879352770503,3,17,0,-20,9,1,-3,-2
1501879352770503,2,-6,9,6,-26,1,2,25
1501879352786489,-5,6,14,-23,19,-1,-7,-24
1501879352786489,1,-16,-38,34,-12,0,9,30
1501879352788491,-10,-3,7,-25,-13,-6,-6,-30
1501879352788491,1,16,9,12,17,1,-9,-16
1501879352809491,0,-11,5,23,3,-3,0,8
1501879352809491,-6,12,15,3,2,4,3,3
1501879352810491,5,1,2,-1,-1,1,4,7
1501879352810491,-4,1,-2,-20,-6,0,2,6
1501879352823505,4,3,-2,-1,-15,-1,-2,-6
1501879352823505,7,-17,13,6,21,0,5,55
1501879352830497,-3,17,11,34,-7,0,-3,-67
1501879352830497,8,8,2,-19,30,6,1,7
1501879352846495,-6,6,-5,-7,-12,-4,-2,-14
1501879352846495,1,-14,3,-8,-14,-2,0,8
1501879352848494,-1,7,-18,-19,13,-4,-2,47
1501879352848494,-4,-2,4,28,5,-3,-2,-12
1501879352869496,-7,-12,-1,-2,-2,-3,-5,-24
1501879352869496,-2,-11,-13,42,-3,-3,-1,-15
1501879352870497,4,13,14,7,5,7,3,27
1501879352870497,2,8,-1,-12,-7,-4,-5,3
1501879352883495,-1,-11,7,48,4,-2,0,27
1501879352883495,-2,-8,-15,-104,1,0,0,-13
1501879352890512,-5,2,9,11,0,-3,-10,-14
1501879352890512,-4,-18,-6,-4,-26,-4,-3,6
1501879352906498,-5,-3,-26,-20,21,-1,-6,-30
1501879352906498,-5,4,-3,9,-4,-1,0,-2
1501879352908497,1,10,9,-4,2,2,3,-10
1501879352908497,4,-12,-15,8,-2,0,10,32
1501879352929518,-6,-2,11,30,6,-2,-7,0
1501879352929518,2,6,-17,-67,-17,-3,-6,-19
1501879352930509,3,-10,0,6,-9,0,6,42
1501879352930509,-9,14,11,-4,11,1,0,-34
1501879352942499,2,-13,-10,11,0,-1,2,-27
1501879352942499,-2,8,-7,-8,1,2,-3,-22
1501879352951499,-5,-5,-3,24,-11,-5,-1,1
1501879352951499,2,20,19,-12,-9,-4,-4,-1
1501879352966514,0,-25,-15,-24,21,2,5,12
1501879352966514,-4,6,3,29,3,2,-3,-2
1501879352968502,1,-13,6,18,-3,-8,-3,-7
1501879352968502,7,2,-24,-8,-16,1,6,35
1501879352988504,-9,3,-2,-20,8,0,-10,-44
1501879352988504,-2,-8,3,4,-7,-3,1,5
1501879352990501,1,1,16,-7,5,2,1,1
1501879352990501,2,-6,-17,7,-5,-4,-4,8
1501879353011515,-3,12,5,-16,-16,-6,3,-11
1501879353011515,3,-2,-8,-10,-14,1,0,39
1501879353013516,0,13,2,20,37,3,-2,-41
1501879353013516,-1,10,28,-3,18,1,-1,-5
1501879353026511,5,-27,-28,2,-26,-1,4,51
1501879353026511,-2,-1,11,47,2,-7,-3,-23
1501879353028505,4,6,0,-17,-3,6,2,15
1501879353028505,-2,-1,9,17,13,-3,-4,-22
1501879353048506,0,2,0,-10,4,1,2,25
1501879353048506,1,11,4,5,-7,-2,-1,-6
1501879353050505,-1,-4,-20,-8,0,3,2,12
1501879353050505,-5,-14,2,-3,-10,-5,-5,-20
1501879353062507,1,11,5,4,-8,1,5,15
1501879353062507,-2,9,-5,-18,-8,-2,-4,-34
1501879353071507,5,-3,-3,13,16,-2,5,25
1501879353071507,-6,-14,-6,-14,-7,1,-9,-15
1501879353086508,9,29,-3,2,2,-4,1,24
1501879353086508,-3,-20,1,-2,0,-2,-4,5
1501879353088508,-1,9,-1,-1,0,3,-6,-8
1501879353088508,-7,-23,0,9,0,-3,-2,-24
1501879353108530,0,0,20,-16,-8,-1,3,12
1501879353108530,2,-1,-15,53,20,3,2,-11
1501879353110510,-4,-2,-17,-26,-26,-3,-3,0
1501879353110510,2,8,6,2,13,3,3,6
1501879353122509,-7,-12,-4,-17,-15,-3,-7,-22
1501879353122509,4,8,15,5,12,-2,4,10
1501879353131510,-11,-24,12,14,-2,-6,-9,-25
1501879353131510,7,22,-3,17,-19,5,2,15
1501879353146520,-3,-4,-6,-15,15,-1,-1,-6
1501879353146520,-5,-28,-1,-13,0,-4,-4,-1
1501879353148511,-2,4,-1,-16,1,3,2,24
1501879353148511,-3,11,5,30,-1,-3,-2,-23
1501879353168512,0,6,0,5,-12,-4,-3,3
1501879353168512,1,-22,-2,-14,4,-3,-1,11
1501879353170512,-4,-14,-8,-15,-2,-2,-1,1
1501879353170512,-1,-2,11,6,8,0,3,16
1501879353182515,-3,0,-12,5,-7,1,-2,-44
1501879353182515,3,-3,-10,-22,-2,-3,-3,9
1501879353191515,-3,8,4,3,-4,-4,1,1
1501879353191515,-2,-14,-2,5,-14,-4,-1,18
1501879353205513,4,34,10,-22,22,-1,1,-5
1501879353205513,-11,-6,-22,-20,-19,-4,-11,-45
1501879353214515,3,-15,1,-17,-6,4,0,-5
1501879353214515,2,1,-6,0,12,-1,-2,8
1501879353229516,-3,1,5,-6,-15,0,-2,4
1501879353229516,-3,-12,4,0,0,0,2,10
1501879353230517,7,16,4,21,6,-3,11,47
1501879353230517,-10,-14,1,-10,-15,-4,-11,-64
1501879353242517,-5,-14,-15,17,5,3,-3,10
1501879353242517,10,18,1,0,18,5,1,3
1501879353251518,-4,-6,-1,0,-21,-5,-4,-3
1501879353251518,2,-7,-4,-15,11,4,5,17
1501879353266517,2,6,17,15,-23,-9,-4,-2
1501879353266517,2,4,-5,7,17,6,15,58
1501879353268518,-9,10,-10,-15,-3,-3,-18,-67
1501879353268518,1,1,2,0,6,0,-5,-12
1501879353288519,-2,-6,1,-6,-4,0,-1,8
1501879353288519,1,-7,6,13,-6,-4,1,18
1501879353290519,0,-2,3,-10,2,1,4,-1
1501879353290519,1,8,-2,-8,8,3,3,18
1501879353302521,-5,-16,-8,-7,-3,-3,-4,-31
1501879353302521,0,10,19,15,3,1,-1,-10
1501879353311521,2,-5,-17,-4,3,1,-1,10
1501879353311521,-10,-6,1,25,-26,-9,-9,-14
1501879353326520,4,4,-8,-24,45,10,8,24
1501879353326520,-6,4,-7,-8,-23,-3,0,-14
1501879353328522,6,5,8,13,16,0,-4,7
1501879353328522,-4,-5,1,10,-4,0,0,-18
1501879353349523,0,22,8,-2,-9,-3,-2,-3
1501879353349523,-4,-3,-16,-15,7,-1,-4,-12
1501879353351524,1,-8,6,24,-6,-4,4,9
1501879353351524,-1,-2,-5,-10,-2,-3,-2,16
1501879353371523,2,15,4,-1,-13,-2,1,1
1501879353371523,-5,-15,-4,-1,12,-2,-5,-12
1501879353373525,-1,0,-4,-17,-17,1,4,-1
1501879353373525,1,-7,-4,-22,-1,-5,0,4
1501879353386525,-5,-7,-4,17,15,1,-1,7
1501879353386525,8,33,10,8,-16,6,4,21
1501879353388526,-8,-16,0,-3,16,-1,-6,-16
1501879353388526,7,7,0,-6,-8,3,3,3
1501879353410529,-5,-22,-11,-15,-26,-5,-1,5
1501879353410529,1,19,4,6,-1,-2,0,8
1501879353415527,0,-2,1,1,-9,-6,-4,8
1501879353415527,-4,-6,-7,-9,2,-2,-5,-16
1501879353431528,1,1,-1,4,-7,0,2,11
1501879353431528,1,2,10,0,10,-2,5,11
1501879353433528,-7,-4,-8,3,-2,-4,-14,-64
1501879353433528,0,-17,-8,-10,0,2,3,17
1501879353446530,2,1,9,20,-1,0,-2,-5
1501879353446530,-2,4,-1,-2,9,4,0,-11
1501879353448529,0,-4,4,2,3,3,6,19
1501879353448529,-3,9,-4,-2,-1,-1,-3,-8
1501879353468529,-3,-14,-3,3,-10,-8,-6,1
1501879353468529,-2,11,7,-1,-6,1,-1,-12
1501879353470529,4,-8,3,-15,-5,1,3,0
1501879353470529,-2,-11,-4,17,14,-1,-2,7
1501879353491531,-2,21,-7,-11,-1,3,-1,-1
1501879353491531,-4,-13,-20,-22,-5,-7,-9,-16
1501879353493531,3,9,10,20,-9,-3,3,7
1501879353493531,-2,-7,-8,-19,-6,-5,2,8
1501879353505534,0,-12,0,3,14,0,1,0
1501879353505534,-4,1,4,25,-5,4,-4,-43
1501879353512539,-1,1,5,4,32,0,6,19
1501879353512539,-3,6,2,-4,-10,-4,-9,-17
1501879353536533,-2,-11,-3,-7,-9,0,-1,7
1501879353536533,0,14,7,-5,-9,-5,-6,6
1501879353538536,-2,-39,-36,-23,-8,-4,-6,3
1501879353538536,5,-19,6,11,-8,4,8,13
1501879353557535,-6,-11,-10,-5,9,-6,1,-10
1501879353557535,-2,-13,3,1,-12,-5,-4,1
1501879353567535,-1,14,5,-5,16,3,1,-9
1501879353567535,2,23,-7,-7,-4,0,1,6
1501879353568535,3,-15,-4,-1,0,-2,-3,-9
1501879353568535,-5,-1,8,-7,-5,0,1,5
1501879353572536,8,12,2,21,2,-1,6,23
1501879353572536,-13,-20,-12,-19,-5,4,-6,-47
1501879353588537,5,8,8,4,-1,1,0,5
1501879353588537,-2,-18,-15,-6,8,0,1,9
1501879353590538,-1,12,12,5,-9,-2,0,2
1501879353590538,2,26,6,23,3,-5,5,23
1501879353611552,-2,0,5,-10,0,0,-4,4
1501879353611552,3,-10,-2,4,-11,-4,-3,-22
1501879353613552,-3,-10,-14,-26,-14,-3,-2,1
1501879353613552,0,12,3,17,18,-5,-2,3
1501879353625540,1,19,-5,-3,1,3,2,-1
1501879353625540,-1,-14,1,0,-7,1,9,45
1501879353632543,-4,17,3,5,8,-3,-18,-48
1501879353632543,2,5,8,1,-3,-1,-2,-23
1501879353649542,-1,0,2,2,-6,0,0,0
1501879353649542,-4,9,-12,0,5,0,1,-5
1501879353655543,3,-33,7,-6,-11,1,4,16
1501879353655543,0,18,-5,-9,-2,1,0,4
1501879353671556,-7,-30,0,1,-8,-5,-5,-9
1501879353671556,1,-3,-5,-3,10,1,-1,-8
1501879353679543,-4,20,-1,7,-8,-4,0,7
1501879353679543,6,6,-3,-14,5,2,0,-14
1501879353685546,-3,-19,0,7,-12,-5,-1,7
1501879353685546,0,26,9,13,16,-1,-3,9
1501879353700542,5,6,-5,-13,-13,1,4,14
1501879353700542,-3,-6,-1,-2,8,-1,3,8
1501879353708550,0,5,3,7,-5,-1,-3,0
1501879353708550,-7,-23,-10,-7,6,-1,-7,-13
1501879353716544,-1,10,-2,-8,-3,3,3,17
1501879353716544,-5,-5,-4,5,4,-2,-5,-43
1501879353731558,0,12,-3,-5,-25,-5,0,5
1501879353731558,8,-5,5,-1,9,1,3,22
1501879353733546,-4,-4,1,13,31,3,-6,-18
1501879353733546,-3,33,4,9,-3,-1,1,4
1501879353745545,-3,-22,-3,-8,-20,-1,-1,-4
1501879353745545,3,13,7,-5,-7,-4,-2,-8
1501879353752550,-1,-13,-9,-15,-20,-2,3,1
1501879353752550,-1,10,1,6,15,-4,0,8
1501879353768548,5,3,-1,10,-1,-3,3,31
1501879353768548,-8,7,-2,1,-1,3,-10,-50
1501879353770547,-1,-11,7,13,18,0,0,-3
1501879353770547,-4,-18,-5,-21,-27,-2,-3,6
1501879353791551,2,3,-5,0,16,1,3,5
1501879353791551,2,-10,-5,-8,-11,-4,3,22
1501879353793553,-3,-1,-3,7,-6,-2,-4,-20
1501879353793553,-3,-6,-4,-7,9,3,-2,9
1501879353806563,0,13,4,-12,-7,-3,-2,-14
1501879353806563,-1,-8,-2,14,-16,-4,-3,-5
1501879353821550,-2,16,-8,-25,1,-5,-3,4
1501879353821550,4,-27,1,9,17,0,1,23
1501879353829551,-3,20,0,-5,-7,1,0,-10
1501879353829551,0,-3,-2,-6,-19,-3,5,27
1501879353831551,-1,-6,-4,3,0,-4,-8,-26
1501879353831551,-1,-12,-4,-7,-5,-3,-5,-1
1501879353851552,-6,0,-5,-3,9,2,-1,-7
1501879353851552,0,-8,-1,-6,3,-1,-1,2
1501879353853551,-1,13,3,6,-3,2,5,-12
1501879353853551,0,11,-2,-9,-8,-4,0,-6
1501879353865554,1,-7,1,17,6,3,0,-3
1501879353865554,-1,-18,-5,-9,5,-4,0,7
1501879353874556,-1,7,1,5,-14,0,0,10
1501879353874556,0,-9,-4,-10,31,-2,-2,13
1501879353888554,0,14,-2,2,-3,-2,-2,-27
1501879353888554,-1,-11,2,3,-4,-1,-5,-17
1501879353890556,4,11,0,-14,-4,-1,2,17
1501879353890556,-5,-16,0,6,-16,-2,-3,-8
1501879353911556,-3,-2,-1,0,1,-2,-1,5
1501879353911556,-1,5,-2,-2,5,0,0,-6
1501879353914566,-3,4,3,8,0,0,-2,0
1501879353914566,0,-19,0,10,6,4,5,18
1501879353925555,0,-6,-4,-15,-16,1,2,-3
1501879353925555,-2,11,-2,-5,8,2,-2,-16
1501879353934557,0,-16,-2,-4,-15,-6,0,33
1501879353934557,-1,12,3,1,1,2,-3,-35
1501879353956557,-2,-3,-1,5,19,-3,2,13
1501879353956557,-3,-3,-2,-3,3,1,0,-7
1501879353958558,-3,-10,-1,2,3,-1,-1,-1
1501879353958558,3,20,1,0,-8,-2,0,9
1501879353971573,5,-13,4,-4,-2,-1,-2,4
1501879353971573,0,-8,2,1,4,-1,0,2
1501879353972559,-4,-8,-7,-4,2,-1,1,9
1501879353972559,2,0,1,13,-7,-3,-1,15
1501879353993561,-1,0,-3,-13,2,-1,-1,1
1501879353993561,-1,-18,-1,-1,1,2,-3,-14
1501879353995560,-1,6,2,-8,-1,0,3,3
1501879353995560,-4,-4,-1,2,-25,-9,-1,27
1501879354008561,3,-4,-4,-6,7,5,-4,-24
1501879354008561,4,19,1,-2,10,1,-5,-2
1501879354010561,-5,-3,-1,14,1,-1,-3,-11
1501879354010561,-3,-15,-4,-18,1,4,1,-14
1501879354031564,-1,-8,-2,0,-1,-6,0,33
1501879354031564,-2,10,-1,1,-6,-2,-2,-3
1501879354033562,-4,-9,-2,0,-8,-1,-2,-13
1501879354033562,1,-1,5,3,3,3,1,13
1501879354053481,1,9,-3,6,10,0,3,6
1501879354053481,-1,-5,-4,-8,-11,3,-2,-18
1501879354055487,-1,2,2,9,5,-6,-6,2
1501879354055487,1,-4,-1,-7,-6,1,0,-16
1501879354068489,-5,7,3,0,-13,-2,-7,-3
1501879354068489,0,-5,-3,10,3,-9,2,11
1501879354070488,5,3,1,-3,20,8,4,2
1501879354070488,-1,-2,-1,-8,-6,3,-3,6
1501879354091491,-1,8,-3,-9,-9,-1,2,-35
1501879354091491,-10,-11,0,0,-6,-6,-3,12
1501879354093489,-1,3,3,-4,-7,-3,-3,-14
1501879354093489,3,3,0,10,20,1,1,3
1501879354105492,3,22,0,-12,-15,-1,1,36
1501879354105492,-2,-18,-9,0,-7,2,0,-25
1501879354114491,4,4,-5,-7,0,-3,-3,-27
1501879354114491,-1,3,-1,-4,-7,0,3,-4
1501879354128492,-8,-4,-2,20,-10,-8,-8,-5
1501879354128492,3,3,3,-15,6,5,3,5
1501879354136492,-2,0,0,4,9,-1,-1,16
1501879354136492,3,10,-2,-16,-9,2,1,-6
1501879354151493,0,-15,-1,1,5,2,1,-11
1501879354151493,-2,-8,1,8,0,-5,-2,10
1501879354153495,0,10,2,2,-25,-5,-1,4
1501879354153495,-5,-17,-1,-2,19,-3,-5,5
1501879354165496,-2,-9,-2,3,17,3,0,6
1501879354165496,-3,-10,-2,4,-7,0,0,14
1501879354174496,1,-7,-2,-12,4,1,1,-7
1501879354174496,-4,9,-1,1,-9,-4,-5,-15
1501879354189495,2,-13,-7,-5,-3,-1,-2,5
1501879354189495,-5,12,5,-5,-8,-3,0,3
1501879354190497,-3,0,-5,4,9,-2,1,-4
1501879354190497,-4,-10,-4,0,-12,-2,-1,5
1501879354211499,-2,-9,-1,0,-2,-1,0,0
1501879354211499,3,14,0,-2,-1,-6,-1,0
1501879354213505,-1,0,2,6,5,5,2,2
1501879354213505,3,21,0,-1,7,2,-1,4
1501879354225513,-6,-5,-1,-2,1,-2,-2,-9
1501879354225513,0,-18,-4,1,-3,-3,-2,9
1501879354234499,-1,-1,0,2,-11,-2,-3,-32
1501879354234499,3,-5,1,5,8,-1,3,12
1501879354248502,-3,14,4,3,-4,1,-1,-18
1501879354248502,2,12,1,-2,-4,-1,-1,-1
1501879354255514,-1,-7,-1,-2,-6,-2,1,33
1501879354255514,-2,-11,-4,-12,3,-3,-1,-22
1501879354271515,-3,2,2,6,2,-1,-2,0
1501879354271515,0,-2,0,-8,-8,0,2,-5
1501879354273503,1,18,-3,-1,-5,-2,-2,7
1501879354273503,-1,-2,-1,7,-1,4,0,4
1501879354285504,-3,-15,-4,-4,18,0,0,3
1501879354285504,1,12,-1,4,12,-1,-2,-12
1501879354294505,1,5,1,-5,-17,-3,-2,11
1501879354294505,-4,0,2,0,-16,-5,-3,-1
1501879354308519,0,0,-3,-6,0,1,-1,-4
1501879354308519,-2,-5,0,12,-2,0,0,7
1501879354310502,0,-13,-5,-20,3,0,0,-3
1501879354310502,-1,-11,-2,6,-8,-4,0,-3
1501879354331504,1,-4,-5,-10,-10,-2,-5,-11
1501879354331504,1,19,1,3,14,-1,0,3
1501879354333508,1,-17,2,9,6,-1,0,1
1501879354333508,-9,-14,-7,-7,-11,-4,-4,-2
1501879354353539,1,1,-1,5,8,2,3,5
1501879354353539,1,-5,-3,-6,-13,-1,1,-1
1501879354355517,-5,-2,-1,-1,13,-4,-6,-17
1501879354355517,1,4,1,-5,-20,-1,1,-4
1501879354369531,0,18,0,2,10,1,-3,-7
1501879354369531,-1,-29,-7,-4,2,-1,0,16
1501879354370506,-2,10,0,-3,-10,0,-3,-24
1501879354370506,0,-22,-1,3,-11,-4,-3,12
1501879354391522,-3,22,3,8,17,4,-2,-26
1501879354391522,0,-6,-1,-16,-1,3,3,10
1501879354393509,0,-20,-2,2,-11,-5,-6,4
1501879354393509,-5,-10,-4,2,7,-1,-2,-11
1501879354413508,1,-11,-1,-3,-8,-3,0,4
1501879354413508,-1,15,0,4,1,0,-2,-8
1501879354415508,-1,0,-4,-3,-4,-2,2,12
1501879354415508,-1,10,0,-2,8,1,-2,-5
1501879354436509,1,-3,-1,-5,-15,-4,-2,10
1501879354436509,-3,2,1,4,6,-1,-4,-11
1501879354438510,-4,-13,-5,-5,-9,-2,1,-1
1501879354438510,2,10,-2,-5,7,2,-2,-3
1501879354451531,-1,7,-1,3,-14,-4,1,-1
1501879354451531,-5,-13,-2,-4,7,0,-3,1
1501879354453510,4,-8,0,4,21,3,2,16
1501879354453510,-6,2,0,1,-4,0,-5,-27
1501879354473567,3,12,-1,-4,-9,-3,1,17
1501879354473567,-4,-1,2,2,-12,-1,-3,-32
1501879354475524,-2,0,-1,-2,2,-3,-6,-7
1501879354475524,4,0,-3,1,3,3,5,17
1501879354488568,-3,-5,0,-6,0,-1,-2,-1
1501879354488568,2,9,0,7,-4,-1,-3,-3
1501879354495512,1,6,-2,5,4,0,3,6
1501879354495512,4,18,2,0,-9,-5,2,16
1501879354511515,-4,-16,0,1,10,-1,-4,-9
1501879354511515,-6,-17,-8,-11,-1,3,-3,-2
1501879354513514,0,2,2,4,-19,-3,-1,11
1501879354513514,1,-5,1,4,2,-4,-4,-1
1501879354533536,2,-6,-2,2,-11,0,6,21
1501879354533536,1,11,3,-13,5,0,-2,-27
1501879354535515,-2,7,-3,1,7,3,-1,-1
1501879354535515,1,-4,-2,-5,-2,-3,-1,15
1501879354548519,0,4,3,7,-6,-4,-3,-15
1501879354548519,-1,-23,-3,-8,-3,-3,2,0
1501879354555532,2,15,1,-4,-9,2,3,8
1501879354555532,-2,-1,1,-1,-3,-2,-3,-8
1501879354571551,4,-12,0,3,5,-1,0,10
1501879354571551,-2,27,3,-2,-8,3,2,11
1501879354573521,-4,-4,-3,-7,10,-2,-2,-1
1501879354573521,-4,-44,-9,4,11,1,-5,-14
1501879354593519,0,12,1,0,1,1,0,-6
1501879354593519,-1,-1,-1,6,0,-3,1,15
1501879354600518,0,0,1,0,-2,-4,2,9
1501879354600518,-5,11,-3,-5,-2,2,-4,-11
1501879354608559,-6,-17,-4,-4,0,-3,-1,3
1501879354608559,3,0,2,6,-1,0,3,4
1501879354622571,-7,-1,-6,-4,-10,-4,-6,-26
1501879354622571,6,-1,-1,-3,-4,-4,-2,11
1501879354631523,-2,2,-5,-8,-22,2,-1,-11
1501879354631523,-2,-10,1,17,36,0,-2,4
1501879354633521,-2,18,1,-22,-4,3,3,-2
1501879354633521,-2,-19,-4,0,-5,-5,-2,4
1501879354654538,-5,-12,-3,0,12,3,-2,1
1501879354654538,0,5,1,2,-17,-5,2,2
1501879354655523,-2,-11,0,8,18,5,-2,-7
1501879354655523,2,7,2,0,-8,2,4,6
1501879354668559,4,8,0,-2,9,-6,0,41
1501879354668559,-6,-11,-2,-7,-3,0,-7,-25
1501879354675571,1,-12,-1,5,0,1,-2,-10
1501879354675571,-5,7,0,-4,1,0,0,-9
1501879354691562,1,-10,-1,-1,-7,-2,1,3
1501879354691562,0,9,-4,-3,-5,-3,-1,4
1501879354693526,3,6,0,4,9,0,-1,4
1501879354693526,3,11,0,-7,2,6,5,3
1501879354714526,-2,-5,2,-1,-2,-4,-6,-22
1501879354714526,-6,-33,-11,-5,2,1,-1,-1
1501879354716525,-2,-4,-1,1,-7,-4,-3,8
1501879354716525,0,6,-2,1,-16,-7,-3,-3
1501879354728554,-2,10,5,1,17,2,-1,-29
1501879354728554,-1,20,2,-8,-6,-3,-6,5
1501879354735528,1,-9,0,5,-4,-2,2,8
1501879354735528,0,0,1,2,-7,-3,-2,-9
1501879354751529,-1,1,-5,-5,9,0,-1,6
1501879354751529,2,1,0,1,-10,-1,0,10
1501879354753550,-2,0,0,5,2,-2,-3,-10
1501879354753550,-1,3,2,-1,0,-1,0,0
1501879354773584,-2,23,2,0,-11,-3,1,-20
1501879354773584,0,-23,-8,-7,7,0,-4,11
1501879354775534,3,14,3,-3,-10,0,0,10
1501879354775534,-4,-19,-6,8,15,-1,-3,-12
1501879354788550,2,-4,0,-9,-10,4,2,12
1501879354788550,1,8,1,1,-8,-5,0,-7
1501879354795530,-1,11,-2,-3,0,0,0,-8
1501879354795530,1,-2,1,1,4,-3,1,4
1501879354811532,0,-3,-4,-5,-1,-2,-5,2
1501879354811532,0,-3,3,0,-3,-2,0,-5
1501879354813532,-1,-11,1,1,-7,-4,-2,-8
1501879354813532,0,-4,-4,-5,3,0,1,1
1501879354833553,-4,-7,-4,-1,-8,-3,0,1
1501879354833553,-1,4,-3,5,13,2,-3,-8
1501879354835532,0,-13,-1,-3,5,-1,-2,3
1501879354835532,0,23,4,1,-5,1,2,4
1501879354847538,-2,-19,-6,-9,-11,-1,-3,-15
1501879354847538,-4,-3,-7,-7,-20,-5,1,29
1501879354856546,-5,-6,-2,5,4,1,-1,-28
1501879354856546,0,18,3,-1,2,3,-2,6
1501879354872569,2,-10,0,3,-1,-4,2,30
1501879354872569,1,9,2,-5,-8,0,-4,-37
1501879354873535,-2,-14,-1,10,13,1,1,7
1501879354873535,-1,5,0,3,-7,-2,-1,-14
1501879354893536,-1,-1,1,7,13,2,2,23
1501879354893536,0,-2,0,6,-2,-1,0,5
1501879354895537,-3,-11,-5,-23,-6,-1,0,-2
1501879354895537,-1,-13,-2,1,0,-1,-6,-19
1501879354907552,-2,-1,-1,-6,7,4,0,-8
1501879354907552,-4,0,-1,-5,6,-1,-2,5
1501879354916537,3,3,0,2,-16,-2,-2,3
1501879354916537,-3,-1,1,4,10,-4,-2,8
1501879354931538,4,1,1,0,13,5,4,14
1501879354931538,-2,2,-2,-4,-17,-1,-3,-25
1501879354932560,-1,6,1,9,23,1,-1,3
1501879354932560,1,-1,-3,-9,-12,-2,1,2
1501879354953545,-5,0,3,10,-10,-4,-6,-18
1501879354953545,3,8,-1,-9,7,3,5,18
1501879354955545,-6,-24,-6,-3,-14,-7,-7,-26
1501879354955545,-1,-5,-3,5,4,-2,1,10
1501879354967572,-3,2,-3,-15,3,0,-1,-22
1501879354967572,0,6,1,1,-18,-2,0,17
1501879354976542,2,7,-4,-3,9,-1,1,11
1501879354976542,-5,-5,2,8,-1,-1,-3,1
1501879354998542,0,0,-2,-4,-21,-7,-1,7
1501879354998542,3,0,1,9,36,9,6,-12
1501879355000547,-2,2,0,-4,-13,-2,0,-3
1501879355000547,1,1,0,-7,-3,-1,0,-1
1501879355013545,1,35,1,13,-3,-1,2,19
1501879355013545,-7,-58,-10,-13,-2,-8,-9,-18
1501879355015543,4,13,2,3,4,0,0,-7
1501879355015543,-1,-12,0,4,-12,0,3,30
1501879355027553,-4,-15,-2,-15,4,1,-4,-30
1501879355027553,2,12,2,8,3,0,1,6
1501879355036544,-2,19,0,-6,-15,1,0,0
1501879355036544,-2,-7,-3,3,-13,-7,-3,-4
1501879355051548,1,-12,-1,3,35,9,-3,-12
1501879355051548,1,13,3,3,-4,-2,0,1
1501879355053547,0,-11,1,-3,-2,1,-1,8
1501879355053547,-4,8,-4,-8,-12,-1,1,5
1501879355073566,-3,-17,-3,-2,-4,-8,-3,-6
1501879355073566,3,3,3,6,-5,3,3,17
1501879355075549,-3,25,-2,-3,-11,-5,-6,-17
1501879355075549,-1,-15,0,-5,8,0,-1,-28
1501879355087548,-2,-9,-7,-1,11,2,-1,-2
1501879355087548,-3,10,3,-12,-11,-3,-3,11
1501879355096548,-8,-23,-4,3,-8,-7,-1,3
1501879355096548,4,5,-3,-7,9,4,-2,9
1501879355111552,-1,5,0,-2,-9,-6,-3,0
1501879355111552,0,0,2,10,-3,3,3,-7
1501879355112549,2,4,2,0,-4,0,-1,-1
1501879355112549,-2,7,-3,-5,13,-3,-5,-3
1501879355133550,0,-9,1,5,-33,-3,-3,5
1501879355133550,-3,-3,-6,-4,18,-6,-2,-12
1501879355135550,-1,-3,-4,-6,14,6,4,20
1501879355135550,-3,-11,1,1,-6,0,-2,-16
1501879355147551,3,7,2,0,-6,-4,-2,12
1501879355147551,-3,-19,-5,0,-9,-5,-3,-9
1501879355156551,-5,-4,-1,-7,4,-1,-1,0
1501879355156551,2,2,-1,0,-1,1,1,-3
1501879355171566,-1,1,-1,2,9,0,1,0
1501879355171566,4,9,1,2,-5,-1,-1,9
1501879355173556,-2,-4,0,2,1,-2,-1,2
1501879355173556,2,-2,-2,1,1,3,-2,0
1501879355194553,-1,4,1,-3,-7,-2,-1,-2
1501879355194553,1,11,-1,-4,1,-2,0,5
1501879355200556,0,7,1,5,2,-1,-10,-37
1501879355200556,-2,-12,1,-7,-7,2,1,5
1501879355207555,-4,-14,-4,4,16,1,1,-2
1501879355207555,2,13,0,-2,-3,-2,-2,-10
1501879355216556,0,-7,-2,-2,-7,-2,1,24
1501879355216556,-1,18,-1,-9,-7,-2,-3,-16
1501879355231556,-3,-15,1,9,6,-1,-3,-9
1501879355231556,-3,-9,0,-8,8,1,4,9
1501879355232557,5,15,2,4,-8,-1,-3,-10
1501879355232557,-3,-9,-4,4,12,-1,-2,17
1501879355254561,4,4,-1,-8,-7,0,3,10
1501879355254561,-6,2,0,6,-2,-2,-4,-31
1501879355255558,0,1,-2,-3,-20,-4,-3,-1
1501879355255558,-3,-11,-3,1,19,3,6,12
1501879355276559,-3,12,-1,1,4,0,-8,-26
1501879355276559,1,-7,0,3,0,-1,-4,11
1501879355278559,0,6,1,2,-5,-2,2,1
1501879355278559,0,1,2,-11,-15,0,-2,-5
1501879355291574,-5,-7,-6,5,9,-3,1,8
1501879355291574,1,4,-2,-6,-8,1,0,12
1501879355293562,-4,-13,1,-3,5,-2,-2,-26
1501879355293562,-4,-1,-3,0,-7,-2,0,8
1501879355321562,3,2,-1,1,-13,-3,-1,-7
1501879355321562,-2,7,-1,-4,4,0,-3,11
1501879355323563,1,-6,-4,1,-3,0,4,20
1501879355323563,2,-8,-2,-1,-5,-7,-1,0
1501879355336581,-1,4,-1,1,12,5,1,7
1501879355336581,-2,-5,1,4,1,1,-1,-20
1501879355337583,0,9,0,-5,0,0,2,10
1501879355337583,-2,13,2,5,8,-1,-5,-17
1501879355351565,0,-16,-5,-10,-15,-5,-3,16
1501879355351565,-1,-12,-1,-2,-7,-5,-1,0
1501879355353590,-1,6,0,12,17,5,4,25
1501879355353590,-4,3,3,-26,-8,1,-3,-44
1501879355373599,-2,-6,-2,1,-16,-4,-2,1
1501879355373599,-2,-11,-2,-4,23,3,1,0
1501879355375565,1,-3,1,4,-4,-1,-2,1
1501879355375565,0,4,-3,7,9,-4,1,6
1501879355396565,-6,0,-4,-5,-16,-3,0,-8
1501879355396565,1,0,0,-3,-12,-3,0,-1
1501879355397586,0,0,-2,-4,8,-2,-6,-3
1501879355397586,-1,-7,0,-1,-8,-3,-3,7
1501879355410568,-3,2,1,-3,3,-1,-3,-12
1501879355410568,-2,2,1,7,-10,-1,-1,10
1501879355417596,2,11,1,-8,8,3,2,6
1501879355417596,-1,-17,-5,3,-7,0,-2,4
1501879355433577,-1,-5,2,0,-5,-1,-2,-8
1501879355433577,-2,-3,-1,-3,0,-4,-2,-2
1501879355435571,-1,9,0,5,0,-1,-1,-2
1501879355435571,3,-2,1,-2,-3,2,1,1
1501879355456624,-5,-17,-1,0,4,2,2,9
1501879355456624,-1,9,1,-2,-2,-1,-1,1
1501879355458574,-2,-18,-8,-6,-5,-2,-3,0
1501879355458574,2,15,0,1,2,0,1,6
1501879355470608,-1,7,0,1,-6,-3,-6,-10
1501879355470608,-3,-4,-3,-1,5,0,-2,-8
1501879355477585,-1,-11,-3,-5,0,-5,0,2
1501879355477585,-3,-4,3,8,-3,2,2,-4
1501879355494571,0,-2,-3,0,2,0,1,1
1501879355494571,0,13,0,-9,-10,-4,-1,-5
1501879355496587,-1,-24,-3,-3,7,-2,-1,-3
1501879355496587,-5,-3,-2,3,1,1,-1,-1
1501879355523627,2,11,1,-1,-7,-3,2,2
1501879355523627,3,13,0,3,-3,3,0,0
1501879355525584,-3,-16,-2,5,12,0,-1,1
1501879355525584,1,3,0,-17,-16,-3,0,7
1501879355530594,2,5,0,9,15,4,-1,1
1501879355530594,0,-1,-3,-11,-12,-4,-3,-4
1501879355537610,-6,-1,-1,-3,-5,-2,-7,-34
1501879355537610,1,2,-4,4,1,-2,-1,10
1501879355553601,0,5,0,-3,1,-1,0,3
1501879355553601,0,-5,-1,-4,1,-2,2,2
1501879355555580,0,14,1,8,2,-1,-1,2
1501879355555580,-1,-5,-3,-3,9,2,0,-2
1501879355576597,1,-13,-1,-5,-7,-1,3,18
1501879355576597,-3,-1,-2,5,-2,-1,-6,-29
1501879355577578,-4,5,0,-4,-7,-2,-3,-2
1501879355577578,0,-10,-2,7,2,-2,-2,-3
1501879355598577,1,6,-4,0,-1,-3,1,13
1501879355598577,-7,-3,0,-1,-5,-2,-3,-17
1501879355600577,-1,-2,0,-7,-4,3,0,1
1501879355600577,0,4,2,11,13,-1,0,-13
1501879355621640,-2,7,-2,-13,-11,-1,-2,-9
1501879355621640,-4,-8,-4,2,1,-3,-3,6
1501879355622599,5,5,-1,-3,-7,-2,1,0
1501879355622599,2,1,0,2,3,0,0,8
1501879355636582,-3,-15,-3,-8,-5,0,-2,-10
1501879355636582,1,1,1,2,-9,-2,1,4
1501879355638584,-1,-3,-6,-6,4,-1,0,3
1501879355638584,-1,7,-1,8,4,-1,0,4
1501879355650601,-3,-1,0,-12,-6,-1,0,-7
1501879355650601,4,3,-1,1,0,1,-2,3
1501879355657592,3,3,0,-4,-7,-2,-2,3
1501879355657592,-1,-2,-1,2,-5,-3,-4,-2
1501879355673589,0,4,2,6,5,-1,-1,5
1501879355673589,-2,-16,-1,2,10,3,5,4
1501879355675589,-3,0,-3,0,-10,-3,-7,-22
1501879355675589,-4,3,-5,-4,8,0,-5,4
1501879355696582,-1,-13,-1,2,4,0,-2,-4
1501879355696582,1,-5,-2,-2,-11,-2,2,10
1501879355698584,3,15,0,2,8,0,0,3
1501879355698584,-2,-12,-1,1,-11,-6,0,0
1501879355710587,-2,7,-2,-10,0,2,1,12
1501879355710587,-1,-5,1,5,9,1,-1,-2
1501879355717613,0,2,-2,-3,-9,1,0,3
1501879355717613,0,2,1,-2,-6,-1,1,-6
1501879355733603,1,9,1,5,2,-4,-1,0
1501879355733603,0,-9,-2,0,-5,-3,-3,1
1501879355735593,-3,-1,-1,-2,-6,-1,-1,1
1501879355735593,1,10,0,-6,12,-1,3,15
1501879355756595,-2,2,1,15,-13,-1,-4,-29
1501879355756595,1,2,1,-14,12,3,0,0
1501879355757589,-3,-11,-3,0,1,0,-2,-3
1501879355757589,-3,12,1,-3,-1,-1,0,-1
1501879355770603,-2,-16,-1,2,-2,-3,-2,-1
1501879355770603,-4,-9,-5,10,4,2,1,0
1501879355778617,2,-4,-2,-13,-9,0,5,9
1501879355778617,-2,-6,-4,-5,-9,-1,-4,-16
1501879355793606,2,9,-1,-3,1,-2,1,14
1501879355793606,-3,11,1,-1,3,-3,-7,-13
1501879355795590,-2,-7,0,-1,-5,-3,-2,3
1501879355795590,0,-3,-3,1,-3,-1,0,-4
1501879355815594,0,-1,-4,-1,10,0,0,2
1501879355815594,5,8,0,-2,-2,3,4,10
1501879355832591,-3,1,-1,2,-2,0,2,-2
1501879355832591,-3,-8,0,-3,-6,-3,-5,-13
1501879355833591,-1,0,-3,0,-9,-6,-2,-2
1501879355833591,-2,1,1,2,-3,0,1,4
1501879355838612,2,-5,0,8,23,2,-2,0
1501879355838612,-1,6,-4,-20,-26,-1,0,5
1501879355853636,-1,-21,-4,-1,10,-1,-1,3
1501879355853636,-2,7,-2,-6,-25,-4,-4,-3
1501879355855592,0,-3,0,8,14,1,-1,-1
1501879355855592,1,-5,-2,-2,1,0,0,2
1501879355876596,1,9,2,0,4,2,3,-4
1501879355876596,-1,3,-2,-5,-2,-4,-2,-3
1501879355878598,0,11,0,1,-8,-3,-3,-4
1501879355878598,-1,-33,-5,0,-4,-3,-1,16
1501879355889594,0,11,2,-1,12,1,-5,-16
1501879355889594,-3,-1,-1,-2,7,1,1,-6
1501879355899596,1,-4,-5,-7,-10,-2,3,32
1501879355899596,-7,12,2,1,7,1,-9,-54
1501879355914598,-1,-15,3,-1,-20,0,-1,-6
1501879355914598,-3,-3,-1,10,11,-2,-4,-11
1501879355915598,-2,-8,-2,-17,-6,1,2,4
1501879355915598,1,-3,-2,3,0,-1,1,14
1501879355936599,-2,1,-1,1,-2,-1,-2,-6
1501879355936599,-2,16,2,-8,-4,-4,-1,9
1501879355937617,0,-6,-1,7,5,2,-1,-1
1501879355937617,-1,-9,2,5,6,0,1,-1
1501879355949599,-2,9,-2,-3,-2,-3,-1,6
1501879355949599,-1,-9,-2,6,-4,-2,-2,1
1501879355958602,-3,6,1,-3,9,1,-5,-23
1501879355958602,-2,-1,-1,-2,-1,-1,-1,5
1501879355973667,2,5,-4,-4,-1,3,-1,-2
1501879355973667,0,-4,-3,-1,-4,-3,1,-2
1501879355975604,-2,2,0,3,-2,-3,-1,1
1501879355975604,-2,2,1,5,2,3,3,0
1501879355996600,0,-7,-4,-4,-4,-3,-2,4
1501879355996600,-1,-11,1,0,-1,-1,-1,0
1501879355997603,-3,-6,-1,1,-1,-2,-3,-5
1501879355997603,-3,0,-4,-2,3,-2,0,5
1501879356009603,2,5,1,2,2,-3,-1,-5
1501879356009603,0,0,-2,5,1,2,1,17
1501879356018603,0,-12,0,-14,-13,-3,-2,-3
1501879356018603,-2,3,0,1,-4,-1,-2,-19
1501879356034604,3,15,1,0,4,-1,1,17
1501879356034604,-2,-6,-4,0,2,0,0,-27
1501879356035603,-3,-8,-1,1,-3,-2,1,-1
1501879356035603,3,13,1,2,-3,-3,-1,12
1501879356056605,-5,-15,1,-3,3,1,-1,-11
1501879356056605,2,5,1,4,0,-4,-2,4
1501879356058605,1,13,-4,-11,-10,1,1,5
1501879356058605,3,-10,1,-1,5,0,1,-1
1501879356070654,-4,-1,-1,-1,-5,-1,0,0
1501879356070654,1,2,4,4,6,2,1,3
1501879356078606,-3,-6,-3,-6,-5,-1,-1,-3
1501879356078606,1,9,-2,1,-2,-3,-3,-3
1501879356093606,-2,-7,-4,-3,1,-1,3,21
1501879356093606,-2,-13,-2,-7,-7,0,-4,0
1501879356095607,-2,7,1,7,3,0,-3,-20
1501879356095607,-1,2,-1,-4,-3,2,-1,0
1501879356117609,-3,-6,-4,2,0,-3,-1,-4
1501879356117609,-2,-1,-2,0,-1,0,-1,-1
1501879356118608,2,15,0,3,-2,-2,-1,8
1501879356118608,-2,-7,-2,-4,-2,-2,-2,3
1501879356130608,-2,-17,-3,-2,-7,-1,0,-1
1501879356130608,-1,-3,-3,2,-5,-1,0,-11
1501879356138609,-4,-9,-1,-5,10,-1,-2,-5
1501879356138609,3,7,0,0,-4,-2,0,7
1501879356153611,0,7,1,-5,-1,1,-3,-2
1501879356153611,-1,5,-1,-5,-5,-3,-1,8
1501879356155611,-2,-13,-1,3,-2,-2,-2,-6
1501879356155611,-4,-6,-4,-2,-5,-2,-3,-3
1501879356176614,-4,-4,0,6,7,0,-2,-11
1501879356176614,-2,0,-1,-6,-3,-3,-3,1
1501879356177611,1,7,5,1,-10,-1,4,6
1501879356177611,-2,-4,0,5,17,3,2,1
1501879356198614,-2,-2,-3,-5,-8,-2,-7,-13
1501879356198614,3,6,-1,-2,-3,-2,-1,1
1501879356200612,1,-4,-2,6,5,0,-2,1
1501879356200612,-1,-2,-2,-6,-2,3,-1,-1
1501879356213615,1,4,1,6,7,-1,1,-4
1501879356213615,-1,-6,-2,-11,-8,-1,-1,-2
1501879356215614,2,28,2,7,6,-2,0,4
1501879356215614,-5,-45,-4,-7,-3,-2,-4,1
1501879356236614,1,5,-1,0,-1,0,2,2
1501879356236614,-1,-4,-2,-1,-1,-2,-2,3
1501879356237614,0,-3,-1,1,6,-1,-1,-3
1501879356237614,3,15,0,-3,-10,-1,0,1
1501879356258617,-3,2,0,0,5,2,0,-1
1501879356258617,-2,-8,-4,1,0,-2,-1,0
1501879356260618,0,-4,0,-4,-9,-2,-2,2
1501879356260618,6,16,-1,5,6,1,1,0
1501879356273631,-1,-5,-1,-2,-2,-1,-1,-2
1501879356273631,-1,-1,-2,-1,1,-1,-1,-3
1501879356275620,-1,-11,-2,-2,-1,-3,-1,-1
1501879356275620,-2,-5,0,-2,-4,-5,-3,-1
1501879356297618,-2,13,1,-4,-7,1,-1,-4
1501879356297618,2,3,-1,1,4,0,-1,3
1501879356299619,-6,-19,-2,1,-5,-1,-1,2
1501879356299619,-1,13,-2,-2,-6,-3,-2,-5
1501879356318619,-3,-18,-1,-3,-7,-2,1,-4
1501879356318619,1,8,1,10,15,2,-2,-17
1501879356320620,-2,-14,-5,-14,-3,0,-1,6
1501879356320620,0,4,-1,2,-3,2,-1,2
1501879356334621,-2,2,-3,-1,-8,-6,-3,-2
1501879356334621,-3,-8,2,-10,-10,-2,-2,-6
1501879356336622,2,14,0,8,11,-1,0,-5
1501879356336622,0,-1,2,-1,3,-2,1,6
1501879356356637,1,-10,-4,0,1,-1,3,3
1501879356356637,-1,-5,-3,0,-5,0,1,4
1501879356357621,-4,-6,0,-1,-4,1,-1,-8
1501879356357621,-2,0,-2,-2,-6,-3,-2,-3
1501879356378629,1,12,0,-1,-3,-1,-2,0
1501879356378629,0,-7,-2,0,14,1,1,6
1501879356380622,-2,2,-1,0,-5,0,-1,3
1501879356380622,-1,-3,1,1,1,-1,1,-15
1501879356393624,0,-7,1,-5,-5,-2,-1,3
1501879356393624,-2,4,0,1,3,3,1,5
1501879356407625,-1,-3,-2,2,-10,-4,-3,-5
1501879356407625,-3,-5,-2,1,13,1,0,2
1501879356416625,-1,7,-4,-9,1,-1,-2,-5
1501879356416625,2,7,2,-2,-7,-3,-2,5
1501879356417628,-1,-11,0,2,0,0,0,0
1501879356417628,1,5,0,3,-5,-3,-2,3
1501879356438632,-3,-7,-1,-11,-2,2,0,-4
1501879356438632,-1,-10,-5,-2,-2,-1,0,-3
1501879356440626,-3,8,1,-1,4,0,0,-7
1501879356440626,-3,-18,-4,-2,-8,-3,-2,1
1501879356453649,5,5,1,3,6,-1,-3,5
1501879356453649,1,-1,0,4,5,1,2,7
1501879356467645,0,4,-3,-5,-6,-1,0,-12
1501879356467645,-3,-2,1,0,6,0,-1,-3
1501879356476629,-1,9,2,1,-3,1,-1,-2
1501879356476629,-1,5,-1,-4,-10,-3,0,-2
1501879356482629,0,4,-2,1,6,-1,0,4
1501879356482629,0,-17,-4,-1,-6,-2,0,5
1501879356498630,-1,-6,-2,-1,0,-2,-5,-6
1501879356498630,0,12,2,-3,-7,-1,0,-3
1501879356500630,-1,-3,0,-3,2,2,2,1
1501879356500630,3,8,1,-4,4,0,1,4
1501879356513631,-3,-7,-3,5,-8,-2,-8,-9
1501879356513631,-4,2,-1,-2,3,0,0,7
1501879356519645,-2,-8,-3,-6,-6,-3,-7,-15
1501879356519645,-1,-4,-1,2,0,-2,-3,-5
1501879356535632,2,4,-2,8,4,-1,2,3
1501879356535632,0,-4,-1,3,13,1,1,5
1501879356543634,-1,2,-3,-14,-10,-3,-1,-3
1501879356543634,2,0,-1,1,-2,2,2,3
1501879356558648,-5,-10,1,-2,0,-2,1,-4
1501879356558648,-1,-4,-2,-1,-3,-3,-3,-3
1501879356560633,1,3,2,5,-2,-1,1,9
1501879356560633,-4,-3,-2,0,1,0,-1,-9
1501879356573648,0,6,0,-5,6,0,2,4
1501879356573648,-3,2,0,0,-14,-2,-5,0
1501879356579639,-2,-15,-4,3,4,0,-1,3
1501879356579639,-2,5,-1,-3,-7,-2,-1,-1
1501879356596635,-1,-10,-1,2,0,0,-1,-5
1501879356596635,3,3,-2,-6,-5,-1,0,3
1501879356597635,-2,12,1,4,3,0,-1,-10
1501879356597635,1,-11,-1,-2,2,-1,2,-1
1501879356618650,1,13,-1,-3,-2,-1,-5,1
1501879356618650,-1,-14,0,-2,3,1,-2,-8
1501879356620637,0,6,1,1,-6,-2,-4,3
1501879356620637,-2,-3,0,4,-2,0,3,1
1501879356633639,-2,-1,-2,-3,-1,-2,-2,-3
1501879356633639,2,4,-1,-4,-3,-1,-1,-4
1501879356639651,0,-3,-1,2,2,0,2,13
1501879356639651,-2,3,-1,-4,-5,-3,-5,-7
1501879356656643,0,2,0,3,1,-3,1,3
1501879356656643,-2,-1,-1,-2,2,-1,0,-9
1501879356657641,0,1,1,-1,0,1,0,-2
1501879356657641,2,1,0,1,-5,-2,-1,11
1501879356679647,-1,6,-2,-1,2,2,-2,-9
1501879356679647,-4,-5,-3,-2,4,1,1,-8
1501879356684641,4,4,0,-1,2,-2,0,4
1501879356684641,-7,-4,-2,-5,-6,-1,0,0
1501879356692660,-3,1,-3,-4,0,-2,4,8
1501879356692660,-2,-5,1,-1,-2,-2,-3,-1
1501879356701643,-1,-14,-3,3,-1,1,-2,-10
1501879356701643,2,19,2,-1,2,-1,-5,-5
1501879356716679,-3,-21,-5,-2,-2,0,2,1
1501879356716679,-1,2,-2,-2,-10,-3,0,3
1501879356717643,-1,-2,-1,1,2,-2,-4,-8
1501879356717643,-1,6,-4,0,4,-1,-1,1
1501879356738701,-1,2,3,-1,-1,0,1,3
1501879356738701,2,4,0,8,1,-2,2,-2
1501879356740647,-1,-4,-1,-9,-2,3,0,3
1501879356740647,1,8,1,-2,3,2,-2,-4
1501879356752650,-2,-16,-3,0,1,-1,0,-2
1501879356752650,-1,-9,-4,-1,-4,-1,-2,-2
1501879356761646,-4,-3,-3,-1,-3,-3,-2,3
1501879356761646,-2,-2,-1,-2,1,-1,1,1
1501879356776651,-2,2,1,2,-3,-4,-1,-17
1501879356776651,-1,15,0,-4,0,0,0,11
1501879356778647,-4,-15,-3,-1,2,-1,0,-2
1501879356778647,-2,-12,-2,-3,-9,-2,-2,3
1501879356798669,0,-7,0,1,12,2,-1,0
1501879356798669,-3,-3,0,-2,-6,-3,-1,-6
1501879356800648,4,14,2,-1,6,2,0,6
1501879356800648,0,-8,0,0,-5,-1,1,6
1501879356812654,1,3,1,-1,-8,-2,-1,-10
1501879356812654,-2,1,1,-1,3,1,-1,-6
1501879356821650,-1,1,0,-1,-2,-1,0,2
1501879356821650,0,2,0,-4,-4,-3,-3,-4
1501879356836669,4,0,-4,4,7,2,1,7
1501879356836669,-3,-2,-3,-3,0,1,-1,-6
1501879356837669,-1,2,0,0,-4,-3,0,-3
1501879356837669,-3,-9,-3,-2,-8,-2,-1,1
1501879356858695,1,9,0,-4,-8,-1,-2,1
1501879356858695,-3,-5,-2,2,-1,-1,-1,1
1501879356860655,-2,-16,-3,-3,-1,0,1,2
1501879356860655,-1,11,1,0,5,-1,-3,-8
