timestamp,emg1,emg2,emg3,emg4,emg5,emg6,emg7,emg8
1501874414698163,40,69,43,73,30,15,-2,-27
1501874414698163,-37,-20,-74,-84,-38,-10,13,-18
1501874414698163,0,15,-50,-28,-19,-11,-7,34
1501874414698163,-1,6,66,52,-33,-14,-7,0
1501874414699143,5,39,3,-41,24,8,-1,-31
1501874414699143,17,-27,-32,8,23,11,-7,6
1501874414703206,-6,14,-20,-20,-43,-15,3,33
1501874414703206,12,-24,42,-46,14,9,17,39
1501874414710184,-36,-80,-18,-3,-17,-21,-21,-78
1501874414710184,41,44,79,101,-6,3,0,63
1501874414721153,-23,-57,-24,-25,24,-1,9,11
1501874414721153,-7,34,32,9,-10,-1,-22,-55
1501874414725183,-3,-26,6,-1,-7,0,7,14
1501874414725183,33,13,13,-60,21,9,11,39
1501874414741152,-11,-31,-21,-13,-3,0,1,3
1501874414741152,-5,10,-87,77,-25,-8,7,-3
1501874414749150,10,13,-92,33,52,25,15,79
1501874414749150,-23,-13,64,-24,-54,-17,-20,-61
1501874414772189,45,32,79,27,39,9,4,53
1501874414772189,-22,-5,-17,-32,26,2,-1,-52
1501874414773164,0,-4,19,24,-27,-7,-3,30
1501874414773164,-37,-43,-12,5,13,3,7,12
1501874414785190,32,24,53,37,-1,1,-6,-28
1501874414785190,-17,-46,25,-22,-36,-5,0,88
1501874414826158,2,-10,-66,39,-27,-12,-20,43
1501874414826158,-29,29,87,7,-11,-3,6,-70
1501874414827155,15,46,-3,88,4,3,18,17
1501874414827155,-27,-58,-46,-78,-31,-8,-15,-65
1501874414830190,7,-46,49,38,7,5,8,-7
1501874414830190,25,38,-69,-73,7,3,-10,48
1501874414831151,-20,-19,-19,-7,-21,-7,-8,-17
1501874414831151,22,12,6,-14,35,14,20,77
1501874414838204,-30,8,68,26,-32,-6,-5,-89
1501874414838204,14,21,-43,-50,-5,1,-1,11
1501874414845158,-3,-53,77,8,32,1,2,35
1501874414845158,14,-7,-14,39,-31,-10,-8,-21
1501874414860208,2,28,94,-18,60,16,10,41
1501874414860208,-7,-62,-77,26,-10,2,-2,-26
1501874414867199,13,24,-63,-63,-24,-8,-15,-59
1501874414867199,-13,-35,26,58,-8,-6,8,22
1501874414875198,-10,18,-36,1,-1,-6,-4,22
1501874414875198,10,0,26,22,17,-2,9,-5
1501874414899173,3,41,11,-11,32,10,-5,9
1501874414899173,-11,-35,-50,-44,-12,4,-6,15
1501874414899173,9,35,-42,50,14,2,14,1
1501874414899173,-22,-48,-74,-16,-15,-8,-12,-36
1501874414912198,10,-30,64,23,-52,-15,-6,27
1501874414912198,-4,51,17,-34,21,9,3,-29
1501874414920200,22,32,1,30,-8,-9,2,41
1501874414920200,-20,-43,20,-8,16,9,16,36
1501874414936202,-8,48,-57,-11,-14,-4,-14,-30
1501874414936202,-7,1,26,-6,0,-4,-10,-56
1501874414938189,-10,-54,-11,-61,9,7,11,15
1501874414938189,11,38,84,34,-24,-17,-29,-59
1501874414959174,-9,-20,10,27,16,2,7,28
1501874414959174,2,35,121,-16,-39,-1,4,9
1501874414960171,30,-5,-75,-50,18,5,4,56
1501874414960171,-18,-12,22,51,26,0,3,3
1501874414972202,-23,52,90,54,-22,-12,-6,-16
1501874414972202,14,-85,-104,-19,-3,-13,-5,-19
1501874414981180,-6,21,76,69,-11,6,-9,-56
1501874414981180,-7,-5,-48,-123,-10,3,6,52
1501874414996215,25,37,24,90,4,6,5,-4
1501874414996215,-4,17,86,61,30,0,7,10
1501874414998165,6,-4,-55,-58,-12,-6,-14,3
1501874414998165,-12,-11,12,20,-22,5,1,-24
1501874415019178,-16,-27,48,-33,13,1,1,-4
1501874415019178,-1,2,-55,33,-8,-3,-5,19
1501874415020166,-13,-4,20,-41,-20,-11,0,-35
1501874415020166,8,2,-19,78,-11,7,-4,-17
1501874415032207,8,7,-39,-128,52,7,10,23
1501874415032207,11,-15,-27,55,3,-5,-7,49
1501874415041185,7,-6,-55,0,-14,-2,3,36
1501874415041185,3,21,1,56,-35,-7,4,-9
1501874415055227,7,29,-28,16,0,0,-5,-36
1501874415055227,-20,-35,24,20,47,4,-8,-24
1501874415062204,-3,1,-69,-99,-59,-7,-2,9
1501874415062204,4,33,-17,-43,24,-11,3,29
1501874415079189,-9,-37,-97,-31,-10,6,5,-18
1501874415079189,4,47,-6,32,-33,-11,-16,-18
1501874415080171,1,29,72,126,32,3,-2,3
1501874415080171,-15,-30,56,-37,23,3,1,-8
1501874415101234,0,-29,-27,-44,-24,-7,3,24
1501874415101234,-8,-10,-4,-5,-10,-2,-1,-58
1501874415103170,-16,-18,19,42,13,5,-3,6
1501874415103170,14,1,21,-85,-21,-12,0,48
1501874415115214,-19,-37,-3,55,5,-4,-14,-62
1501874415115214,11,30,-97,-11,-25,2,4,2
1501874415122212,-5,-5,86,-16,-16,-6,-5,-24
1501874415122212,2,-4,-64,0,56,13,11,42
1501874415139183,-12,-12,49,-15,-33,-4,-9,-57
1501874415139183,30,53,22,5,13,-1,11,62
1501874415140171,-23,-34,9,-4,-10,-1,-12,-57
1501874415140171,8,-29,-31,-9,6,9,-2,-5
1501874415161183,-3,-3,-38,25,-15,-6,-3,20
1501874415161183,2,10,59,-36,-8,1,1,-2
1501874415163183,-4,-2,6,2,14,-3,0,-14
1501874415163183,3,25,95,3,-24,-15,-8,-2
1501874415175233,24,-2,18,31,37,17,13,68
1501874415175233,-8,18,-11,-54,-18,-8,-2,-15
1501874415182237,-9,-51,-49,-27,21,6,4,-9
1501874415182237,-4,15,53,58,-49,-14,-6,-55
1501874415199186,-5,-5,12,-3,-15,1,-4,-19
1501874415199186,3,-5,-20,0,67,14,9,73
1501874415200176,10,40,6,-73,8,1,7,-1
1501874415200176,-3,-28,-15,74,-7,-7,-8,30
1501874415221217,13,6,-37,-73,-21,3,5,-1
1501874415221217,-25,-36,-6,-13,-6,-3,4,8
1501874415223176,-2,7,-31,59,6,-5,-12,-15
1501874415223176,8,3,-15,-15,10,6,-4,-19
1501874415235220,7,4,-1,33,0,-3,2,11
1501874415235220,-1,11,-31,-15,6,-2,-6,-15
1501874415244179,3,45,-14,1,-5,2,19,52
1501874415244179,-5,-7,33,17,-53,-10,-15,3
1501874415259198,-9,-27,-21,-36,56,4,-7,-33
1501874415259198,15,-22,21,77,3,5,2,-5
1501874415260180,-56,-21,56,-29,2,-7,-11,-49
1501874415260180,38,13,37,42,-39,-2,10,94
1501874415281240,-12,21,-26,-79,74,5,-1,8
1501874415281240,-9,7,56,50,-8,-10,-11,-84
1501874415283181,20,-8,-75,-47,-25,-7,-1,79
1501874415283181,-45,11,-39,4,26,4,4,-60
1501874415295223,-9,-16,26,49,-51,-14,-3,4
1501874415295223,15,30,-4,-26,18,15,13,45
1501874415302220,7,-20,2,52,3,-2,-2,74
1501874415302220,-2,52,42,13,-29,1,-2,-39
1501874415318244,8,-32,-16,27,51,-4,3,-16
1501874415318244,10,-1,37,11,-1,-4,-14,52
1501874415320193,5,-6,2,4,-35,-4,-2,-31
1501874415320193,14,-18,6,-19,31,6,-6,-31
1501874415341247,-26,32,4,36,-46,-2,-6,-69
1501874415341247,6,-11,-38,-105,12,-7,-2,33
1501874415343219,28,42,85,60,-12,1,11,73
1501874415343219,-11,-37,-87,-42,50,5,2,-20
1501874415355228,-8,6,28,23,-28,-1,-7,-18
1501874415355228,-16,-9,-29,5,18,-1,-4,-39
1501874415362253,16,12,0,-46,-3,3,-6,-64
1501874415362253,-15,-31,-30,-35,-51,-10,5,87
1501874415379203,-13,2,38,1,-8,-7,3,-37
1501874415379203,-9,8,84,92,20,6,10,-4
1501874415380185,5,-2,-19,-77,2,-3,-4,-41
1501874415380185,7,1,26,35,6,2,-7,7
1501874415401229,10,4,-19,-53,-6,2,1,49
1501874415401229,12,-31,54,18,-16,1,4,89
1501874415403223,-2,-23,-87,44,39,-2,6,16
1501874415403223,8,8,-44,-81,7,-3,-9,-44
1501874415415252,-4,-6,6,35,-52,-9,-13,5
1501874415415252,-15,1,-91,-29,42,8,-2,-85
1501874415430226,17,-4,66,-21,-23,-5,-3,91
1501874415430226,13,2,-21,25,12,1,18,60
1501874415439214,-4,15,54,-64,7,3,-5,11
1501874415439214,9,-20,4,14,-19,-3,-11,-40
1501874415440192,-9,-24,-64,-34,-38,-6,-6,-59
1501874415440192,2,20,-50,60,57,1,5,13
1501874415461192,-6,-5,67,-19,-1,7,7,-10
1501874415461192,35,17,12,5,-27,-3,-4,48
1501874415463191,-27,-24,-68,-24,0,-5,-9,-67
1501874415463191,20,16,11,-7,-20,-6,1,18
1501874415475231,-28,-18,-68,6,-21,-9,5,-33
1501874415475231,-14,8,13,-54,29,6,3,-18
1501874415482229,1,0,32,62,-56,-7,-2,-27
1501874415482229,7,48,20,27,53,12,5,12
1501874415499211,25,-76,-82,-26,19,-3,-2,62
1501874415499211,-24,12,-34,-65,-54,-6,8,42
1501874415500194,-13,-2,-33,-6,40,0,-13,-95
1501874415500194,18,23,73,-2,-7,-2,-7,2
1501874415521257,9,-26,-59,31,-32,-3,1,33
1501874415521257,-14,1,41,34,20,0,-1,-44
1501874415523196,3,20,-42,47,25,5,2,-17
1501874415523196,-3,-20,69,-44,-4,5,12,-11
1501874415535207,5,19,-25,-60,-32,-7,-5,39
1501874415535207,-3,-8,-58,30,-1,1,-9,-24
1501874415542237,-5,-1,-14,-3,7,4,7,15
1501874415542237,-10,-31,31,-11,1,-8,-10,-22
1501874415558260,10,30,18,57,61,9,17,22
1501874415558260,-10,-9,29,27,-15,-3,0,-5
1501874415560197,2,7,7,-62,16,4,0,56
1501874415560197,-8,-12,-56,21,3,-5,-2,-6
1501874415581197,-3,14,80,30,-12,-2,-6,-5
1501874415581197,-3,-41,23,31,-4,-8,6,38
1501874415583197,34,-4,17,-48,-2,1,5,70
1501874415583197,-27,-37,-29,-26,12,-1,-1,-54
1501874415595200,-2,30,4,47,7,1,-7,-9
1501874415595200,9,27,31,21,9,-1,-6,5
1501874415604209,-1,8,60,20,17,7,9,12
1501874415604209,5,-18,-102,-27,-24,-4,1,16
1501874415618202,-8,-9,-45,-10,5,-4,-4,-24
1501874415618202,-5,-21,-7,7,-37,-2,1,-7
1501874415620209,16,12,16,60,-3,-7,2,-6
1501874415620209,-9,20,57,-23,-38,8,-7,-23
1501874415641206,-3,-14,4,-1,29,4,9,-12
1501874415641206,-1,12,-83,-21,-5,-1,-6,-3
1501874415643204,1,-36,24,40,-30,-2,-4,-71
1501874415643204,-8,18,40,-27,13,4,1,-21
1501874415655233,8,-3,-12,7,-73,-15,-12,6
1501874415655233,-14,18,-30,-34,55,4,10,-37
1501874415664206,5,4,11,-57,71,16,7,46
1501874415664206,-11,-16,9,64,33,-20,-12,-23
1501874415679272,4,8,-18,-2,29,21,2,-72
1501874415679272,7,3,-88,3,-6,-12,-5,18
1501874415681203,-26,11,54,-19,-44,3,1,-47
1501874415681203,30,-18,-38,-22,-94,-18,-11,127
1501874415701271,-20,-34,-21,-1,67,9,5,-7
1501874415701271,14,3,16,9,-11,1,2,57
1501874415707252,0,4,-20,8,-12,-11,-4,-59
1501874415707252,-10,4,-37,37,-17,2,-1,29
1501874415715251,16,51,56,-33,-9,-3,4,12
1501874415715251,-19,-41,-54,-38,-42,-1,-5,-19
1501874415723447,2,-22,95,23,22,-8,-14,17
1501874415723447,4,36,18,-3,31,10,0,-64
1501874415738437,7,-14,6,40,-14,-9,-4,39
1501874415738437,-5,11,-4,-10,-5,-3,0,-3
1501874415740438,1,8,-75,-47,-83,-14,2,10
1501874415740438,-3,-6,-19,41,76,8,0,6
1501874415761452,7,32,18,-23,26,0,-3,-25
1501874415761452,-12,-6,-25,52,-18,-2,5,-11
1501874415762437,-12,-15,-54,17,-24,-5,-7,2
1501874415762437,-8,5,15,-71,12,3,3,-15
1501874415774485,-2,-1,-23,-21,1,0,8,26
1501874415774485,15,1,32,-14,17,-6,-3,38
1501874415783470,-4,-10,-65,11,-30,-1,-10,-10
1501874415783470,-5,8,-46,8,46,3,-2,-33
1501874415806501,6,-17,-62,-5,-6,-6,5,69
1501874415806501,-7,-9,91,14,-3,3,-1,-49
1501874415807442,-8,6,23,-38,21,7,3,7
1501874415807442,-4,-26,27,12,-37,-7,-9,6
1501874415820482,-8,-16,-5,31,9,1,2,-46
1501874415820482,-4,32,13,-60,21,8,7,39
1501874415834486,23,-4,67,34,25,-4,0,37
1501874415834486,-10,12,-1,24,3,2,-1,-20
1501874415843505,-6,-4,62,17,-32,-5,-10,2
1501874415843505,23,14,-25,18,-41,-2,1,58
1501874415845441,-44,-1,-33,-41,23,-5,-8,-97
1501874415845441,4,-11,-46,12,5,8,13,30
1501874415866515,-6,-12,13,-20,-5,-6,-17,-13
1501874415866515,0,1,16,28,30,4,1,-4
1501874415867453,16,21,-2,-18,0,8,7,20
1501874415867453,-7,5,16,51,-12,-3,6,1
1501874415880488,5,22,32,9,-9,1,-8,-41
1501874415880488,-11,-10,69,-8,-17,-8,-5,-44
1501874415887518,1,-3,-2,-7,-45,-8,4,50
1501874415887518,-8,-2,-42,-39,51,4,-8,-36
1501874415903513,9,14,-19,0,-33,-3,0,48
1501874415903513,-5,1,-23,-60,0,-4,-7,-15
1501874415905478,-5,-20,56,41,23,6,2,-5
1501874415905478,-10,1,-14,-9,-63,-5,6,4
1501874415926511,22,-4,23,-5,21,-4,7,40
1501874415926511,-22,-12,-47,-15,-26,-12,-16,-60
1501874415927448,-17,-3,-43,21,20,0,2,-41
1501874415927448,6,11,46,21,-5,1,-4,-1
1501874415940487,-5,-15,-66,25,25,5,6,-11
1501874415940487,-13,-36,22,-46,-13,4,3,14
1501874415947490,-12,25,25,25,24,3,-1,-34
1501874415947490,20,5,104,-54,12,-6,-5,73
1501874415963512,-27,-26,12,49,1,-5,-1,-55
1501874415963512,10,26,-11,11,9,-2,5,11
1501874415965451,-8,-12,-7,21,34,5,-4,13
1501874415965451,12,-15,-25,-23,-20,-2,3,10
1501874415986517,1,3,-48,-20,-19,-1,-4,24
1501874415986517,-3,6,26,9,-14,2,2,-4
1501874415987451,9,11,39,14,30,1,4,27
1501874415987451,-11,-2,-99,24,-34,-5,-8,-42
1501874416000495,22,-7,21,-27,-5,2,8,21
1501874416000495,-22,-11,-45,69,26,-4,-8,-50
1501874416007525,19,27,-47,-70,3,-2,1,10
1501874416007525,-9,-71,36,-13,-5,-1,-3,5
1501874416023501,-22,-9,-9,-24,-21,-7,-4,-16
1501874416023501,11,15,4,40,22,7,3,22
1501874416025465,1,0,1,15,-29,-2,3,17
1501874416025465,2,28,48,32,29,11,3,-34
1501874416046455,13,15,-32,-54,-5,-3,0,34
1501874416046455,-6,-12,-9,3,3,1,2,-19
1501874416047455,-3,3,31,9,-14,-4,0,-7
1501874416047455,7,24,4,49,-19,-13,0,34
1501874416060519,-2,-14,57,13,64,17,4,5
1501874416060519,3,9,19,-31,-10,-2,-1,8
1501874416067526,-1,0,48,25,-5,1,-11,-33
1501874416067526,-6,-30,-21,-54,10,-7,-4,-15
1501874416083496,-7,15,28,3,-29,-9,-9,-9
1501874416083496,14,-5,-25,8,20,0,3,39
1501874416085459,2,-1,-13,-6,-10,2,-1,-21
1501874416085459,-7,17,0,-8,-24,-2,2,-7
1501874416106503,22,7,21,6,-20,1,2,81
1501874416106503,-11,9,-48,-29,0,-2,-5,-46
1501874416107458,13,-23,-27,3,-52,-2,6,33
1501874416107458,-9,-29,5,4,66,9,-6,-8
1501874416119524,7,13,-9,24,32,3,9,4
1501874416119524,-17,0,18,-57,-37,-2,6,43
1501874416128461,-8,19,0,26,2,-5,-25,-67
1501874416128461,-4,-19,-18,-62,-21,0,-2,20
1501874416143525,-7,18,-30,-21,-14,-12,-7,-48
1501874416143525,12,-21,49,23,70,11,8,3
1501874416145468,-8,-22,-45,0,-25,-9,1,10
1501874416145468,-10,11,-20,-6,40,6,2,-21
1501874416166504,1,2,71,53,-18,-13,-3,23
1501874416166504,0,12,-84,-19,-46,-4,-11,-52
1501874416167471,4,-11,-19,-28,53,9,8,78
1501874416167471,26,59,71,49,-74,-3,16,19
1501874416179506,-12,-56,-24,-9,56,2,-14,-20
1501874416179506,-7,11,-4,7,11,1,-10,-42
1501874416194464,6,7,64,-25,19,-2,-5,43
1501874416194464,-3,-13,-56,-26,-35,-3,-4,3
1501874416203504,-6,15,9,36,-35,-7,6,2
1501874416203504,6,-6,-5,-29,9,-3,-5,-4
1501874416205475,-28,8,-36,-2,8,-2,2,-36
1501874416205475,18,19,14,35,-3,-5,-4,13
1501874416226535,14,6,28,-51,-25,2,6,35
1501874416226535,7,-13,28,-5,-18,-3,-3,7
1501874416227466,-1,16,-39,-34,38,11,13,31
1501874416227466,-17,-7,-5,27,-14,-14,-13,-36
1501874416248508,-2,-4,-35,13,-2,8,-7,-22
1501874416248508,5,5,75,41,-14,-4,-6,-14
1501874416250467,1,2,-44,6,-4,-6,-1,25
1501874416250467,-7,14,28,7,21,8,7,-30
1501874416264510,-2,-12,-123,6,-16,-11,-1,4
1501874416264510,0,-23,35,-83,-2,-5,-2,-9
1501874416265468,1,-8,63,45,34,3,4,12
1501874416265468,-2,-8,-40,-51,-12,0,-6,-20
1501874416286476,-14,-8,-7,9,-22,-2,-9,-36
1501874416286476,-1,27,-10,44,-27,-2,13,21
1501874416287470,5,-20,-11,-20,0,0,-11,-18
1501874416287470,9,13,-47,-9,-22,-6,0,8
1501874416299533,-4,1,-11,-5,26,10,5,-7
1501874416299533,-10,-3,7,23,21,3,-3,1
1501874416308486,0,9,2,0,-29,-10,-3,-10
1501874416308486,-4,-34,-3,0,-18,-3,4,15
1501874416323511,-7,24,16,-69,-14,2,-1,-23
1501874416323511,7,-28,25,48,60,5,0,11
1501874416325472,0,-5,-2,-22,-15,3,2,-9
1501874416325472,-7,15,-5,-2,8,-4,4,9
1501874416346518,-4,-10,63,72,0,0,-5,-48
1501874416346518,4,4,-25,3,-14,0,-2,12
1501874416347473,5,-12,47,11,-30,-10,0,21
1501874416347473,-16,-8,-2,-20,70,2,-5,-27
1501874416359513,-4,2,-15,-53,-9,2,8,3
1501874416359513,6,33,78,62,52,3,-3,8
1501874416368489,7,1,-64,0,5,3,4,-2
1501874416368489,-15,-46,17,38,-65,-12,-13,-13
1501874416383516,6,-19,23,-16,7,-4,4,36
1501874416383516,-12,0,57,11,-21,-2,-4,-30
1501874416385500,1,15,7,21,26,-1,-1,-1
1501874416385500,6,-8,26,-12,2,5,8,1
1501874416406525,-5,0,17,-5,6,5,-1,10
1501874416406525,5,20,-20,-35,-44,-7,-8,-18
1501874416407485,-1,-40,-86,-23,7,-1,-5,19
1501874416407485,14,45,6,4,-1,-3,0,23
1501874416419520,8,-27,-27,6,8,-1,1,29
1501874416419520,-8,10,2,-18,40,5,6,-6
1501874416428477,-3,29,-51,-48,-21,-9,-5,-37
1501874416428477,-1,-30,17,29,12,10,0,-19
1501874416443519,6,6,0,32,-33,-11,3,45
1501874416443519,3,14,-16,-19,-16,1,-2,14
1501874416445478,-11,-30,7,22,7,-3,-6,-31
1501874416445478,13,-9,-2,0,17,4,6,57
1501874416466553,-16,17,31,-29,-59,-8,-12,-59
1501874416466553,6,0,-48,-27,79,10,6,21
1501874416467491,-5,-10,60,25,5,-5,-4,-8
1501874416467491,2,29,-25,-9,-27,-5,0,10
1501874416479525,-5,-26,-41,4,12,2,-1,-20
1501874416479525,-1,-12,42,74,-50,-7,1,9
1501874416488492,6,15,43,-44,-23,8,3,19
1501874416488492,-5,-18,-52,2,19,-2,-5,-9
1501874416503543,4,12,-15,-16,-13,1,7,10
1501874416503543,-10,-5,8,14,-7,-9,-11,-19
1501874416505489,-1,-9,-9,32,-18,-2,8,17
1501874416505489,-7,-25,26,6,13,-7,-11,-25
1501874416526550,5,6,-72,-41,25,11,2,4
1501874416526550,-8,-13,3,-6,-40,-7,-5,2
1501874416527481,2,8,-29,-6,-13,-6,-4,-11
1501874416527481,3,28,54,-11,7,5,5,-6
1501874416548523,-9,-32,21,31,8,-8,-12,-21
1501874416548523,3,5,-43,-17,2,8,-1,-14
1501874416550485,-10,2,-41,-47,-45,-2,2,-40
1501874416550485,10,11,13,-38,10,1,-3,44
1501874416563546,-1,21,88,68,18,2,-5,-28
1501874416563546,4,-4,-22,-21,-29,-10,5,12
1501874416565499,-4,-12,-21,6,45,4,-4,-5
1501874416565499,-2,2,30,23,-2,0,3,-16
1501874416586553,-1,9,-22,-36,45,10,1,20
1501874416586553,7,7,26,-2,-40,-12,-1,12
1501874416587487,-8,-1,-44,-5,-13,1,2,1
1501874416587487,6,10,12,55,28,5,5,-8
1501874416608547,-9,10,-8,41,-10,-4,-6,-37
1501874416608547,1,-2,34,4,6,-1,-9,-31
1501874416610489,2,-11,18,-21,2,0,0,44
1501874416610489,-12,-12,-18,-10,-30,-4,-2,-35
1501874416623527,18,33,-30,16,-5,-2,20,65
1501874416623527,-4,-1,-36,-3,49,6,-17,-16
1501874416625498,-1,-14,33,15,-17,-3,-5,4
1501874416625498,-8,-5,11,19,49,1,-7,-26
1501874416646536,-1,-1,19,-19,-24,-9,0,2
1501874416646536,1,25,-7,-31,6,-2,12,30
1501874416647494,9,3,-36,-23,9,3,1,-14
1501874416647494,-1,-11,18,72,-37,-6,-5,4
1501874416668534,-2,-13,38,-15,-23,1,7,26
1501874416668534,-11,-37,-5,17,37,0,-11,-32
1501874416670508,-3,18,-14,-9,8,2,2,-12
1501874416670508,1,10,-10,-21,-9,3,5,-4
1501874416683539,2,-1,-56,-26,18,-2,-7,-8
1501874416683539,-5,8,-22,-21,-107,-9,5,20
1501874416685492,-1,-4,18,40,52,4,0,-11
1501874416685492,-7,-9,-23,-34,-6,-3,-10,-16
1501874416713549,-6,-18,-47,8,22,-3,-9,17
1501874416713549,9,-12,-42,4,-38,-1,8,18
1501874416715495,8,24,68,20,20,-3,6,9
1501874416715495,-3,-11,-80,-12,5,6,2,16
1501874416728534,2,-2,55,-3,-6,-2,-10,22
1501874416728534,-11,0,5,-20,9,-1,-1,-29
1501874416730508,5,-9,-18,19,-31,-5,-5,-13
1501874416730508,-4,-24,-16,-18,17,-3,1,13
1501874416743496,-2,20,47,26,-25,-3,1,-19
1501874416743496,-2,-1,32,-27,26,8,2,11
1501874416749506,-11,-12,-41,20,-77,-17,-21,-21
1501874416749506,8,11,-48,-13,60,19,8,5
1501874416766544,3,5,10,-32,3,-4,-6,-20
1501874416766544,2,-17,14,1,-8,-1,4,10
1501874416767501,-3,38,15,1,-12,0,1,-6
1501874416767501,-4,-28,10,2,-10,-3,0,12
1501874416788545,-4,-11,40,-6,12,0,-2,-7
1501874416788545,2,-5,-13,24,-29,-6,1,-15
1501874416790499,1,-19,-12,-23,7,-1,2,52
1501874416790499,-6,24,-7,-15,0,-4,-16,-53
1501874416803520,2,5,-31,-7,31,0,-10,-15
1501874416803520,-7,-21,-65,-5,-30,-8,18,14
1501874416809567,-1,-4,66,19,39,9,11,5
1501874416809567,5,-1,66,9,-24,-9,3,7
1501874416826573,-9,-17,-31,-30,-36,-2,-9,-15
1501874416826573,9,33,33,11,29,9,-3,10
1501874416827500,-11,-34,-21,-10,-22,-6,-11,-42
1501874416827500,5,29,51,-6,2,-1,0,26
1501874416848544,-7,-57,-28,-1,21,3,6,-2
1501874416848544,-5,-9,-41,-18,-7,-7,-8,-5
1501874416850500,11,60,29,9,-23,2,16,21
1501874416850500,-12,-65,-35,-8,-22,-3,-16,-16
1501874416862541,3,5,-38,-4,20,0,-1,-7
1501874416862541,2,25,24,-6,30,4,-2,-7
1501874416869545,-6,-7,-49,-4,-18,-5,-1,15
1501874416869545,7,33,50,22,-11,-2,9,20
1501874416886547,-9,5,3,0,-6,0,-9,-44
1501874416886547,3,-9,22,-15,25,5,0,17
1501874416887539,-1,8,-5,6,3,-7,-8,-9
1501874416887539,2,2,3,6,-21,0,7,23
1501874416908546,5,7,21,8,-37,-3,8,2
1501874416908546,9,11,6,24,32,2,-1,2
1501874416910525,-1,-31,64,-17,34,3,5,3
1501874416910525,-8,25,10,-12,0,-1,-9,-13
1501874416922521,2,-4,-26,5,-49,-8,2,18
1501874416922521,-6,-3,6,-12,46,0,-4,-44
1501874416929505,1,-9,-19,-7,13,1,-1,18
1501874416929505,2,5,-14,-2,-23,-11,1,-4
1501874416946528,-6,-7,-8,0,5,7,2,-23
1501874416946528,6,5,-3,34,-4,1,10,53
1501874416947518,-3,-8,24,-10,5,-1,-7,-35
1501874416947518,1,6,4,-27,-23,-2,1,16
1501874416968550,-7,-7,-7,-13,72,-5,-1,13
1501874416968550,-3,-11,-16,-10,25,8,6,9
1501874416970508,1,23,81,36,-14,-7,-15,-17
1501874416970508,0,-23,-24,2,-12,3,9,30
1501874416983522,-10,-10,32,-2,-16,-2,-11,-67
1501874416983522,-6,-9,-10,3,-18,-3,-10,8
1501874416989549,12,18,-44,-29,45,7,2,-23
1501874416989549,-3,-12,7,39,-7,-7,-3,3
1501874417006585,-2,9,2,-3,-10,3,7,5
1501874417006585,-6,-3,63,3,-17,0,0,-13
1501874417007516,1,17,-20,-6,-15,-4,-2,21
1501874417007516,8,-27,-7,-2,16,1,5,0
1501874417028550,4,10,-11,-14,-43,5,6,33
1501874417028550,-2,6,-36,-3,21,-3,-16,-55
1501874417030510,-2,-20,37,6,1,-2,9,6
1501874417030510,-5,18,-10,0,10,0,-9,-13
1501874417042540,6,8,39,31,-4,3,3,24
1501874417042540,-8,-10,-25,5,-31,-6,-1,3
1501874417051514,-3,-29,-27,6,-5,-3,0,-6
1501874417051514,7,26,-10,-26,11,3,1,-23
1501874417066520,-3,-5,20,12,20,-2,-2,-6
1501874417066520,2,-35,-1,-4,-17,-1,2,32
1501874417067514,-5,-9,-30,10,-2,3,-4,6
1501874417067514,-6,5,55,28,-3,0,-1,-28
1501874417088527,7,27,17,0,-2,-2,2,10
1501874417088527,6,-2,-21,-3,-52,-3,11,40
1501874417090516,-6,2,-3,-19,19,0,-13,-29
1501874417090516,0,39,8,-4,26,3,-4,-18
1501874417102526,-5,-47,-67,-5,-11,-5,-8,-15
1501874417102526,-3,10,47,10,-21,-4,1,-12
1501874417111515,-2,-7,-9,-10,19,3,2,32
1501874417111515,7,31,18,-2,-11,-2,-1,-15
1501874417126516,7,-12,-43,0,9,-10,0,26
1501874417126516,-8,-3,50,13,-3,4,-1,-26
1501874417127517,5,2,17,24,-15,0,1,0
1501874417127517,-5,7,-32,-19,47,3,1,12
1501874417148521,4,10,49,-18,-2,-4,1,7
1501874417148521,-4,-33,-79,-14,6,-4,-8,5
1501874417150521,-1,-1,-53,-7,-1,-2,2,3
1501874417150521,-2,8,39,22,-35,-4,2,-15
1501874417162525,0,-1,-26,1,-3,5,2,-7
1501874417162525,1,32,-8,-15,27,1,-4,13
1501874417171523,1,-5,-15,4,-6,1,5,12
1501874417171523,-10,-30,-56,-18,-5,-3,-4,6
1501874417186517,2,11,-32,5,7,0,1,23
1501874417186517,1,16,-7,-5,-18,-4,-7,-80
1501874417187523,-9,-27,3,-2,-14,1,1,8
1501874417187523,-3,-23,-14,-20,-21,-5,-3,2
1501874417208549,-3,-1,20,25,14,0,-1,-18
1501874417208549,-3,-8,-8,-16,-37,-6,-5,1
1501874417210520,4,24,27,10,12,0,2,13
1501874417210520,-3,-13,-41,12,7,0,2,5
1501874417222520,3,20,65,6,-40,-2,-1,4
1501874417222520,7,-17,-6,-27,11,0,-2,6
1501874417231522,-2,-2,44,3,-1,1,-1,7
1501874417231522,-2,-12,-1,7,-23,-4,1,-1
1501874417246523,-8,18,-20,-72,29,6,1,-7
1501874417246523,3,9,-8,14,2,-4,-2,13
1501874417247521,-3,12,0,-8,-12,-4,-8,-12
1501874417247521,4,-4,13,1,-15,-2,8,18
1501874417268571,-2,-14,54,-5,-14,-7,-4,13
1501874417268571,-3,-6,-12,13,12,-3,-11,-35
1501874417270523,0,18,-58,-23,36,4,-3,-11
1501874417270523,2,1,49,-3,-17,-1,1,26
1501874417282565,-1,4,-20,8,8,0,4,-2
1501874417282565,-10,-8,-25,-10,-4,-3,-6,-5
1501874417291525,2,9,43,20,-19,-5,0,1
1501874417291525,3,3,5,-2,9,6,0,6
1501874417306562,-7,-3,15,-2,10,-6,-5,-2
1501874417306562,4,12,19,29,-3,1,6,16
1501874417307526,-6,-22,-40,-26,-24,-7,4,7
1501874417307526,-9,-19,7,-7,13,3,-13,-22
1501874417328572,-1,3,-25,16,-1,-3,0,-2
1501874417328572,-1,0,1,-4,3,6,4,14
1501874417330527,2,13,29,14,-2,2,1,-5
1501874417330527,3,4,-30,12,22,0,4,-8
1501874417342573,-2,-29,-24,-11,-5,2,0,0
1501874417342573,-8,-23,-19,-13,-42,-7,-7,-4
1501874417351529,-3,0,38,26,25,5,1,2
1501874417351529,-3,-8,-12,-13,-24,-4,-2,-5
1501874417366583,-5,2,29,9,57,1,0,7
1501874417366583,10,23,-17,3,1,2,11,0
1501874417367528,-1,-15,22,-7,-23,-4,-11,-6
1501874417367528,-6,5,-14,3,10,1,-5,-16
1501874417388572,-2,-14,40,-2,-12,0,4,1
1501874417388572,5,11,-39,4,14,-2,6,28
1501874417390530,-5,-20,1,-3,-1,-5,-6,-2
1501874417390530,-1,-11,-77,-8,-17,0,-6,-24
1501874417402577,2,18,32,15,-13,4,-1,20
1501874417402577,5,19,3,-9,35,4,0,-24
1501874417411534,-1,-10,-1,7,-5,-3,1,7
1501874417411534,0,5,4,-13,0,-6,0,23
1501874417426578,-4,-5,-9,11,-22,0,-7,-28
1501874417426578,-6,2,39,13,2,0,6,-10
1501874417427533,8,18,3,-3,24,7,0,-10
1501874417427533,-7,-8,28,20,6,-5,-3,1
1501874417448581,1,0,-41,-20,-28,-4,-2,5
1501874417448581,-5,-18,-23,-8,13,-6,-1,11
1501874417450534,2,-4,-17,-19,1,-2,3,-6
1501874417450534,1,5,1,5,7,2,2,-4
1501874417462573,2,3,2,8,2,2,0,-2
1501874417462573,-1,-9,7,11,31,3,1,12
1501874417471536,-4,-9,-5,-8,-26,-4,-2,-13
1501874417471536,1,-4,10,-5,8,-1,0,-8
1501874417486581,-1,-1,-38,2,-17,-6,-3,-11
1501874417486581,1,1,26,-8,-1,2,-2,15
1501874417487536,1,12,-58,-9,-9,-4,3,-14
1501874417487536,4,0,39,-1,1,3,11,38
1501874417508602,-9,-2,-14,11,15,-2,-21,-68
1501874417508602,-3,-9,-28,-3,-8,-1,-8,21
1501874417510537,-4,2,-5,-10,-17,-7,-5,-23
1501874417510537,1,2,-1,-22,-32,-3,-3,-9
1501874417531548,0,-19,19,-17,104,5,11,12
1501874417531548,-2,27,17,-2,-13,-2,1,2
1501874417532543,-4,-26,-18,53,-3,-2,-4,-3
1501874417532543,6,18,19,1,-35,-4,3,0
1501874417546608,0,-28,-7,-28,-24,-6,-4,13
1501874417546608,-7,-7,-22,-16,10,0,1,-7
1501874417547538,-5,3,-10,-7,7,1,-9,-23
1501874417547538,-6,10,5,16,7,3,7,6
1501874417568580,10,20,18,9,-25,-1,-4,-9
1501874417568580,0,-9,26,-8,2,-3,-1,-28
1501874417570541,-6,-6,-3,-13,-7,3,5,45
1501874417570541,7,4,-76,-17,-47,2,-1,-5
1501874417591605,-7,9,0,28,32,-2,-5,3
1501874417591605,-4,-8,29,-5,-32,-7,-2,-14
1501874417592541,-2,-4,-3,-4,30,4,1,-8
1501874417592541,-4,-2,30,-1,-7,2,-1,-5
1501874417606580,5,20,-10,-11,-5,3,8,38
1501874417606580,6,-1,11,23,-33,-8,-3,-5
1501874417607542,-1,3,25,11,36,5,0,11
1501874417607542,-2,-20,-16,-15,22,-1,-4,-5
1501874417628579,-5,-3,-10,-5,-15,-1,0,-6
1501874417628579,0,7,-19,0,7,-3,-4,14
1501874417630545,1,8,12,9,-29,-2,1,-23
1501874417630545,1,-20,19,4,13,-6,4,12
1501874417651605,-6,-12,-80,-5,13,3,-5,-56
1501874417651605,1,17,41,4,-6,3,-4,8
1501874417652557,-4,-15,-27,-12,-52,-6,-4,1
1501874417652557,-4,25,-28,-17,25,1,-2,0
1501874417665608,3,-28,-15,4,-16,2,8,3
1501874417665608,0,-14,4,2,26,0,1,5
1501874417672607,0,5,22,13,-7,-5,-6,3
1501874417672607,1,-5,-6,-13,3,-3,-3,-1
1501874417688594,6,20,21,10,-17,-2,7,38
1501874417688594,-13,-2,-14,-17,-10,-2,-4,-30
1501874417690548,5,3,53,-3,12,-2,1,14
1501874417690548,-7,-37,0,15,0,-2,-6,-5
1501874417711555,-2,13,14,-7,-1,-1,0,-1
1501874417711555,5,20,2,13,3,1,6,-8
1501874417712560,-6,-35,15,-11,-3,2,3,9
1501874417712560,-1,11,-18,11,9,-4,-9,-13
1501874417725598,-4,-11,31,-7,-15,-1,1,7
1501874417725598,5,15,14,11,29,6,7,16
1501874417732597,-1,-10,-79,9,8,-3,-3,-39
1501874417732597,-2,0,-37,-15,0,1,-4,10
1501874417748594,-1,5,-12,1,8,1,-3,10
1501874417748594,-3,-3,5,-11,-46,-9,1,19
1501874417750551,9,12,24,18,18,5,9,6
1501874417750551,-3,-16,7,14,-4,-4,-8,-5
1501874417770601,-2,2,3,1,-5,-1,-2,-5
1501874417770601,-3,-6,-2,2,-3,0,-4,-17
1501874417778559,-2,-4,8,-24,-23,-1,3,8
1501874417778559,3,3,-4,5,13,-1,3,14
1501874417785594,6,28,-8,-1,-21,-4,1,25
1501874417785594,-8,-14,3,18,11,0,-5,-35
1501874417792620,0,-11,14,-3,15,3,-1,2
1501874417792620,3,2,-28,-12,-15,-6,-2,0
1501874417808602,-4,18,73,-17,26,5,2,-1
1501874417808602,4,-24,-25,24,2,1,7,28
1501874417810594,-9,40,-12,-19,-13,-8,-19,-31
1501874417810594,-8,-31,14,15,-5,-7,-7,-8
1501874417831570,-1,3,-7,-14,-9,6,4,-3
1501874417831570,4,-1,-16,-18,4,1,4,26
1501874417832556,3,3,-21,-1,-28,1,-2,-29
1501874417832556,-3,18,32,-9,34,-2,0,2
1501874417845597,-7,-13,-9,4,-17,-7,-6,1
1501874417845597,1,-3,-50,-19,4,-1,-4,-22
1501874417852604,5,17,7,28,12,4,3,43
1501874417852604,4,15,2,-14,-13,3,1,-18
1501874417868601,-4,-12,4,13,-5,-9,-4,-7
1501874417868601,-9,-21,26,-6,14,5,4,-8
1501874417870558,3,-4,14,-4,-32,-9,-11,26
1501874417870558,-5,16,-28,-8,20,0,0,10
1501874417891605,7,3,82,23,15,2,-7,-18
1501874417891605,0,14,-6,-12,-11,-3,-3,-3
1501874417892564,-6,-17,-34,-12,2,-6,3,-1
1501874417892564,-1,0,-12,0,-19,0,-2,-18
1501874417905602,0,0,-11,8,-19,-3,1,1
1501874417905602,2,2,6,-10,2,5,0,8
1501874417912622,-1,-8,-30,-3,31,-4,1,4
1501874417912622,-1,-4,32,-3,1,3,0,6
1501874417928602,-4,0,-37,-2,-6,-2,4,-4
1501874417928602,-4,-21,8,16,-11,-3,-3,-2
1501874417930562,3,26,22,7,6,5,3,20
1501874417930562,7,11,20,18,-22,4,4,-16
1501874417951574,-5,-38,-40,-29,36,1,3,19
1501874417951574,-2,13,-6,3,-12,-4,1,-2
1501874417952563,-2,12,15,-16,-5,-4,-16,-20
1501874417952563,-4,-35,5,8,2,4,1,-13
1501874417965607,-3,7,-30,4,-9,-5,-4,-25
1501874417965607,2,-1,12,-6,-6,-4,-2,9
1501874417972626,5,-19,-16,4,6,0,11,21
1501874417972626,-11,1,8,-1,0,-2,-7,-10
1501874417988568,3,20,-22,-9,-15,-3,0,-7
1501874417988568,-17,-55,-47,-4,16,-3,-8,-9
1501874417990587,-2,-1,10,11,8,3,1,-28
1501874417990587,-3,-12,-15,-7,-8,-3,2,6
1501874418018609,7,14,38,-5,-7,1,3,16
1501874418018609,2,34,-8,2,-8,-4,-7,2
1501874418020589,-2,-11,22,6,-2,-2,7,-8
1501874418020589,-6,-8,9,4,-8,-5,-10,-3
1501874418024582,-1,-9,-36,1,17,-1,-3,2
1501874418024582,6,18,14,-15,-1,1,7,33
1501874418033572,-7,-12,-24,-11,25,9,-10,-41
1501874418033572,0,-2,-2,-4,-7,-5,0,14
1501874418048617,-3,8,6,4,-23,-5,-5,-25
1501874418048617,-6,-20,-8,3,3,-1,-7,32
1501874418050569,1,7,0,3,11,0,3,3
1501874418050569,7,-4,10,-6,3,3,10,17
1501874418071579,-3,1,20,15,0,-1,-14,-34
1501874418071579,4,-7,-82,-18,-18,-4,-2,-8
1501874418072582,0,30,16,-5,-29,-4,-2,2
1501874418072582,-11,-40,7,-24,6,0,1,13
1501874418084613,1,-2,-34,-4,15,-1,-2,-16
1501874418084613,0,1,63,10,5,4,0,-35
1501874418093575,1,-12,-14,-17,-10,-5,-3,11
1501874418093575,3,28,-7,19,18,-1,1,11
1501874418108616,-1,-7,-13,-6,-17,-1,7,22
1501874418108616,0,3,45,2,2,-3,-9,-37
1501874418110572,-1,-10,-9,-1,-3,0,1,4
1501874418110572,0,-5,-17,-20,-14,-2,-1,-7
1501874418131576,6,19,31,13,12,2,4,25
1501874418131576,-5,-17,17,12,12,1,-3,-12
1501874418132572,-3,-6,17,-10,-21,-4,2,17
1501874418132572,0,7,-12,19,34,-2,-3,-1
1501874418144575,-3,0,9,-11,-21,-3,-6,-7
1501874418144575,4,19,14,-16,-12,0,4,14
1501874418153575,-1,-12,36,7,12,-1,1,-13
1501874418153575,5,8,-3,-3,-25,-2,2,25
1501874418168593,-2,0,-30,8,16,3,0,-2
1501874418168593,-4,7,11,9,-8,-2,-2,-20
1501874418170575,-5,-6,-31,-18,1,0,1,-1
1501874418170575,0,10,4,7,0,-1,-9,-25
1501874418191589,-4,-8,10,-1,-10,1,6,14
1501874418191589,7,11,24,6,0,-1,-1,15
1501874418192579,8,2,-46,3,-3,1,-7,-4
1501874418192579,-4,-27,-3,-8,31,5,-1,-21
1501874418204649,2,16,54,28,-15,-4,-4,14
1501874418204649,-6,-4,-10,-8,-1,0,6,1
1501874418213577,-3,-1,-1,1,-9,0,-2,-16
1501874418213577,1,10,-16,-6,-5,-3,-2,9
1501874418228609,2,-27,-59,7,12,2,-2,-19
1501874418228609,1,15,-22,-32,-12,-2,4,3
1501874418230584,-5,4,21,-3,18,1,-2,13
1501874418230584,3,6,-48,-19,-19,-5,-4,-15
1501874418251584,-7,-11,-25,-29,7,0,3,15
1501874418251584,-1,4,23,37,-18,-12,-9,-22
1501874418252585,-4,4,2,-2,-4,4,4,6
1501874418252585,-3,-5,48,4,-3,0,-1,-9
1501874418264628,3,2,25,6,13,2,-2,2
1501874418264628,9,6,-35,-20,8,0,3,20
1501874418273581,-8,-4,3,6,-13,-6,-5,-26
1501874418273581,-6,-25,1,6,-22,-3,3,6
1501874418296589,-4,-9,20,-2,10,1,-3,-9
1501874418296589,-6,-18,-17,0,-4,-2,-4,-2
1501874418297603,5,29,23,6,5,-1,3,9
1501874418297603,-3,-10,-11,8,4,2,0,-11
1501874418311591,4,15,-11,-15,-18,-7,0,3
1501874418311591,-2,-15,-18,-6,11,5,0,8
1501874418312594,2,-3,0,4,3,-4,-5,9
1501874418312594,-5,2,54,29,-1,-4,-6,-15
1501874418324632,-5,-11,-8,-14,-35,-3,2,4
1501874418324632,2,12,-12,-17,40,-2,-1,11
1501874418333607,5,-4,-10,-8,-9,3,7,3
1501874418333607,1,15,-35,5,11,5,1,19
1501874418348629,-8,-6,-2,-1,-7,-2,-7,-42
1501874418348629,-4,-7,-12,1,-7,-3,-3,-2
1501874418350586,1,-40,-9,-2,7,-3,1,10
1501874418350586,4,42,16,2,4,0,3,8
1501874418371597,1,-19,11,-4,-20,-4,5,-6
1501874418371597,-12,-4,4,0,7,1,-5,-16
1501874418372605,-1,0,-28,10,-7,-1,0,2
1501874418372605,-2,-4,-10,-28,-32,-8,-6,-16
1501874418384596,2,17,2,-4,15,6,3,23
1501874418384596,3,1,9,23,4,0,5,6
1501874418393588,1,-1,2,5,13,3,-6,-25
1501874418393588,-12,-36,-8,-1,-6,-9,-7,-7
1501874418408632,0,5,5,-18,10,0,-3,9
1501874418408632,0,-24,-12,-5,-35,-4,-3,-1
1501874418410595,-8,23,6,7,10,2,1,-19
1501874418410595,3,-1,-7,1,2,2,7,4
1501874418431601,-2,8,15,17,4,-2,-11,-4
1501874418431601,3,1,18,4,13,8,7,-2
1501874418432593,-7,-4,-17,-13,-8,-8,-12,-6
1501874418432593,3,4,5,-4,9,-2,-2,3
1501874418453636,0,6,-16,3,7,1,1,-1
1501874418453636,5,16,0,-9,-5,0,3,11
1501874418455592,1,2,-2,-2,-14,-6,6,25
1501874418455592,-10,-18,10,-7,0,8,-2,-7
1501874418468635,8,1,-18,1,13,-2,-6,9
1501874418468635,-5,-5,-20,-8,-7,-2,-3,-10
1501874418470593,6,15,-4,3,4,1,3,7
1501874418470593,-3,14,29,2,-8,-2,-3,-5
1501874418491604,-13,-30,-33,-16,5,-10,-2,-6
1501874418491604,4,11,23,0,5,4,0,2
1501874418492605,-5,-11,2,-1,3,-1,2,9
1501874418492605,8,11,-27,-3,2,2,7,17
1501874418513635,-5,-6,21,8,-11,-3,-8,-12
1501874418513635,-1,-4,-52,-7,-14,-3,-3,-8
1501874418515596,-2,13,31,-8,5,0,2,3
1501874418515596,0,1,5,20,11,-3,-5,-18
1501874418528638,1,-10,0,-10,-25,1,3,-2
1501874418528638,-7,-26,8,8,21,5,6,8
1501874418530597,2,1,-8,-2,-16,-7,-6,22
1501874418530597,0,16,22,8,-2,-2,-7,-21
1501874418551603,2,-18,-19,0,-5,0,7,27
1501874418551603,3,20,-9,0,2,0,-2,8
1501874418552599,-8,-13,-17,-7,8,2,0,-22
1501874418552599,2,-7,-36,-10,-15,-6,-1,6
1501874418573656,-1,19,10,0,8,-1,1,-6
1501874418573656,-1,-10,13,2,-21,-5,-3,3
1501874418575599,1,6,4,6,29,5,4,7
1501874418575599,1,3,48,23,-21,-3,0,11
1501874418588646,8,9,-12,-9,14,2,-3,-1
1501874418588646,-3,-2,18,5,6,-1,-1,-28
1501874418590600,4,-2,5,-17,-18,-1,2,15
1501874418590600,-5,-2,-30,-4,3,-1,-8,-31
1501874418610647,-7,-18,45,9,3,-1,2,-12
1501874418610647,7,26,17,7,3,-2,4,15
1501874418612600,1,-18,48,2,5,0,-7,10
1501874418612600,-5,-25,-46,-42,-6,1,2,12
1501874418633648,-1,16,-8,11,7,-1,-2,-3
1501874418633648,-7,2,13,2,-5,-2,-5,-11
1501874418635624,-4,-9,-1,6,-16,-3,-2,-24
1501874418635624,-3,-4,35,0,10,0,-1,3
1501874418647662,0,-14,-15,3,-7,2,2,17
1501874418647662,-3,0,-3,-10,-2,-1,2,13
1501874418654652,-2,24,-39,3,-23,-8,-14,-32
1501874418654652,7,-2,25,-13,56,12,1,-4
1501874418671615,-4,-4,-17,15,-12,-3,4,13
1501874418671615,-1,2,-8,-22,5,0,-9,-33
1501874418672626,-3,-8,27,-6,-29,-6,-1,4
1501874418672626,3,12,-35,3,7,-3,4,15
1501874418693664,-7,-13,-11,-3,6,1,-5,-11
1501874418693664,3,6,1,-4,-11,-3,3,16
1501874418695606,-4,-41,-38,-2,4,-4,-1,1
1501874418695606,-2,23,33,8,-1,-2,-1,-22
1501874418707645,1,-16,-42,-9,-4,5,2,21
1501874418707645,-3,-5,11,5,-9,-6,-4,-11
1501874418714647,4,5,-24,-5,20,4,1,-8
1501874418714647,3,14,29,8,-9,-4,3,29
1501874418731622,-5,-1,-14,9,-15,-3,-4,-15
1501874418731622,0,12,-33,-23,-4,-4,5,-1
1501874418732631,-6,-32,-1,15,15,0,-5,5
1501874418732631,1,0,37,-5,-9,5,-2,-7
1501874418753653,4,17,2,-15,7,-1,-2,10
1501874418753653,-4,-20,6,-16,-23,-8,-6,-27
1501874418755610,-2,24,8,9,10,-2,3,-1
1501874418755610,4,1,-46,0,-11,0,4,17
1501874418767671,4,24,17,8,-5,-1,1,-24
1501874418767671,-2,-40,-3,23,16,0,-6,7
1501874418774650,-2,3,16,3,3,5,-2,7
1501874418774650,1,12,0,-4,7,4,-3,-2
1501874418790657,3,-3,12,-9,-1,1,9,23
1501874418790657,-3,-2,1,7,-3,-2,-10,-15
1501874418792611,-8,-5,2,3,-22,-5,2,6
1501874418792611,3,8,-37,-11,14,-1,-5,-4
1501874418813654,-6,-2,70,16,-18,-3,-2,-5
1501874418813654,-2,-7,-22,-25,21,5,4,18
1501874418815614,-1,0,-28,-13,-13,-4,-5,-28
1501874418815614,-6,-5,-4,3,-13,0,5,5
1501874418827621,0,9,-2,3,2,-8,-7,-13
1501874418827621,8,2,39,21,4,5,11,41
1501874418834655,0,2,-15,-12,10,2,3,-7
1501874418834655,-3,-19,-12,4,-5,-3,-7,-18
1501874418851634,-5,0,51,-9,-3,-1,-2,-18
1501874418851634,-2,0,-16,1,-4,1,-3,5
1501874418852615,5,30,22,-9,4,2,6,17
1501874418852615,2,3,53,16,-5,-3,-1,0
1501874418873664,-5,-36,-39,0,11,0,-4,-10
1501874418873664,2,18,6,-5,-12,-3,2,17
1501874418875617,1,0,2,-5,9,0,-2,-3
1501874418875617,-3,-14,-30,6,3,-2,0,4
1501874418887679,2,21,2,-2,-14,-1,1,6
1501874418887679,-2,-4,-25,-3,11,-2,-3,-16
1501874418894618,3,0,-23,16,13,4,2,11
1501874418894618,-5,-27,-4,-10,-13,-4,-6,-9
1501874418911651,5,-1,10,8,-19,-5,3,26
1501874418911651,-8,1,-12,-8,16,3,-7,-36
1501874418913619,-2,-6,8,-2,-5,-4,-4,14
1501874418913619,4,10,9,9,-1,-2,1,-15
1501874418933659,-2,0,-14,-22,-2,-1,0,8
1501874418933659,3,1,6,10,-11,-2,1,2
1501874418935620,-2,1,-1,-12,2,-2,1,14
1501874418935620,-8,-9,21,11,-4,-5,-3,3
1501874418947671,5,8,4,-15,11,4,2,-15
1501874418947671,-5,-4,-31,-3,-17,-6,-7,-7
1501874418956629,2,-4,4,5,-4,1,1,-8
1501874418956629,0,6,-15,-3,16,1,2,-2
1501874418971634,-7,9,-16,1,-17,-6,-3,10
1501874418971634,-3,-31,72,28,20,5,-1,-30
1501874418972622,6,2,-9,-14,-13,1,-1,6
1501874418972622,-1,5,-11,-6,1,0,2,2
1501874418993686,0,-2,-15,3,7,2,2,8
1501874418993686,-8,3,14,-2,-14,-7,-5,-14
1501874418995647,-12,-24,-15,-5,-2,-5,-5,-30
1501874418995647,5,14,11,1,-1,2,-4,-7
1501874419007693,0,-6,-10,4,8,2,3,11
1501874419007693,8,19,-29,9,-12,-1,4,23
1501874419016648,-1,-1,46,10,9,-1,1,-7
1501874419016648,-3,-8,-21,-15,-5,-1,6,29
1501874419038687,-1,-4,0,-11,-16,0,-7,-10
1501874419038687,-5,14,9,0,11,1,-2,-14
1501874419040634,6,-11,-13,-3,-7,-5,1,26
1501874419040634,-1,0,0,1,-6,-1,-1,-16
1501874419053674,0,-14,2,15,24,1,-1,-2
1501874419053674,-1,-1,-8,-8,-1,0,3,5
1501874419055627,2,11,14,-3,-12,0,0,4
1501874419055627,-3,-6,3,3,17,-2,-4,4
1501874419067691,-3,9,-26,-9,3,-3,-6,-27
1501874419067691,1,8,12,-1,-13,-4,2,6
1501874419076628,-4,-14,-21,-1,-6,1,4,3
1501874419076628,0,-1,10,-1,-3,-1,-2,16
1501874419090671,-6,5,-7,8,9,5,-1,-33
1501874419090671,2,-1,-21,-17,-1,-3,-1,20
1501874419092628,-3,3,4,2,1,-2,-3,-12
1501874419092628,1,-5,7,-4,-12,-2,1,-25
1501874419113650,1,18,20,0,0,-2,-1,9
1501874419113650,-1,-26,-22,11,0,-3,-6,-8
1501874419115638,-5,-10,-81,-17,16,5,2,4
1501874419115638,-1,13,37,5,-8,-4,-5,-17
1501874419127633,-1,-20,-18,-8,13,4,3,5
1501874419127633,3,15,10,10,-5,1,6,9
1501874419136654,-3,3,19,3,-9,-7,-8,-9
1501874419136654,-2,-6,-23,-17,-25,-8,-3,10
1501874419150691,-7,-10,13,-7,36,4,-5,-19
1501874419150691,2,23,-6,-1,-9,-2,-2,9
1501874419152632,2,2,34,7,12,7,5,-6
1501874419152632,-3,4,-52,2,-13,0,4,20
1501874419173682,1,-10,18,-9,-10,-9,-5,3
1501874419173682,-9,-15,-40,-19,-1,-3,-6,-25
1501874419175633,4,14,16,4,-12,-6,-4,0
1501874419175633,-1,0,-2,2,15,3,4,6
1501874419187703,1,11,19,1,-36,-7,-2,1
1501874419187703,-1,-28,-20,-6,31,4,1,11
1501874419196635,-1,-5,-12,-15,-9,-1,-3,0
1501874419196635,-3,-7,14,-1,-6,-2,0,6
1501874419210674,-4,0,-12,4,-4,-2,3,-4
1501874419210674,-2,14,-8,6,-1,0,-1,-7
1501874419212643,-3,6,38,2,1,-1,-8,-33
1501874419212643,-3,-31,-45,-15,12,0,-2,-3
1501874419233700,-1,8,19,0,-16,-5,-6,-20
1501874419233700,4,-7,-17,-9,-9,-2,1,15
1501874419235638,1,8,10,3,2,0,4,35
1501874419235638,-7,-4,-12,-6,-7,-2,-5,-13
1501874419247680,2,-12,3,11,-6,-2,4,12
1501874419247680,-2,0,11,3,-2,0,3,-7
1501874419256660,3,12,2,4,6,-1,1,21
1501874419256660,6,3,-3,-2,0,0,1,-11
1501874419271659,-1,2,13,5,-12,1,-4,-3
1501874419271659,-5,17,2,-1,6,-7,-4,-5
1501874419272639,-1,-34,-17,-4,15,9,4,6
1501874419272639,0,10,9,8,-2,1,-2,-16
1501874419293683,-3,-16,-34,-1,5,-3,0,-2
1501874419293683,2,6,4,2,1,-4,-2,3
1501874419295661,2,-4,25,-12,-43,-4,-3,-8
1501874419295661,-7,2,-18,-7,24,-1,-4,-7
1501874419307706,2,-6,-4,4,4,1,2,6
1501874419307706,0,5,41,1,-6,-1,-3,12
1501874419316666,-8,-6,-27,-4,-5,-6,-5,-32
1501874419316666,0,-3,33,12,-16,-6,-1,14
1501874419330690,-1,6,-18,-15,38,8,7,0
1501874419330690,-2,-16,-19,2,4,0,-7,-19
1501874419332642,2,24,-6,-4,-8,-2,3,24
1501874419332642,-4,-10,43,8,-8,0,-7,-14
1501874419353692,-1,10,5,8,-14,-4,1,24
1501874419353692,-3,-8,29,-12,16,2,3,-17
1501874419355644,-2,9,-11,3,1,0,0,7
1501874419355644,3,1,-20,3,-1,-2,-2,2
1501874419367720,-4,-27,-8,-9,-3,-5,-3,6
1501874419367720,0,0,-8,-11,-14,1,-1,14
1501874419376668,1,8,5,3,15,1,1,0
1501874419376668,-4,-6,-9,-11,-13,4,0,-18
1501874419390690,4,13,22,25,27,1,1,-9
1501874419390690,2,-4,-7,-14,-22,-5,-3,7
1501874419392646,-3,5,-7,1,-7,-4,-3,-16
1501874419392646,3,4,0,4,18,4,4,14
1501874419413695,-1,-7,-12,-5,-16,-3,-8,-11
1501874419413695,-3,-9,-15,-11,-10,-1,-2,-10
1501874419415648,-6,2,-5,-12,1,-1,-1,-7
1501874419415648,2,1,10,5,3,0,-1,0
1501874419435657,-1,-9,-6,-13,-18,-5,-4,9
1501874419435657,3,9,36,1,-5,1,3,3
1501874419437649,0,-13,-8,11,23,2,1,1
1501874419437649,-1,4,-4,-9,-20,-2,2,12
1501874419450691,-2,-6,-24,8,24,4,-2,-3
1501874419450691,-3,-2,11,11,-12,-5,-2,2
1501874419452649,4,6,10,-12,-16,-1,4,-2
1501874419452649,-3,-1,1,5,6,-3,-10,0
1501874419473698,6,8,-4,-13,-11,3,0,-6
1501874419473698,0,8,8,12,8,1,-2,0
1501874419475650,1,-3,-14,20,6,0,0,-4
1501874419475650,-3,-2,3,-16,-14,-4,2,3
1501874419495696,-5,-3,-2,2,6,-3,-5,-16
1501874419495696,-6,-5,1,2,-5,-2,-2,-2
1501874419497656,5,12,3,5,18,-2,-2,2
1501874419497656,3,-7,-14,-3,0,1,0,13
1501874419511654,-1,-8,-21,-13,-9,-3,-1,11
1501874419511654,-1,1,4,4,-5,-1,1,-12
1501874419512675,-4,-10,-4,4,-13,-6,-2,18
1501874419512675,5,2,9,1,2,-3,0,-26
1501874419533676,-9,3,6,1,-4,0,-1,-29
1501874419533676,0,-4,-31,3,2,3,-6,-7
1501874419535654,-5,-6,-2,-13,1,0,-5,-7
1501874419535654,3,8,21,7,10,-2,2,11
1501874419555678,2,4,10,-22,-9,-2,2,8
1501874419555678,0,3,3,-2,1,0,1,-1
1501874419557660,3,-2,23,7,-6,3,-1,-3
1501874419557660,-4,-3,-29,-3,1,0,2,4
1501874419570679,-1,11,28,7,-10,-5,3,-2
1501874419570679,6,18,-18,14,-1,-6,-5,24
1501874419577658,-1,-36,13,-14,13,10,3,6
1501874419577658,-7,-12,-38,1,3,-1,-3,-10
1501874419593701,0,6,-14,-3,7,4,1,13
1501874419593701,2,0,6,3,-11,-1,12,6
1501874419595679,-1,-9,-56,11,-3,-7,-12,23
1501874419595679,-7,18,36,-11,-27,-6,-9,-37
1501874419615701,3,-5,4,-4,14,3,-1,-6
1501874419615701,-2,-12,3,-3,3,2,3,3
1501874419617666,0,6,-16,5,1,1,3,-5
1501874419617666,1,-1,1,-4,6,0,1,10
1501874419630697,-1,6,-16,5,-10,-7,-4,-2
1501874419630697,-3,-5,-1,-16,1,1,0,-8
1501874419637741,-4,-2,11,2,-15,-2,0,-7
1501874419637741,5,12,9,5,10,-1,1,21
1501874419653709,-3,-10,-2,0,-3,1,0,-6
1501874419653709,0,0,15,3,3,1,-4,-8
1501874419655663,-1,6,10,-10,-4,-4,-5,-21
1501874419655663,-3,-10,-22,1,7,4,3,5
1501874419675712,2,2,-2,0,-9,-4,-2,1
1501874419675712,-5,-19,6,-2,9,3,2,24
1501874419677668,0,8,-1,7,-5,-5,0,-49
1501874419677668,0,6,6,-4,-2,-2,0,-8
1501874419690662,4,7,14,13,2,-2,-7,-1
1501874419690662,-9,-37,-38,-4,12,5,0,2
1501874419697697,3,0,8,-21,2,3,2,22
1501874419697697,-3,7,-36,-1,-8,-3,-1,-3
1501874419713686,0,-22,2,-8,-3,-1,4,-7
1501874419713686,2,21,46,8,-8,-5,-4,-3
1501874419715677,-4,-13,-14,4,-9,-6,-1,5
1501874419715677,3,1,14,3,13,3,4,23
1501874419735714,-1,10,-8,6,1,1,-3,-32
1501874419735714,-2,-3,-4,-9,-3,-3,-3,-7
1501874419737666,-4,3,0,0,-5,-3,0,-8
1501874419737666,1,-3,-11,1,-9,-4,-2,14
1501874419750709,-1,7,33,-3,11,3,1,9
1501874419750709,-1,-20,-46,-2,-2,2,3,0
1501874419764715,4,27,13,15,15,0,-1,1
1501874419764715,0,-31,1,-16,-6,-1,-3,-7
1501874419773710,-6,-4,-2,2,10,0,4,23
1501874419773710,1,7,6,-12,-6,-4,-8,-15
1501874419775668,-1,-11,-41,-9,-6,-1,1,-2
1501874419775668,0,9,21,10,1,0,0,-10
1501874419795699,-6,-12,-25,-4,-4,-1,-1,2
1501874419795699,0,17,19,11,0,-4,3,5
1501874419797669,4,-7,23,-2,-5,-1,-1,10
1501874419797669,-8,-12,22,2,10,-1,-5,-26
1501874419810678,2,1,-7,1,-3,-1,0,3
1501874419810678,0,9,-16,-3,-4,1,-1,-6
1501874419817681,-4,-8,-9,-5,-1,-4,-4,-5
1501874419817681,2,5,24,-2,0,-1,0,-3
1501874419833737,0,0,-39,-4,-5,-2,2,12
1501874419833737,-3,2,20,-2,-8,-3,-5,-12
1501874419835672,2,2,20,-2,-3,-2,0,4
1501874419835672,1,0,-33,9,21,7,2,11
1501874419855720,1,0,-17,-14,-7,0,-1,5
1501874419855720,0,-5,13,5,2,-1,3,6
1501874419857673,-2,6,19,-3,-5,-2,-1,-10
1501874419857673,-2,2,-39,-4,-7,-2,0,5
1501874419870736,-1,5,39,3,-3,0,1,-8
1501874419870736,4,10,6,-4,5,-1,-3,2
1501874419877675,-9,-7,20,-4,1,0,-3,0
1501874419877675,1,-2,-18,4,-5,-2,0,1
1501874419893723,0,-5,3,0,-1,-2,0,2
1501874419893723,-1,2,-31,-2,-5,-3,0,-2
1501874419895688,1,-1,-16,-2,2,-3,-2,-1
1501874419895688,-2,-1,7,-2,-1,2,1,1
1501874419915738,-1,4,-5,-1,-3,-3,-3,-2
1501874419915738,-2,-4,-1,3,3,0,-1,-4
1501874419917676,0,15,5,3,1,1,1,6
1501874419917676,-4,-18,-33,-5,-8,-4,-3,-5
1501874419929743,-3,3,16,0,3,0,-2,-1
1501874419929743,0,-17,1,-1,-1,1,0,-1
1501874419938678,0,-3,2,3,7,1,0,0
1501874419938678,-1,6,10,-3,-1,0,1,5
1501874419953717,-2,-6,-11,-1,-10,0,0,-1
1501874419953717,-1,10,-16,13,1,-6,4,12
1501874419955679,-3,-8,15,-25,6,6,-2,-15
1501874419955679,-1,-4,21,1,-4,-1,-3,-1
1501874419975723,4,-7,-45,9,-33,-4,7,42
1501874419975723,5,9,1,-21,34,1,0,12
1501874419977680,-8,-15,-26,8,4,1,-9,-41
1501874419977680,-3,0,-5,2,-4,-2,-1,-6
1501874419989715,5,-2,1,-16,12,2,-2,4
1501874419989715,-3,-3,-15,7,-25,-5,5,7
1501874419998680,3,3,11,3,-11,-5,-3,2
1501874419998680,-1,9,7,-10,8,-2,-3,4
1501874420013685,-3,-10,14,15,-5,-4,-1,3
1501874420013685,1,-5,2,-2,1,2,-2,-1
1501874420014711,0,5,2,9,-4,-1,-2,3
1501874420014711,0,22,4,8,-5,0,2,-3
1501874420035726,-4,-13,6,1,17,0,-2,-10
1501874420035726,2,-5,-9,4,9,4,-4,2
1501874420037683,-5,-20,10,-3,3,0,1,19
1501874420037683,-3,2,-57,-9,-10,-4,-6,-18
1501874420049729,2,10,8,4,11,-2,0,-9
1501874420049729,-6,-2,-3,-1,-5,-5,-7,-25
1501874420058685,1,7,-24,-9,-20,-3,2,13
1501874420058685,4,-3,12,0,-3,-2,2,18
1501874420073726,-5,15,30,-1,6,3,-2,-6
1501874420073726,-2,-1,10,3,-22,-4,1,-1
1501874420075691,2,-6,11,4,9,-1,-8,-21
1501874420075691,-3,-20,11,3,14,3,0,-11
1501874420095692,0,2,-17,-7,1,1,-6,-18
1501874420095692,1,-3,13,0,-6,-2,1,12
1501874420097687,-1,4,-10,-5,-8,-3,2,9
1501874420097687,-1,3,27,0,-2,-5,-2,-7
1501874420109730,3,11,-19,-3,-2,-4,-7,-8
1501874420109730,0,0,-6,-6,0,5,0,11
1501874420118694,-1,2,-12,7,5,-1,4,-5
1501874420118694,-3,-10,14,-2,4,2,-1,3
1501874420133730,-4,-2,-1,-1,-23,-8,-4,0
1501874420133730,-1,5,8,5,7,-1,-3,-14
1501874420135690,2,4,-14,1,29,5,4,4
1501874420135690,2,0,11,3,-12,-2,1,7
1501874420155732,-2,6,53,-2,-2,-4,0,-1
1501874420155732,1,-8,-55,-15,-24,-9,-6,-11
1501874420157690,-4,5,14,19,16,6,5,7
1501874420157690,0,-21,13,12,2,0,3,6
1501874420169754,-2,-12,-43,-31,21,6,-4,-18
1501874420169754,1,3,1,-13,-6,1,-4,-6
1501874420178691,1,0,7,-9,-13,-6,-1,5
1501874420178691,-2,11,-4,-5,-5,-5,-6,-3
1501874420193740,-3,-4,-2,10,-8,-1,3,0
1501874420193740,-3,0,6,0,-7,-1,3,-5
1501874420195692,-2,2,1,-8,9,-4,-4,4
1501874420195692,0,5,36,8,0,3,3,-2
1501874420215739,-3,-2,-14,4,-5,-3,-4,-4
1501874420215739,0,3,43,13,-3,0,-2,-2
1501874420217694,-1,-5,-21,-7,5,2,0,2
1501874420217694,-2,-9,-27,-2,8,-2,-1,6
1501874420229736,-5,-1,0,-7,-24,-2,1,-9
1501874420229736,1,7,8,10,32,5,2,0
1501874420238695,-1,-16,-22,-3,-16,-1,-2,1
1501874420238695,3,26,5,-8,-13,-4,0,13
1501874420253742,-4,-43,-28,-5,26,1,-3,-13
1501874420253742,-3,-6,-20,-6,-3,-3,1,18
1501874420255701,-4,6,35,8,-13,-6,-1,-22
1501874420255701,2,-1,-2,-13,-5,1,-7,-15
1501874420275743,1,6,8,16,-12,-5,-2,0
1501874420275743,3,11,0,-9,5,6,2,-5
1501874420277699,1,0,16,-3,13,0,2,7
1501874420277699,-4,3,-25,-3,5,-2,-3,-3
1501874420289739,-3,3,18,10,-8,-3,-1,1
1501874420289739,1,-5,1,-4,-2,1,2,6
1501874420298698,-2,-5,-17,2,-19,-4,-4,7
1501874420298698,-1,-1,0,-12,-6,-2,-4,-8
1501874420313745,1,11,-39,-7,6,2,2,9
1501874420313745,-7,-10,7,-6,-22,-5,-3,-9
1501874420314742,-1,0,-6,2,12,2,-2,1
1501874420314742,0,0,4,4,0,-3,-4,-7
1501874420343749,-1,6,-6,-2,-10,-3,0,7
1501874420343749,1,16,7,7,9,4,1,-2
1501874420344708,2,-15,5,1,-5,-1,-1,-4
1501874420344708,-4,-22,-9,-2,-5,0,-1,8
1501874420358744,3,-8,6,-1,-7,0,1,-2
1501874420358744,-3,-6,-6,2,9,-3,-2,-1
1501874420359745,3,29,20,6,-17,-2,0,15
1501874420359745,-2,-23,0,-7,24,4,-2,-16
1501874420373745,-1,-7,-20,1,11,6,2,2
1501874420373745,-2,-13,-13,-5,-6,-3,-3,-11
1501874420374745,0,14,22,5,7,-3,1,14
1501874420374745,0,6,-19,-13,-53,-9,0,4
1501874420395744,1,10,16,6,30,2,-4,-3
1501874420395744,2,2,3,0,7,0,2,3
1501874420397720,-1,-2,-63,-1,-6,-2,1,3
1501874420397720,-3,0,19,6,1,2,-2,-5
1501874420418751,-6,-6,-16,-12,-18,-8,-4,-2
1501874420418751,-2,-8,-15,-3,-2,2,-1,-7
1501874420424763,-3,-4,-1,-5,4,-5,-5,-11
1501874420424763,4,7,68,2,-13,4,3,0
1501874420433749,-3,6,-47,14,24,-1,2,12
1501874420433749,0,-3,18,-28,-7,0,-3,-6
1501874420434751,-5,-2,-21,-4,-11,-3,-5,-10
1501874420434751,-1,-9,-26,3,14,4,3,0
1501874420455749,-2,-4,36,3,-8,-1,1,3
1501874420455749,-1,0,-2,7,-11,-2,-3,-1
1501874420457714,2,-8,-31,-4,7,2,0,4
1501874420457714,-7,2,-34,-4,5,-3,-2,-8
1501874420478750,4,-11,29,-6,-11,-3,-1,8
1501874420478750,-1,12,-24,11,4,3,-2,-15
1501874420479754,-4,-11,32,-7,-14,2,-3,-3
1501874420479754,5,19,20,9,19,-3,1,14
1501874420492768,-8,-18,-22,-6,1,-4,-5,-16
1501874420492768,-2,-11,-3,2,-3,-4,-1,1
1501874420499752,1,3,9,3,-13,-6,0,-7
1501874420499752,-5,-3,-15,-9,17,2,-1,8
1501874420515754,5,18,26,4,5,3,-1,-1
1501874420515754,-2,-18,-4,9,-16,-9,-4,4
1501874420517711,1,0,-21,4,35,9,2,-1
1501874420517711,-1,-1,-45,-14,-36,-6,-1,0
