timestamp,emg1,emg2,emg3,emg4,emg5,emg6,emg7,emg8
1501875910434930,-65,-75,-77,-26,1,2,-19,-100
1501875910434930,-15,0,0,-8,-10,-7,-7,-26
1501875910435903,0,-23,1,-19,-20,-1,14,52
1501875910435903,20,102,-7,-26,-51,-18,-9,13
1501875910436912,5,-14,-19,25,31,0,16,110
1501875910436912,18,96,-7,-19,32,27,-17,-108
1501875910439915,-25,-92,-42,-7,-35,-12,0,22
1501875910439915,-13,55,-13,-59,1,-5,3,-11
1501875910447971,15,-44,57,-5,-15,-4,-1,12
1501875910447971,-24,-50,-20,-58,-59,-26,-14,-66
1501875910455938,31,25,34,35,126,53,12,9
1501875910455938,-27,-65,-22,-48,-7,7,15,-5
1501875910462940,4,25,3,21,11,-5,-6,23
1501875910462940,-8,-40,32,36,-20,4,12,36
1501875910476964,24,110,5,28,-42,-19,-6,19
1501875910476964,-34,-128,3,49,-43,-8,-17,34
1501875910488928,11,5,12,6,88,22,26,61
1501875910488928,-6,84,6,31,-10,-19,-23,8
1501875910500941,-28,-65,-43,-63,-2,-4,-17,-32
1501875910500941,12,52,-26,-23,8,8,20,-9
1501875910508917,16,24,42,11,-35,-9,8,23
1501875910508917,-13,-66,-94,-8,-9,-14,3,12
1501875910521974,11,90,47,-23,33,28,2,13
1501875910521974,-1,-56,6,72,18,-2,-12,15
1501875910563919,-23,-11,19,63,18,-1,-9,-10
1501875910563919,1,26,44,8,17,0,-6,1
1501875910563919,-13,-13,-51,77,28,-13,3,-20
1501875910563919,1,17,14,-11,-3,7,2,11
1501875910567932,6,13,-10,21,12,11,10,1
1501875910567932,2,16,-17,-54,-8,3,0,0
1501875910569921,15,71,41,61,3,4,15,-11
1501875910569921,0,-105,-76,-36,-14,-11,-28,-45
1501875910573974,-26,-18,2,-32,-21,-6,9,-21
1501875910573974,19,58,-17,32,5,-6,-14,-8
1501875910582928,-18,-44,-18,-18,-4,-1,-14,-2
1501875910582928,18,27,-1,9,-39,-3,5,9
1501875910588912,7,3,8,-16,38,-1,-10,15
1501875910588912,-11,-23,-28,-72,8,-3,14,44
1501875910605939,5,0,26,17,4,-8,-1,36
1501875910605939,6,24,31,45,6,13,11,23
1501875910611982,3,9,26,-50,8,6,4,37
1501875910611982,-19,-27,-30,68,-38,-10,-10,-70
1501875910634958,4,-20,11,-7,35,6,3,32
1501875910634958,-8,39,10,-104,-40,-10,-13,-20
1501875910635926,10,24,-30,35,-7,-5,-3,-15
1501875910635926,8,-10,-5,18,-83,-5,10,43
1501875910649981,-7,-6,3,-40,65,25,-3,-22
1501875910649981,0,31,26,39,-10,-5,8,19
1501875910650913,-11,-98,-58,28,-25,0,-4,-33
1501875910650913,-13,-15,-15,-77,-1,-2,-3,11
1501875910673960,4,-6,32,-41,-59,-13,-4,35
1501875910673960,-24,-21,13,77,69,2,5,-63
1501875910674930,24,59,0,-52,-21,-4,1,9
1501875910674930,-1,-7,22,40,13,0,5,-27
1501875910694980,-12,-38,-16,-12,-9,-2,-11,-20
1501875910694980,8,50,29,3,19,9,6,24
1501875910695938,-7,-21,43,35,-22,-10,0,40
1501875910695938,-1,-24,-51,-5,3,1,-1,0
1501875910709919,8,26,-16,8,7,8,13,4
1501875910709919,2,79,34,16,-20,0,-5,9
1501875910710919,-10,-22,-44,-37,22,-7,-2,-13
1501875910710919,21,37,54,47,-37,1,2,5
1501875910731956,-13,3,83,9,19,14,1,-6
1501875910731956,-14,-59,-124,-53,28,-5,2,3
1501875910732918,17,88,61,24,-24,4,4,8
1501875910732918,-21,-73,-42,23,-36,-9,-6,27
1501875910754985,7,22,-4,40,53,-7,3,-29
1501875910754985,-5,-24,-4,-71,-17,-1,-7,7
1501875910755932,7,57,15,21,-12,3,-1,11
1501875910755932,-5,-9,23,5,31,6,17,5
1501875910768987,1,30,-70,12,-42,-13,-27,-46
1501875910768987,-5,-33,2,-5,4,-2,-13,-30
1501875910776987,-3,-9,-1,-15,-3,-2,-8,-28
1501875910776987,-9,9,35,33,37,-1,-3,-16
1501875910791957,-2,-28,-22,-70,-37,-8,5,30
1501875910791957,10,14,-2,9,-3,-2,12,39
1501875910792960,1,-16,-7,2,7,5,-6,-24
1501875910792960,-10,-19,16,13,15,0,-11,-21
1501875910814988,0,-14,-1,-27,-25,2,4,9
1501875910814988,0,-2,-11,30,-9,-5,6,-2
1501875910815923,-6,-37,-1,12,35,-4,-4,5
1501875910815923,-1,-10,-24,-17,-50,-6,-7,6
1501875910828967,5,32,7,1,39,5,0,-21
1501875910828967,-2,-21,21,8,-2,-11,-10,3
1501875910836993,-5,7,3,-8,4,5,-1,-32
1501875910836993,-2,0,16,-32,26,11,1,-6
1501875910852928,-4,-13,-36,36,-37,-11,-10,10
1501875910852928,2,5,-24,-9,22,9,9,-12
1501875910852928,-2,-11,37,0,-2,-4,0,18
1501875910852928,8,-43,28,-28,-2,-2,-5,13
1501875910874967,-8,-6,-59,-5,-19,-1,2,-25
1501875910874967,0,-8,14,10,40,0,2,31
1501875910875954,-1,-11,-43,-6,-19,-2,7,0
1501875910875954,2,50,8,5,8,-2,-8,4
1501875910888993,6,20,22,-59,3,1,6,43
1501875910888993,-12,-5,-9,4,-37,-5,-16,-94
1501875910896968,-5,-34,-35,0,-4,-6,-2,37
1501875910896968,1,17,-17,15,25,-1,3,10
1501875910911966,1,-8,-1,12,5,-4,-2,7
1501875910911966,1,21,14,35,-7,9,6,-8
1501875910912967,13,6,27,-19,-26,-7,0,-7
1501875910912967,-18,-15,-23,-11,30,12,2,-27
1501875910934946,3,0,11,-11,-17,-2,-3,-4
1501875910934946,-3,2,-8,4,2,-1,8,35
1501875910935930,3,-2,15,56,11,1,2,4
1501875910935930,9,49,-14,-91,-29,-7,-9,2
1501875910948931,5,-9,10,3,-1,-2,0,10
1501875910948931,-16,-29,19,22,11,-1,-1,-19
1501875910957004,3,9,-1,-44,-9,0,-3,28
1501875910957004,6,-16,-19,33,4,-2,10,28
1501875910971950,0,9,12,-18,6,1,3,13
1501875910971950,5,6,10,23,-26,-8,-11,-17
1501875910972966,-9,4,-34,-25,10,2,-6,-36
1501875910972966,8,-13,10,-6,18,-1,3,9
1501875910994986,-16,2,26,1,-42,-6,-4,-15
1501875910994986,0,-20,-10,-17,30,9,-1,31
1501875910995935,-1,5,23,49,-55,-12,-6,-30
1501875910995935,3,2,-40,-51,55,10,5,-14
1501875911008975,-10,-1,37,-10,-12,1,-3,-1
1501875911008975,9,8,7,4,-13,-9,-5,37
1501875911016982,-9,-34,-45,13,13,5,1,-6
1501875911016982,7,5,38,71,-43,-9,2,16
1501875911032002,0,5,-62,-51,37,0,-1,-14
1501875911032002,-7,-24,-4,-29,-21,14,6,-16
1501875911032974,21,16,58,5,53,-4,9,62
1501875911032974,-18,-11,18,40,-14,-7,-14,-90
1501875911054978,-8,8,18,-16,19,3,3,0
1501875911054978,10,16,-6,14,-16,-3,-6,12
1501875911055938,-8,3,-4,-55,-9,2,-1,-21
1501875911055938,-6,-13,16,22,-3,1,10,5
1501875911069008,0,22,33,17,6,3,-5,50
1501875911069008,-3,15,-23,22,-16,-1,1,-25
1501875911076980,7,19,-8,7,26,4,-4,36
1501875911076980,-1,-13,9,10,-10,-4,-9,2
1501875911091997,25,-8,-45,-17,-13,-5,7,4
1501875911091997,-53,-21,22,-21,11,-5,6,7
1501875911092977,12,54,18,0,61,-3,-10,0
1501875911092977,-24,-13,24,56,3,-2,-2,-26
1501875911115010,5,-17,-36,-11,-43,-1,-3,-53
1501875911115010,29,-9,27,-20,9,1,4,28
1501875911115961,-15,-11,-20,-8,-28,-5,-2,-21
1501875911115961,-7,12,-26,29,-6,-4,-3,22
1501875911129005,-12,-15,41,64,-4,4,0,-3
1501875911129005,10,-21,-30,-92,55,-7,1,51
1501875911136954,-6,4,-17,31,-14,0,-7,-44
1501875911136954,12,23,-26,-57,-17,-2,-10,-79
1501875911152009,-10,-33,3,54,-18,1,1,19
1501875911152009,16,20,1,-1,-3,3,-2,-8
1501875911152981,-17,-18,12,22,-3,3,11,33
1501875911152981,8,19,-34,-38,7,-7,-5,-12
1501875911175012,-5,5,2,-5,0,-4,-7,-37
1501875911175012,19,50,11,36,-14,-6,0,42
1501875911175944,-15,-35,-13,-32,8,1,2,-60
1501875911175944,-14,12,34,1,51,4,-2,43
1501875911196987,17,1,-19,-27,-11,-4,-1,26
1501875911196987,-8,-26,-14,18,-28,-10,-7,-6
1501875911197955,7,14,18,19,53,16,7,5
1501875911197955,8,7,39,8,10,6,9,40
1501875911211995,2,3,-23,-13,5,0,4,-8
1501875911211995,-24,-11,-3,29,-14,-9,-9,-26
1501875911212988,-1,1,-10,-96,-67,-6,-2,-36
1501875911212988,5,6,-23,-7,20,8,1,-19
1501875911235016,-2,9,61,-10,13,-6,-3,-4
1501875911235016,3,2,5,-6,-29,0,0,-36
1501875911235947,6,1,-7,22,6,0,7,72
1501875911235947,12,15,-40,-49,-19,0,-8,3
1501875911256981,-5,-31,0,33,-13,-2,-1,-4
1501875911256981,4,-4,34,20,17,8,3,21
1501875911257950,7,2,-27,14,1,-2,-1,-17
1501875911257950,-16,-4,25,1,-21,-3,10,9
1501875911271959,-2,3,-13,7,7,2,-10,-17
1501875911271959,9,-3,4,1,18,3,2,-8
1501875911272958,-13,-12,7,-2,-8,-5,-3,6
1501875911272958,-13,-17,-21,31,-28,-7,-2,-19
1501875911295008,6,17,-1,-35,13,6,8,10
1501875911295008,2,4,-35,-38,-35,-7,-8,-3
1501875911295965,-4,-12,-33,-4,35,7,-2,-8
1501875911295965,11,-2,30,28,8,0,-3,-4
1501875911316980,10,-1,-17,-6,-20,-6,1,14
1501875911316980,-34,29,20,19,2,-2,-3,-50
1501875911317957,7,-18,32,1,-19,-7,-6,-9
1501875911317957,4,-13,-1,-24,-20,1,12,64
1501875911332022,-4,-6,-43,26,28,-4,-12,-19
1501875911332022,12,-1,-37,-34,-29,1,-1,-15
1501875911332973,-2,-12,-1,36,41,-1,-6,15
1501875911332973,1,6,-11,-32,-1,2,-4,15
1501875911354999,-12,-7,35,20,-10,0,8,9
1501875911354999,19,9,6,15,4,0,8,38
1501875911355967,-18,-14,-16,16,-52,-7,-16,-44
1501875911355967,6,6,-3,-16,35,6,-1,4
1501875911376955,0,-8,-25,-27,4,-6,-8,-17
1501875911376955,5,13,-22,24,9,2,6,29
1501875911377955,5,-48,2,19,-30,2,10,20
1501875911377955,-6,23,15,-42,-20,-2,-14,-61
1501875911391968,-4,23,14,-6,25,-1,-4,-22
1501875911391968,-11,-53,18,23,1,-2,-4,-14
1501875911392957,3,36,15,14,7,8,9,3
1501875911392957,-4,-12,-26,-12,-11,-6,-2,19
1501875911414991,-22,-14,1,-8,-6,5,7,-12
1501875911414991,-4,10,11,-1,9,-8,-7,7
1501875911415990,5,40,27,0,7,-1,-3,-20
1501875911415990,22,-41,-27,-1,-8,1,5,-2
1501875911436998,-13,18,27,-13,-53,-3,-4,18
1501875911436998,-8,4,-16,-61,91,3,1,1
1501875911437974,-8,-38,-17,21,-22,-8,-4,2
1501875911437974,-5,-11,4,1,9,0,2,-9
1501875911452027,20,22,30,5,-14,3,1,55
1501875911452027,-4,-50,-18,11,-4,5,1,-34
1501875911452998,-7,12,-30,-44,-19,-10,-5,-9
1501875911452998,1,16,20,17,41,-8,-3,28
1501875911483023,1,-2,-5,16,7,10,8,-14
1501875911483023,15,1,58,20,-41,-4,7,28
1501875911483998,-6,-18,-22,-35,9,0,-15,-18
1501875911483998,-6,-19,-7,-11,10,-1,2,22
1501875911497003,1,14,18,3,19,-9,-9,-21
1501875911497003,8,23,4,-5,-11,3,3,-5
1501875911498002,2,9,17,23,-32,1,8,15
1501875911498002,-2,-2,16,1,-28,-11,-12,-8
1501875911512002,-3,-14,-9,8,28,-3,-5,-14
1501875911512002,-4,9,16,7,26,7,9,28
1501875911513004,0,0,-16,-12,2,-6,-13,-39
1501875911513004,8,15,12,-5,-46,-3,-4,6
1501875911534004,-4,-23,-31,0,68,6,6,16
1501875911534004,-13,-35,-21,-4,-38,-10,-11,-30
1501875911542008,2,21,5,-1,0,0,1,0
1501875911542008,16,11,-19,22,58,8,5,79
1501875911557034,-7,-5,19,6,-50,-10,1,-20
1501875911557034,-3,11,10,-5,4,3,0,-6
1501875911558006,4,2,-53,-35,-2,-1,2,6
1501875911558006,-5,20,-1,8,-19,-5,-2,-22
1501875911580018,5,-25,-1,24,-5,0,-1,18
1501875911580018,2,-16,-8,2,23,-5,-5,-9
1501875911580981,-7,-3,-55,-45,-37,1,2,21
1501875911580981,3,27,-39,15,-4,7,12,-9
1501875911593988,0,-1,21,9,-15,-3,4,-12
1501875911593988,-3,48,0,-1,4,2,-5,-15
1501875911602034,2,-40,2,-24,7,1,6,-7
1501875911602034,3,-22,-26,0,8,-4,-1,18
1501875911617013,4,21,4,-11,-10,-1,-4,-13
1501875911617013,-4,69,-30,2,-14,-5,-4,8
1501875911618008,1,-47,31,7,2,-1,-2,-14
1501875911618008,-11,-12,20,1,22,9,7,-33
1501875911640014,9,5,-27,9,-15,-9,-1,21
1501875911640014,-2,11,1,-1,25,3,2,0
1501875911640984,-6,23,39,1,18,6,2,4
1501875911640984,-3,-4,9,-4,-24,-1,3,-20
1501875911663042,1,-2,-5,1,-3,-7,-18,-25
1501875911663042,13,-23,8,15,-3,2,1,41
1501875911663984,-4,26,-1,14,-3,-1,5,27
1501875911663984,-19,-49,-45,12,28,-3,-8,-19
1501875911677013,2,2,-35,-32,-22,2,1,-1
1501875911677013,-5,-30,-14,-23,-23,-4,-4,-4
1501875911678013,6,2,-1,6,17,2,4,36
1501875911678013,6,29,-19,-5,7,-10,-9,-65
1501875911700017,-9,-48,12,11,4,-3,-3,6
1501875911700017,-3,-57,-12,-23,-5,7,6,-26
1501875911700974,-8,25,11,2,17,-11,-12,-21
1501875911700974,1,17,15,-8,-13,5,3,14
1501875911730987,1,-15,-1,2,1,0,4,18
1501875911730987,-6,-19,-13,-26,-1,-8,0,7
1501875911730987,15,37,28,19,-25,-5,-7,-3
1501875911730987,-25,-61,16,-30,-15,1,-7,-12
1501875911737038,-6,-8,-8,-7,20,11,16,8
1501875911737038,10,42,11,18,-10,-4,-3,2
1501875911737976,-5,4,-32,11,6,2,-4,-31
1501875911737976,-1,-11,14,11,-7,0,-3,-6
1501875911760018,11,12,7,0,-10,-2,5,16
1501875911760018,-4,10,-5,10,12,-1,-9,-16
1501875911760991,-8,-60,2,-12,33,1,14,34
1501875911760991,8,29,7,13,7,4,-14,-13
1501875911782985,-9,2,-9,20,-10,-2,-4,-15
1501875911782985,15,-13,1,-10,-13,0,6,16
1501875911783980,4,34,-15,-3,10,1,-1,29
1501875911783980,3,39,31,-28,-19,-8,6,14
1501875911797021,-21,-54,-30,-13,13,6,-3,-26
1501875911797021,4,15,8,33,-14,-3,5,14
1501875911797984,-3,22,40,8,19,-2,-13,-17
1501875911797984,14,35,12,8,4,3,6,37
1501875911820021,-2,-7,-25,-18,-11,-4,-3,1
1501875911820021,-3,1,29,-5,-9,-3,-6,-20
1501875911820987,4,-4,-1,-1,-24,-4,7,27
1501875911820987,-13,-58,21,34,34,0,-1,-24
1501875911843049,9,39,38,19,-24,1,-4,8
1501875911843049,-5,29,-37,-89,13,6,11,8
1501875911843994,13,-5,8,19,-22,1,-8,-9
1501875911843994,-19,-48,-20,-13,-3,-7,-5,-1
1501875911857043,10,-1,5,18,9,0,4,38
1501875911857043,-7,5,-38,1,-6,1,4,4
1501875911858030,2,38,0,-18,-22,-2,-3,11
1501875911858030,3,-11,21,31,-13,-2,11,24
1501875911880049,-13,13,-33,-53,30,5,-18,-60
1501875911880049,-5,4,41,31,38,0,-8,-32
1501875911880985,5,7,2,-13,-23,3,11,-18
1501875911880985,-7,-9,-33,0,-15,-6,-15,11
1501875911903053,11,32,-32,33,1,-4,8,18
1501875911903053,-8,-27,-4,-36,-1,3,-4,11
1501875911903998,-11,-72,9,19,-53,-11,-3,2
1501875911903998,10,32,3,-31,22,14,14,20
1501875911917054,1,-13,7,-26,-44,-2,-1,-18
1501875911917054,-6,16,0,24,40,-3,-10,2
1501875911918028,3,63,-23,28,12,-5,5,2
1501875911918028,2,-82,29,-17,-37,-2,-13,-31
1501875911940028,2,5,22,-1,-2,-2,6,25
1501875911940028,-5,-24,-13,23,8,3,-8,-29
1501875911941013,0,-7,-8,-16,17,1,2,18
1501875911941013,10,49,5,9,-3,-3,2,-2
1501875911963057,2,24,18,3,20,-2,2,15
1501875911963057,-4,-43,-3,-4,-41,-6,-1,-13
1501875911964002,-7,60,2,-21,55,7,3,-25
1501875911964002,-14,-17,-38,37,2,-5,-19,-51
1501875911977055,-2,-35,10,-67,-34,0,0,17
1501875911977055,13,34,0,27,19,-4,0,-3
1501875911978030,-7,11,5,5,7,-1,-10,-25
1501875911978030,4,25,3,-25,10,5,11,6
1501875912000034,-18,-38,9,25,-11,-11,-12,-31
1501875912000034,4,-5,16,8,-12,1,2,7
1501875912001005,9,26,-44,-27,-30,1,13,24
1501875912001005,-6,27,-52,-9,21,-8,-17,-19
1501875912023052,-2,-23,-9,21,-4,0,1,10
1501875912023052,5,-3,46,24,-22,-1,17,50
1501875912024005,-20,-69,-7,10,42,-1,-35,-54
1501875912024005,-4,-19,-21,-12,-21,2,4,5
1501875912037035,13,34,9,-24,11,-2,2,27
1501875912037035,0,21,-5,5,-25,-4,-2,-13
1501875912037996,-21,-115,23,12,-6,0,3,-22
1501875912037996,4,32,-24,-16,15,4,9,10
1501875912060036,7,-15,10,16,1,-6,-4,5
1501875912060036,-10,-5,-1,1,0,-4,-6,-12
1501875912061009,12,12,11,-17,-4,8,4,16
1501875912061009,2,-8,4,30,-9,-5,8,26
1501875912083059,3,25,36,-7,-32,6,2,-5
1501875912083059,-5,-6,-26,9,42,5,-1,1
1501875912084010,0,-4,22,7,-9,-7,-2,1
1501875912084010,4,6,28,29,3,-2,1,17
1501875912097058,-5,-8,-39,-37,-28,-3,-2,4
1501875912097058,-10,-10,-43,-10,0,-4,-3,1
1501875912098010,0,16,-26,23,11,2,-10,-23
1501875912098010,13,39,43,6,-20,4,20,62
1501875912120040,-16,17,4,-16,8,-7,-15,-87
1501875912120040,0,11,4,8,-63,-2,-7,12
1501875912121004,2,-15,3,-10,42,-4,-6,6
1501875912121004,-1,28,-6,-11,-11,-3,-7,-4
1501875912143073,4,13,0,14,18,-1,4,14
1501875912143073,-4,-28,6,-11,-3,-1,-3,-6
1501875912144017,7,48,6,10,-12,3,5,15
1501875912144017,-7,-53,-3,-7,-2,-3,-1,-12
1501875912157044,9,47,26,28,13,3,9,30
1501875912157044,1,-54,-38,2,2,2,3,-30
1501875912158040,-3,26,12,-27,-21,-4,-4,12
1501875912158040,-1,-14,18,-6,-13,-3,-6,-47
1501875912180042,-6,-32,-24,20,19,-3,-2,2
1501875912180042,-1,-1,-19,-34,-21,-3,-3,-14
1501875912181027,9,4,29,-5,41,-2,3,-1
1501875912181027,-6,-6,-11,-10,-10,-1,-5,9
1501875912203073,-1,6,6,1,-41,-3,0,-17
1501875912203073,11,53,18,30,84,8,5,9
1501875912204005,0,-30,-66,-33,-38,1,15,21
1501875912204005,4,15,31,24,-9,-6,-15,10
1501875912217048,-11,-7,-16,-35,3,6,1,28
1501875912217048,3,4,23,0,9,-5,-5,21
1501875912218003,-7,-13,29,8,-26,1,4,-15
1501875912218003,-1,23,-24,4,-40,-2,4,-9
1501875912240046,3,4,-1,14,58,8,-2,-17
1501875912240046,-4,-38,5,4,14,1,-5,16
1501875912241043,-4,-32,-30,-1,-17,-4,3,-8
1501875912241043,-8,-20,-17,-25,-6,-4,1,16
1501875912263068,-3,6,-16,5,14,-3,-6,-25
1501875912263068,8,19,17,-5,-19,-5,3,6
1501875912264019,3,18,11,14,10,4,-1,6
1501875912264019,-9,-34,-11,-3,28,1,-6,-23
1501875912277007,4,-4,-30,-8,-6,3,3,-1
1501875912277007,3,22,15,16,8,-3,7,37
1501875912285051,-1,-40,16,26,-38,-7,-9,-23
1501875912285051,0,35,-15,-73,21,0,-1,-16
1501875912300075,-15,-62,10,-12,30,-2,-2,3
1501875912300075,-9,-25,9,-17,-34,-3,-6,-24
1501875912301039,6,24,17,25,11,0,-4,2
1501875912301039,4,30,33,6,18,11,11,17
1501875912323043,9,-25,-41,14,-23,-5,2,18
1501875912323043,-2,-1,-10,-7,-37,-7,7,29
1501875912324010,-10,7,-20,-45,46,-2,-23,-50
1501875912324010,-2,-9,15,44,0,0,-1,1
1501875912346030,10,40,-11,20,18,0,6,-2
1501875912346030,-7,-40,9,-13,-22,-3,1,28
1501875912346030,-4,13,11,16,-16,-13,-24,-29
1501875912346030,7,7,14,-22,-27,5,-1,3
1501875912360055,-1,7,13,-19,36,0,-4,-15
1501875912360055,-3,14,-35,-4,6,2,-4,-19
1501875912361015,3,33,19,2,-29,0,18,17
1501875912361015,-8,-37,-18,-17,16,-6,6,54
1501875912383084,0,17,-9,9,-15,-1,-14,-22
1501875912383084,5,6,18,23,4,0,2,-1
1501875912384027,-1,0,-23,-25,27,9,7,5
1501875912384027,10,20,14,10,13,-7,-9,-8
1501875912397084,-6,5,22,-3,-21,2,7,2
1501875912397084,-1,11,-16,-20,-37,-7,-11,-22
1501875912405064,-1,0,-2,7,42,7,6,19
1501875912405064,-1,-8,-14,-1,-21,2,3,-20
1501875912420029,5,43,35,0,12,-1,-1,13
1501875912420029,-14,-17,-11,-1,-1,4,-2,-24
1501875912421052,9,-11,-6,2,-25,-5,7,24
1501875912421052,-5,-3,-10,17,16,1,-2,-4
1501875912443016,1,13,21,6,-16,-3,-7,14
1501875912443016,7,-20,-40,-7,27,7,22,67
1501875912444019,-15,-11,50,11,-38,-12,-38,-83
1501875912444019,-6,-22,-73,-30,26,7,-6,-8
1501875912457019,-1,-1,11,9,-20,-1,-3,6
1501875912457019,-7,0,17,-2,6,-5,-6,-55
1501875912465051,0,-17,-15,12,-13,4,4,22
1501875912465051,3,21,19,24,-7,-7,3,-2
1501875912480019,3,-23,-7,-6,-18,-2,6,4
1501875912480019,-7,23,-13,-16,18,6,-11,-21
1501875912481019,2,2,-21,14,0,-2,5,29
1501875912481019,-1,25,40,26,1,-10,-3,-16
1501875912503022,-2,-44,-27,-20,-10,3,13,32
1501875912503022,3,-3,10,-4,17,-3,-8,-23
1501875912504020,-14,-17,3,-10,-1,8,-5,-32
1501875912504020,1,-8,-5,17,-11,-3,-4,18
1501875912517066,-1,12,15,1,13,-1,-1,-24
1501875912517066,5,19,-1,2,-15,-1,-2,-13
1501875912525061,-8,-17,-19,5,-13,-8,4,9
1501875912525061,5,3,46,-31,4,10,7,24
1501875912540061,-5,-27,-12,4,6,-2,-5,-7
1501875912540061,2,25,-30,-4,-4,-1,-4,-16
1501875912541025,6,-16,2,-5,16,0,10,21
1501875912541025,2,19,-8,1,-20,-3,2,18
1501875912563058,-7,-17,-12,7,-39,-17,-17,-27
1501875912563058,-13,-19,3,-38,59,10,0,-17
1501875912564037,3,11,-28,-8,-11,-7,-6,6
1501875912564037,-1,5,11,4,-12,-1,-5,-13
1501875912577099,0,10,10,1,24,1,-4,0
1501875912577099,-2,-50,3,-10,-31,-11,0,16
1501875912585082,5,11,1,-3,3,1,12,33
1501875912585082,3,41,4,13,0,1,-1,-16
1501875912600095,0,3,-18,-4,-8,4,0,5
1501875912600095,4,-2,-6,25,7,0,-1,8
1501875912601029,3,10,22,-17,22,4,4,28
1501875912601029,-6,-23,-13,19,-6,-3,-2,-27
1501875912623099,0,-12,-13,-13,-20,-1,11,22
1501875912623099,-3,56,6,-4,1,2,-10,-36
1501875912624040,3,-22,1,25,2,-1,-1,21
1501875912624040,2,8,-4,23,15,2,0,-7
1501875912646051,9,-10,8,-11,1,1,6,11
1501875912646051,-14,15,34,18,-9,-6,-7,9
1501875912646051,-9,-29,-39,-41,-26,0,-3,-23
1501875912646051,-7,-36,11,-15,-14,-7,2,3
1501875912660099,-5,3,-29,1,42,1,-9,-22
1501875912660099,10,40,22,11,-4,3,4,12
1501875912661062,2,3,-4,7,-4,1,2,7
1501875912661062,-6,-32,22,-2,-2,-4,3,12
1501875912683072,-1,18,-31,-4,-3,-4,8,4
1501875912683072,5,-15,31,8,3,5,-8,5
1501875912684043,-2,17,0,1,11,0,0,-9
1501875912684043,-2,-20,5,-7,3,1,-4,-17
1501875912706048,1,32,3,18,-5,-2,6,15
1501875912706048,-2,-48,-21,-23,-14,0,4,-3
1501875912706048,7,48,34,14,-2,-2,-2,38
1501875912706048,-4,-29,-27,5,-9,-4,-1,-2
1501875912720070,-16,-34,-13,-3,16,-4,-7,-9
1501875912720070,-2,-10,-15,16,-11,3,9,5
1501875912721039,-1,2,10,-51,-12,0,-6,-28
1501875912721039,4,50,-27,-13,0,-6,-8,-39
1501875912743086,3,-9,23,16,26,6,-8,12
1501875912743086,-3,-22,1,14,7,-1,3,-13
1501875912744046,1,-10,16,5,3,-1,4,4
1501875912744046,-3,0,17,-1,-5,-2,2,-4
1501875912766060,-2,13,24,6,-6,-1,-8,-9
1501875912766060,1,2,-11,-1,-26,-4,0,14
1501875912766060,1,11,6,-6,23,1,4,0
1501875912766060,-7,-23,-4,37,16,-1,-8,-16
1501875912780071,-2,7,4,-67,-35,-3,-3,-9
1501875912780071,7,20,-10,-11,4,-5,-5,4
1501875912781036,0,8,-25,7,-3,2,6,10
1501875912781036,-4,-15,-2,-8,-10,3,7,-8
1501875912803067,16,55,47,53,15,4,4,40
1501875912803067,4,-2,6,-26,15,2,-2,8
1501875912804038,-5,-44,25,0,-5,-5,-7,-15
1501875912804038,-4,-12,-39,-11,-20,0,-2,3
1501875912825067,3,-3,-1,11,6,2,3,-6
1501875912825067,-1,24,19,-19,-4,-6,-3,-13
1501875912826045,0,-17,-8,17,-19,-3,5,24
1501875912826045,1,-10,-17,-18,-13,-4,-10,-17
1501875912840073,-11,-7,-11,-4,8,-3,-1,-39
1501875912840073,1,-7,1,16,-25,-1,2,1
1501875912841049,-3,29,-4,5,15,-2,-5,-6
1501875912841049,-2,-1,-9,-2,45,2,0,15
1501875912863041,2,-12,2,-15,-10,0,1,11
1501875912863041,-5,5,-5,2,-2,-2,3,-12
1501875912864042,1,37,17,32,5,0,-8,-26
1501875912864042,12,-14,-44,-8,-40,-4,5,28
1501875912886043,-11,-27,3,-37,12,-2,-10,-29
1501875912886043,-1,0,-8,-34,-11,-1,0,6
1501875912886043,-5,-28,0,20,3,4,5,10
1501875912886043,15,16,22,22,-11,0,3,17
1501875912900046,-27,-22,-19,-9,19,-2,-3,-8
1501875912900046,-4,-11,1,13,8,-3,-5,9
1501875912901051,0,-6,-9,-15,-10,-3,0,-9
1501875912901051,-5,16,9,-32,-26,2,6,11
1501875912923099,4,-2,-14,33,-4,-2,-15,-57
1501875912923099,-5,-26,-26,-30,0,-7,-7,0
1501875912924054,6,22,-7,-35,3,1,0,11
1501875912924054,-1,29,22,30,26,3,-3,-39
1501875912946067,-3,-42,-6,29,-32,-6,1,7
1501875912946067,1,3,17,11,-2,2,4,2
1501875912946067,8,3,11,16,20,0,3,36
1501875912946067,-5,-5,17,-4,-6,2,-7,-39
1501875912960117,4,11,-2,-14,-8,-2,1,2
1501875912960117,2,3,-12,10,-30,-7,-4,-12
1501875912961072,-4,0,-3,-1,32,4,15,65
1501875912961072,-13,-41,-36,-34,10,-3,-30,-71
1501875912983123,9,31,29,-6,-7,3,0,1
1501875912983123,-10,-1,-41,10,0,-7,-11,-2
1501875912984061,-4,-5,10,2,-33,-8,-6,-17
1501875912984061,1,6,-19,19,23,7,3,16
1501875913006070,3,-1,-7,-9,6,-2,15,41
1501875913006070,9,22,10,-3,-4,1,9,4
1501875913006070,-5,-19,-10,0,-31,-6,-3,-20
1501875913006070,-7,-5,3,8,33,5,-2,36
1501875913020093,5,8,12,-2,-13,0,-6,-4
1501875913020093,-2,-4,17,26,14,-1,-4,-21
1501875913021052,3,9,-25,-15,1,8,17,18
1501875913021052,-7,-9,-12,-15,-18,-10,-23,-33
1501875913043120,7,12,26,23,-36,-4,-2,7
1501875913043120,-3,0,2,29,31,4,0,-26
1501875913044065,-4,-22,-15,-13,21,5,-6,8
1501875913044065,10,24,40,19,-1,-3,18,37
1501875913066067,4,23,-3,-16,-9,5,2,8
1501875913066067,12,4,54,53,14,-2,4,62
1501875913066067,-9,-27,-50,-1,-5,-3,-9,-86
1501875913066067,-2,-12,11,-10,-46,-8,16,71
1501875913080096,-6,12,-3,16,58,6,-13,-57
1501875913080096,4,-4,2,-25,-22,-2,3,24
1501875913081093,-1,0,14,21,-5,-5,-14,2
1501875913081093,-2,-1,-13,18,16,1,-8,-1
1501875913103121,-3,-1,-5,-22,-8,-5,7,9
1501875913103121,-8,-5,-35,-7,-14,-2,3,-7
1501875913104068,0,0,29,-25,-7,-1,-3,25
1501875913104068,4,34,-33,-24,7,-3,3,18
1501875913125126,-2,-47,-19,-5,-23,-7,-14,-31
1501875913125126,-4,-18,22,-28,22,4,1,-9
1501875913126095,4,11,1,3,-42,-5,5,-11
1501875913126095,1,-5,12,-8,36,2,8,-7
1501875913140116,-1,23,-11,-15,-18,2,-5,12
1501875913140116,-6,-24,-2,3,2,-6,-9,-7
1501875913141059,-2,11,18,-3,28,3,-1,-34
1501875913141059,7,-2,-33,-41,-18,-3,5,36
1501875913163118,1,-1,-13,-16,-30,-4,0,-13
1501875913163118,-3,9,16,6,16,6,-1,-28
1501875913164071,-5,-19,-34,-4,-9,-6,1,12
1501875913164071,-5,21,30,5,-4,-1,5,15
1501875913186073,0,-35,-21,14,-2,0,5,-5
1501875913186073,4,12,0,14,44,1,-10,32
1501875913186073,-8,-17,-11,-12,-16,-3,-13,-46
1501875913186073,2,16,12,30,-9,-2,-6,-18
1501875913199103,-11,-9,18,-24,-32,-5,5,17
1501875913199103,-1,-9,-42,-38,-4,2,6,21
1501875913207119,-1,-2,3,23,10,-1,-3,-8
1501875913207119,2,1,-17,-31,-11,-2,-5,-1
1501875913223063,2,7,45,28,27,0,8,33
1501875913223063,-8,-8,-22,-9,-19,-6,-9,-41
1501875913224064,1,6,24,30,-18,-6,6,29
1501875913224064,-4,2,-31,-48,24,9,-1,-39
1501875913245130,13,6,5,-10,-13,-2,-2,28
1501875913245130,-7,-25,0,9,12,2,-1,-3
1501875913246099,-4,7,20,3,-27,-1,-6,3
1501875913246099,-3,-8,32,11,30,5,4,-7
1501875913259107,1,11,-30,15,20,1,1,6
1501875913259107,2,16,10,-26,-2,-4,-5,8
1501875913267111,3,-9,-44,-38,-16,-4,2,18
1501875913267111,-4,-9,23,32,-23,-5,2,-5
1501875913283107,-2,-13,-15,17,21,0,4,26
1501875913283107,3,16,15,-6,-10,1,-12,-17
1501875913284078,1,5,8,21,-4,-4,3,0
1501875913284078,-1,2,-17,-59,18,3,-11,-36
1501875913306092,-6,12,5,12,21,2,2,7
1501875913306092,9,-8,15,-8,-16,0,2,36
1501875913306092,-11,-23,-56,-17,-17,-3,-9,-49
1501875913306092,-1,3,22,18,15,-4,-4,-3
1501875913319135,-3,0,4,17,0,4,5,5
1501875913319135,-9,-33,-9,5,-14,-2,3,-10
1501875913327133,6,13,16,-1,9,4,0,4
1501875913327133,3,-10,-5,66,-74,-14,0,34
1501875913343108,-4,4,20,-46,14,10,-4,-22
1501875913343108,1,12,2,21,25,0,6,6
1501875913344069,-2,9,10,-28,40,9,2,-6
1501875913344069,-1,-12,3,9,-22,-6,-13,17
1501875913366094,-2,2,-18,-3,-19,-8,-1,-34
1501875913366094,-3,-9,-15,3,7,2,-2,-6
1501875913366094,-3,-8,27,43,-1,-5,-16,-12
1501875913366094,1,7,-14,-9,42,9,12,12
1501875913379139,0,-2,-6,4,0,-6,9,21
1501875913379139,6,38,16,-17,-29,-1,3,-16
1501875913387120,-6,-25,1,-14,11,-6,-3,21
1501875913387120,2,-19,-6,-27,19,0,-5,-9
1501875913403139,-9,-8,-20,4,19,-1,-9,3
1501875913403139,-1,-7,-41,29,-18,-5,0,-24
1501875913404073,7,26,14,-15,0,2,0,34
1501875913404073,-10,1,22,16,-20,-9,-6,-37
1501875913426092,5,-17,-17,-16,-32,0,4,-1
1501875913426092,-9,10,3,-26,6,-6,-7,-19
1501875913426092,14,19,-14,17,25,11,5,31
1501875913426092,-2,-8,-7,-18,-1,-2,0,-35
1501875913439117,-3,-13,1,35,20,-5,1,-17
1501875913439117,2,-4,18,15,-10,7,-4,-27
1501875913447135,-1,0,-4,-19,-6,-2,-1,-32
1501875913447135,-2,6,-7,-9,-24,-1,-3,39
1501875913463121,2,6,21,27,33,-2,2,0
1501875913463121,-3,-7,-2,-27,-15,-1,4,7
1501875913464090,-4,-1,-23,-16,9,-3,2,-5
1501875913464090,-3,-14,14,25,-38,-4,-2,-4
1501875913485143,0,12,-9,-3,3,-2,-7,1
1501875913485143,1,-3,6,8,15,5,5,32
1501875913486110,-6,-6,24,6,-10,0,-4,-22
1501875913486110,-2,-4,-35,-30,-4,2,-1,-17
1501875913499144,-2,14,9,-9,-27,-3,-15,-31
1501875913499144,4,-11,-13,23,20,1,3,41
1501875913508121,-5,-11,17,6,-23,-7,5,11
1501875913508121,-3,-17,6,20,22,7,1,-7
1501875913523147,-2,-10,-3,-55,-13,-5,-3,11
1501875913523147,-1,7,5,-7,-6,-5,-7,-23
1501875913524092,3,19,0,46,-12,-6,-4,0
1501875913524092,6,2,14,1,7,4,15,24
1501875913545139,-5,8,-10,-7,12,1,-3,-11
1501875913545139,1,-10,-2,24,-27,0,1,14
1501875913546121,-4,-8,0,-19,32,1,-4,-25
1501875913546121,7,19,2,2,5,1,5,-7
1501875913568122,2,-21,0,-14,-5,-4,-3,14
1501875913568122,2,12,-2,0,-4,-1,0,3
1501875913569095,-5,-7,-11,24,3,-3,-4,-16
1501875913569095,1,8,11,-4,-1,-2,-2,12
1501875913583137,1,5,7,-1,-7,1,9,19
1501875913583137,2,-8,18,-6,37,4,-2,-13
1501875913584095,-4,4,-2,-11,0,-4,2,21
1501875913584095,0,11,-3,12,16,4,0,11
1501875913606121,0,0,-5,14,-6,4,-10,-44
1501875913606121,-11,-32,-5,-15,-7,-8,-11,-8
1501875913607117,2,7,-9,-4,-1,2,15,-5
1501875913607117,-8,-15,3,14,-55,-10,-6,3
1501875913628157,5,12,-8,-11,21,-5,2,23
1501875913628157,0,-6,-10,-51,27,5,7,-8
1501875913630086,-5,-3,1,29,10,3,-11,-23
1501875913630086,-5,0,-20,-33,0,-4,-12,-12
1501875913642098,3,-1,4,-7,-42,-2,-2,4
1501875913642098,-3,-10,3,3,14,-10,-2,-6
1501875913651087,0,17,24,-10,-59,-1,3,-1
1501875913651087,-1,-19,-33,0,98,9,5,7
1501875913665126,1,24,10,15,-18,-4,4,18
1501875913665126,-5,-12,-37,-7,-57,-5,-4,-20
1501875913667097,-7,-14,3,-6,45,1,-9,-19
1501875913667097,1,5,17,-28,-33,-1,0,16
1501875913688130,-2,11,-18,-3,1,-1,-3,14
1501875913688130,1,-27,5,39,-9,0,0,7
1501875913690098,-1,-5,-8,-5,2,1,7,10
1501875913690098,-3,-7,15,5,0,-2,-1,-15
1501875913702090,-3,10,-11,7,-25,-1,4,21
1501875913702090,1,-2,9,-15,-13,-1,4,-13
1501875913711093,8,10,-13,-2,66,8,-7,11
1501875913711093,-4,-7,6,40,-15,-7,-2,-12
1501875913725161,1,-7,-10,-23,0,7,0,-9
1501875913725161,0,39,17,2,-11,-4,-1,24
1501875913727124,-4,-23,-18,-54,-25,-3,9,1
1501875913727124,-7,9,-1,16,-8,-9,-13,-52
1501875913748130,-2,-16,-5,-7,33,4,-2,-4
1501875913748130,-1,10,7,8,-69,-10,-8,17
1501875913750122,4,29,-16,-2,61,7,14,-3
1501875913750122,0,-29,-8,-50,3,4,-1,25
1501875913762104,-3,-9,4,15,-4,-6,-3,-1
1501875913762104,-1,13,18,6,8,3,1,-5
1501875913771094,5,-5,4,-3,-49,-5,-2,30
1501875913771094,-8,-23,1,26,6,-1,-11,-32
1501875913786118,-3,-5,-10,-13,13,5,1,-10
1501875913786118,6,22,-6,-3,24,5,3,28
1501875913787128,-6,1,8,18,-44,-13,-13,-51
1501875913787128,7,17,6,5,18,6,9,15
1501875913808167,-3,-25,-11,-34,24,3,0,10
1501875913808167,-8,8,-8,31,8,-7,-5,-20
1501875913810105,4,7,-5,-9,-13,-1,1,12
1501875913810105,1,14,9,3,-8,0,5,11
1501875913822113,3,6,32,21,-16,-4,-6,-23
1501875913822113,5,2,-41,1,15,4,6,7
1501875913831097,-3,-16,16,11,-12,-7,-4,-10
1501875913831097,0,7,-37,-29,-7,-3,-2,11
1501875913845168,-4,-22,-15,29,-1,0,4,-1
1501875913845168,-2,-3,2,-42,-31,-4,-5,-2
1501875913847099,1,7,1,-7,3,-1,-2,11
1501875913847099,-1,14,11,-6,-35,-3,7,12
1501875913868170,-3,-20,10,11,22,5,5,5
1501875913868170,-4,-11,-15,-5,6,2,-11,-61
1501875913870100,-9,-12,2,-1,0,-5,-8,12
1501875913870100,2,20,31,8,-7,1,-3,-21
1501875913882131,4,17,-1,7,3,0,6,37
1501875913882131,-5,-32,-8,2,1,-2,-2,-8
1501875913891103,7,11,-8,1,-10,-2,-6,15
1501875913891103,-3,-7,4,10,4,-3,4,5
1501875913905111,-9,-5,-3,-18,-12,-6,-7,-4
1501875913905111,4,17,38,17,47,4,8,-5
1501875913907111,-2,-11,-6,1,-43,-2,3,-5
1501875913907111,1,-2,-18,-9,4,3,-3,10
1501875913928175,1,28,4,21,49,5,-1,-30
1501875913928175,-3,-32,-14,-9,-23,-9,-4,5
1501875913930121,-5,-4,17,-2,0,-2,4,27
1501875913930121,5,17,22,9,11,3,7,-11
1501875913942167,-1,-6,-8,-11,-32,-7,-6,-20
1501875913942167,-3,5,-13,3,-1,2,-3,-5
1501875913949149,-2,-12,12,12,9,0,-3,-6
1501875913949149,2,-7,2,-4,-21,-2,4,29
1501875913965104,7,31,-6,-11,25,1,-4,-19
1501875913965104,2,18,7,-20,-28,-5,-3,3
1501875913967106,-7,-26,-9,-10,50,1,7,11
1501875913967106,-3,5,-23,16,24,-6,-15,-14
1501875913988146,-2,-20,9,4,-15,1,-1,-2
1501875913988146,-4,1,-2,-2,-1,0,10,24
1501875913990120,12,23,17,6,-16,0,3,-18
1501875913990120,-7,-35,-6,-13,3,0,-3,-6
1501875914002164,-3,-6,1,11,-4,-3,-5,-2
1501875914002164,0,1,-6,-5,8,2,-2,-4
1501875914009148,0,8,-2,-14,-29,-3,0,-2
1501875914009148,1,2,-1,5,31,-1,2,4
1501875914025154,-2,-11,8,17,-20,-5,-2,2
1501875914025154,-2,0,-2,33,14,3,9,14
1501875914027142,2,-10,-28,-21,-34,3,-1,6
1501875914027142,0,5,-19,-20,25,-6,-16,-23
1501875914048153,-4,-6,-5,-20,8,0,2,-1
1501875914048153,5,24,30,19,23,2,-1,-4
1501875914050111,-1,0,24,9,4,2,-1,4
1501875914050111,-10,-12,-57,-1,-40,-9,-2,3
1501875914062129,4,-13,-19,19,-15,-4,1,17
1501875914062129,-1,1,0,-12,33,6,2,8
1501875914071111,-8,-13,-5,-6,11,1,-9,-32
1501875914071111,4,14,41,14,-15,-1,-2,-14
1501875914085154,-2,13,-13,-27,2,-6,-10,-28
1501875914085154,1,-1,-22,-5,-21,0,2,-2
1501875914087146,-4,0,3,-16,6,-6,-10,-14
1501875914087146,8,12,1,12,9,3,5,25
1501875914108177,-7,-15,11,40,-46,-6,-6,-21
1501875914108177,-5,-19,-6,-25,64,7,-3,-3
1501875914110122,2,21,-23,-6,7,4,8,-6
1501875914110122,6,-31,0,0,-8,-4,10,45
1501875914122132,-5,8,13,-6,-8,-1,-12,-26
1501875914122132,-2,-7,4,1,-50,-9,-6,-2
1501875914131115,-8,-3,15,15,36,2,-2,-6
1501875914131115,2,6,-11,0,9,6,14,11
1501875914145184,-8,2,6,-30,0,1,-15,-22
1501875914145184,1,0,0,29,-29,-15,-10,-8
1501875914147115,4,-2,-34,-25,12,7,1,9
1501875914147115,-10,-13,17,-13,-2,0,2,-6
1501875914168155,6,-3,-13,-6,-10,-1,9,-1
1501875914168155,-2,3,27,-6,15,-4,-5,-6
1501875914169129,0,2,9,30,-20,-6,-2,11
1501875914169129,-3,13,-12,-31,-50,-6,-3,-17
1501875914182128,6,0,-10,15,46,7,15,36
1501875914182128,-11,-43,-41,-18,2,-4,-14,-35
1501875914191118,10,11,17,6,-8,-2,2,15
1501875914191118,-8,-4,12,29,5,2,-5,-28
1501875914205197,2,0,1,-41,-20,-3,-1,27
1501875914205197,10,19,3,-2,-13,-2,12,37
1501875914207128,-10,-5,-14,6,26,3,-10,-49
1501875914207128,-1,-9,-1,7,-18,-5,-8,0
1501875914228160,-2,-9,9,-10,-9,-6,2,-5
1501875914228160,1,1,-18,9,36,7,3,6
1501875914230120,1,14,1,-6,-28,-6,-5,-6
1501875914230120,-6,10,5,3,22,3,4,-2
1501875914242138,1,0,-7,0,-5,-2,-1,9
1501875914242138,-4,-5,-9,-3,-15,-2,-4,-17
1501875914251122,0,-9,7,10,-15,-5,-1,7
1501875914251122,1,13,-24,-29,13,2,0,-2
1501875914265193,1,-2,11,29,38,-5,0,10
1501875914265193,-5,-13,-9,-27,-12,2,0,-3
1501875914267154,1,4,-11,-19,-14,-2,2,22
1501875914267154,0,-4,12,4,-15,-5,-6,-37
1501875914288122,-3,1,-12,1,15,4,0,0
1501875914288122,1,23,14,3,-35,-3,5,11
1501875914290132,-5,-27,11,9,38,-1,-3,-10
1501875914290132,-2,-6,-10,-8,-3,-1,-3,12
1501875914302144,-2,-4,-3,8,-8,-1,3,-18
1501875914302144,4,15,23,28,-15,0,-1,6
1501875914311127,1,19,-14,-16,16,4,8,29
1501875914311127,1,3,10,7,-2,-4,-9,-12
1501875914325200,-3,-2,-9,-12,-28,-2,-5,-4
1501875914325200,-1,-6,8,-3,45,5,8,18
1501875914327162,8,16,-16,2,-8,-5,0,37
1501875914327162,-6,1,12,-31,2,1,-5,-39
1501875914348194,-1,9,17,26,13,-4,1,1
1501875914348194,1,5,4,-13,-6,-2,-1,-15
1501875914350139,-3,-26,0,1,-26,2,2,14
1501875914350139,6,-22,-5,-3,14,0,9,56
1501875914362140,-6,6,-3,10,1,-6,-16,-34
1501875914362140,-3,-5,11,11,-4,-2,-3,-1
1501875914371130,1,5,-6,2,-7,-6,-3,-23
1501875914371130,4,12,-6,1,2,9,11,30
1501875914385171,3,-16,-4,16,-4,-6,1,-2
1501875914385171,-1,-1,1,-4,15,9,8,5
1501875914387165,4,5,23,6,-12,2,-4,-26
1501875914387165,-6,10,-23,20,5,-7,-4,-3
1501875914408190,-8,-26,0,-30,-20,-4,-8,-30
1501875914408190,6,14,-14,0,8,2,1,10
1501875914409131,-9,-25,2,4,20,1,0,-10
1501875914409131,10,14,5,34,-27,-1,8,52
1501875914422153,-11,-15,15,-14,27,0,-10,-37
1501875914422153,-1,4,-21,-10,-20,-6,-4,-14
1501875914431133,-11,-26,-10,-1,22,-4,-7,-41
1501875914431133,-4,-4,11,29,26,-1,-7,-34
1501875914445200,6,42,-3,-41,-28,3,7,39
1501875914445200,-1,-9,3,-15,-18,-5,-5,-6
1501875914447165,5,17,-8,2,7,-2,2,10
1501875914447165,-2,-19,0,-5,-17,-5,2,12
1501875914468194,-1,11,-12,-10,11,2,1,-23
1501875914468194,-1,11,17,4,-1,0,-2,-1
1501875914469134,-9,-47,-4,-1,15,-1,1,13
1501875914469134,-4,-17,17,-7,-6,-1,-4,-21
1501875914482137,15,31,5,21,8,4,9,35
1501875914482137,-5,-21,-17,-9,-12,-5,1,26
1501875914490136,3,13,7,7,-10,-2,-4,-13
1501875914490136,1,24,1,-3,10,3,-5,-24
1501875914505181,-1,-29,-1,-17,-16,2,4,24
1501875914505181,-2,12,0,14,-2,-4,-4,-20
1501875914507146,1,6,9,28,-12,-1,4,-5
1501875914507146,-2,-8,-8,-53,3,7,3,19
1501875914528139,-2,13,1,17,11,-4,-2,-14
1501875914528139,-7,-24,-19,-15,-49,-8,-9,1
1501875914530140,2,1,-36,-27,37,1,1,11
1501875914530140,0,24,13,14,15,-5,-5,-28
1501875914550180,-4,-10,0,4,5,4,6,23
1501875914550180,-4,-20,-18,-8,-10,-5,-1,-7
1501875914552150,-2,34,7,1,-16,-1,-6,6
1501875914552150,5,-25,1,-4,-18,-4,-2,14
1501875914565202,-7,-20,-6,0,13,-1,-6,-2
1501875914565202,0,-3,-3,15,22,-2,2,22
1501875914567151,2,9,-1,-24,-33,-1,1,-34
1501875914567151,4,35,12,16,15,1,-5,8
1501875914588211,-6,-35,11,-17,-34,-4,1,4
1501875914588211,0,7,-25,0,19,3,-2,-9
1501875914589141,-1,-8,7,8,-13,-5,-1,-4
1501875914589141,0,12,11,2,6,-1,1,-5
1501875914610187,3,7,-21,14,-22,-3,-3,4
1501875914610187,5,14,1,1,43,11,5,9
1501875914612176,1,-4,13,-5,-8,2,6,34
1501875914612176,-7,-18,-9,-5,-21,-4,-11,-32
1501875914625208,5,18,-10,1,4,0,3,19
1501875914625208,-5,-12,12,12,-17,-9,-8,-18
1501875914627144,-9,-17,4,14,38,3,-9,-7
1501875914627144,-3,-3,-4,-35,-5,2,5,-16
1501875914648179,6,5,2,-5,-4,3,4,16
1501875914648179,1,-17,0,-11,-18,-3,2,8
1501875914649146,-4,-5,3,20,3,1,1,20
1501875914649146,-8,-3,-4,16,-3,-7,-1,9
1501875914670188,3,26,12,2,-4,1,-1,-19
1501875914670188,4,-16,-27,-23,39,6,-2,1
1501875914672146,2,0,-8,-13,-25,-4,3,19
1501875914672146,-5,-11,-6,2,-8,-2,-7,-6
1501875914685221,0,10,8,21,-14,-3,4,3
1501875914685221,5,7,14,-6,9,4,-4,-16
1501875914692159,1,15,6,4,-8,-4,1,1
1501875914692159,1,2,-14,-24,3,2,5,2
1501875914708216,-1,-15,-6,7,17,1,-7,-1
1501875914708216,-5,15,14,10,-1,-3,2,-2
1501875914709160,4,1,-13,-2,7,0,5,18
1501875914709160,4,0,1,-2,-14,0,6,13
1501875914730190,-11,-5,-9,2,5,-3,-12,-66
1501875914730190,-2,-21,13,10,-35,-4,-4,-20
1501875914732150,-5,-15,-8,-15,15,5,-4,3
1501875914732150,4,-2,11,16,2,-1,4,6
1501875914745208,-1,-10,-11,-9,15,2,7,37
1501875914745208,-4,11,20,2,-13,-9,-4,-26
1501875914752182,-3,0,-1,-24,-9,-3,-3,-10
1501875914752182,-1,-3,-14,9,28,2,3,-2
1501875914768185,0,-16,-14,1,-6,-2,-3,1
1501875914768185,-1,31,24,6,4,4,6,8
1501875914770152,0,-25,-9,-10,-32,-12,-6,-4
1501875914770152,-6,-1,-3,-18,9,-6,-13,-21
1501875914790197,4,16,-9,8,-10,2,4,27
1501875914790197,-6,-17,-1,0,17,3,-3,-7
1501875914792164,0,21,-25,-6,-6,2,-3,-29
1501875914792164,3,-18,-8,-1,-18,-8,-3,10
1501875914805220,-1,-9,17,21,14,2,4,9
1501875914805220,-6,-9,-13,-34,-2,-5,-4,-20
1501875914812156,-1,14,0,0,18,0,-4,-31
1501875914812156,-3,-2,14,5,-12,3,-5,-9
1501875914828225,7,7,-6,-13,0,0,6,27
1501875914828225,-2,3,9,12,-34,-3,9,-18
1501875914829157,-7,-8,-6,-15,14,-5,-12,21
1501875914829157,1,2,-17,0,7,3,2,-3
1501875914850196,2,10,8,15,3,-6,-1,7
1501875914850196,4,6,-1,-6,-3,7,7,11
1501875914852168,-4,-11,-8,10,-17,-4,-4,-11
1501875914852168,4,20,14,9,19,5,4,-4
1501875914865201,-14,-33,-1,-16,0,-5,-8,-32
1501875914865201,-3,11,-10,-3,-12,-1,-3,-9
1501875914872178,3,-5,4,15,11,-1,5,15
1501875914872178,-1,12,2,-3,6,0,-4,-1
1501875914888200,3,-9,18,-8,-6,-2,-1,4
1501875914888200,-4,-1,-21,-6,3,-2,-1,-6
1501875914889159,2,-1,12,-1,-16,-4,-4,1
1501875914889159,-4,-9,-4,3,-4,-2,-1,0
1501875914910199,6,36,-23,-7,22,5,3,-1
1501875914910199,2,-39,13,9,1,-3,-4,31
1501875914912197,0,18,4,2,-16,1,1,-42
1501875914912197,-4,-19,20,0,0,-2,1,7
1501875914925194,1,6,-1,-20,-11,-4,0,-22
1501875914925194,8,10,-16,8,18,3,4,47
1501875914932187,2,4,13,16,-1,2,-2,-14
1501875914932187,-5,12,-10,-10,-10,-4,-1,-5
1501875914948231,-5,-16,-11,10,-1,3,4,-9
1501875914948231,1,14,15,-26,-1,-12,-12,1
1501875914949163,0,-10,14,3,-3,-1,-2,4
1501875914949163,0,-3,-37,-6,10,3,2,4
1501875914970205,-4,-12,1,0,-6,-1,5,10
1501875914970205,-7,-8,-4,11,9,3,1,-11
1501875914972179,0,-6,-5,6,-20,0,2,26
1501875914972179,4,-16,14,-8,18,-2,0,35
1501875914985237,-5,2,-2,-3,-5,-1,-6,-15
1501875914985237,5,30,8,14,3,0,-3,3
1501875914992181,0,-9,-14,-24,-5,-3,4,7
1501875914992181,1,-5,3,7,-15,-2,2,3
1501875915008214,1,9,9,23,7,1,-5,-9
1501875915008214,-6,-1,-9,-31,9,5,2,-3
1501875915009180,3,35,9,-8,13,5,5,-1
1501875915009180,-13,-37,-20,-9,-19,-8,-16,-21
1501875915030209,-3,-5,6,-5,-17,-7,-6,-3
1501875915030209,3,16,10,14,21,2,-1,4
1501875915032179,6,-17,-3,6,-4,4,11,33
1501875915032179,-1,17,8,3,-1,-4,-4,-41
1501875915044207,-5,-8,-22,-9,-14,0,-6,-7
1501875915044207,4,0,-7,5,1,0,4,28
1501875915053184,-4,-12,11,-11,12,-2,-7,-13
1501875915053184,3,11,-2,19,-1,4,5,-15
1501875915068231,-7,-15,7,-11,-2,-8,-9,13
1501875915068231,-1,-4,-9,-8,2,-1,-4,-20
1501875915069169,-3,1,-11,15,4,0,5,23
1501875915069169,-2,2,13,-4,19,-1,-3,2
1501875915090213,2,6,-10,-3,6,0,-1,1
1501875915090213,0,-11,-18,4,-8,-2,-3,-7
1501875915092170,-4,18,-9,-6,-5,-2,-8,-12
1501875915092170,1,-12,-10,4,-17,-7,1,0
1501875915104190,6,14,22,6,3,6,10,27
1501875915104190,-4,-15,0,22,37,-9,-9,-18
1501875915113207,2,0,-8,-44,-38,6,1,0
1501875915113207,2,15,11,-15,0,-3,-9,13
1501875915128240,1,-13,16,-13,21,4,-1,-25
1501875915128240,-1,-8,7,2,-25,-4,0,14
1501875915129200,-6,-9,-1,15,6,-4,0,-7
1501875915129200,1,20,-8,0,-7,-1,5,11
1501875915150217,0,-10,-1,3,1,-1,-1,4
1501875915150217,-2,4,4,-1,-22,-4,2,3
1501875915152206,-4,-13,17,-1,-15,-2,-4,-4
1501875915152206,-3,0,-45,-7,12,3,-6,-11
1501875915164223,3,23,-8,3,-6,-1,-1,5
1501875915164223,-4,-9,11,4,-3,3,2,-19
1501875915173208,-2,1,2,7,-3,-6,-3,-1
1501875915173208,-4,-13,12,15,4,5,2,-11
1501875915188244,-2,2,7,3,11,-3,-2,4
1501875915188244,1,3,-6,-22,-27,3,-1,-5
1501875915189176,4,32,1,2,24,1,1,9
1501875915189176,0,-28,6,-19,-21,-4,-2,-4
1501875915210217,-1,-27,2,14,20,1,11,20
1501875915210217,-4,16,-6,9,-8,4,-9,-27
1501875915212213,-1,-21,10,-5,17,3,1,-10
1501875915212213,2,4,-6,8,-5,2,-1,-10
1501875915224220,-6,6,20,11,-18,-6,1,16
1501875915224220,5,-5,-5,-2,26,-2,1,-3
1501875915233200,1,-4,-14,-5,2,2,0,26
1501875915233200,-4,13,27,3,-1,1,-7,-33
1501875915248243,0,-8,-36,-6,-15,-3,-2,-5
1501875915248243,-1,7,8,14,-24,-9,0,20
1501875915249181,1,6,3,-20,12,4,5,4
1501875915249181,5,1,12,8,-7,0,2,-9
1501875915270226,-12,-11,-13,-6,13,-1,-13,-34
1501875915270226,-4,-21,-8,-3,5,-2,-2,11
1501875915272192,-1,-4,-14,7,-6,-1,-2,-49
1501875915272192,0,13,7,-4,-8,-5,2,36
1501875915284247,6,15,3,-8,-23,-1,1,-9
1501875915284247,-4,-12,-14,-3,2,0,-3,1
1501875915293193,-4,0,9,7,-1,-4,-5,-4
1501875915293193,0,0,-6,1,2,0,2,10
1501875915308249,0,-5,1,-1,-10,0,-2,-8
1501875915308249,0,8,-2,-7,12,2,4,19
1501875915309201,-7,-7,10,8,-6,-2,-10,-47
1501875915309201,5,-5,-15,-4,-15,-3,7,35
1501875915338228,-4,3,-19,-7,-4,0,-3,-22
1501875915338228,-3,-10,23,21,13,-1,-9,-27
1501875915339219,1,-16,-25,-1,-27,-5,-8,2
1501875915339219,-7,-7,-1,-21,15,2,-3,-5
1501875915344246,1,0,-22,-1,-10,-5,-3,24
1501875915344246,4,20,12,10,-2,3,9,-18
1501875915353197,-1,4,-1,-17,-23,-3,-1,9
1501875915353197,-2,-8,-20,-1,11,-1,2,15
1501875915368225,4,10,18,11,-1,-2,1,-13
1501875915368225,-3,-4,-2,-5,1,1,0,5
1501875915369186,-3,2,-4,7,28,3,-3,-2
1501875915369186,1,-4,-3,7,-9,-1,3,19
1501875915390226,-7,11,2,-14,-15,-1,-6,-19
1501875915390226,2,-8,3,7,3,-3,-2,5
1501875915392198,-5,-14,-16,-19,2,-3,3,-5
1501875915392198,-1,0,17,13,17,-3,-6,-22
1501875915404198,-4,-41,-4,-4,-7,2,-4,1
1501875915404198,-1,-1,-34,-16,-11,-4,-3,2
1501875915413222,2,22,9,7,-5,-4,0,4
1501875915413222,-5,-22,21,-7,-18,-4,-2,-1
1501875915428208,5,15,-6,-12,24,3,0,-6
1501875915428208,-1,13,-4,5,-51,-3,0,0
1501875915429192,-1,-11,19,3,26,0,2,19
1501875915429192,2,18,-4,-18,-10,1,-2,-4
1501875915450231,-5,-13,-1,-4,-1,-3,-2,-2
1501875915450231,-2,1,4,-5,-9,-3,-2,-1
1501875915452202,3,-5,-4,9,1,1,1,9
1501875915452202,3,6,-2,-2,-13,-3,8,-3
1501875915473256,3,14,13,23,15,0,-6,0
1501875915473256,-11,-50,13,-40,19,1,-4,1
1501875915474193,-1,-1,-40,9,1,1,-4,-12
1501875915474193,1,1,-7,-1,2,1,-2,11
1501875915488235,5,10,-9,-8,-9,0,8,-10
1501875915488235,2,13,17,2,-9,-3,8,32
1501875915489194,1,14,17,13,-5,-2,-4,-19
1501875915489194,-9,-27,-23,-4,15,-2,-3,-10
1501875915510230,0,15,15,1,-9,-2,3,17
1501875915510230,0,1,0,-11,8,2,-3,-22
1501875915512206,0,-2,-2,-7,-3,-4,5,36
1501875915512206,-3,0,-6,10,-1,-4,-6,-6
1501875915533264,0,10,12,-10,1,1,5,20
1501875915533264,-2,-15,-2,1,-9,-5,0,-20
1501875915534205,-2,23,12,22,47,3,-9,-9
1501875915534205,-1,-26,-13,7,-20,3,-1,-2
1501875915548265,-6,-10,-22,-14,5,2,-3,-1
1501875915548265,0,9,1,-7,-23,-2,1,2
1501875915549197,-3,-3,7,-18,-3,-3,2,-10
1501875915549197,-2,3,4,17,1,-4,-1,-12
1501875915570237,2,1,-2,-10,1,1,5,11
1501875915570237,0,9,-11,4,-3,-3,0,-3
1501875915572211,-2,-11,9,2,-14,-2,-4,-9
1501875915572211,1,10,8,-2,9,0,0,14
1501875915593241,-2,-6,-2,2,-1,0,-3,0
1501875915593241,-2,5,6,-9,7,-3,-6,-6
1501875915594209,3,-11,-20,-5,-27,-5,5,24
1501875915594209,-4,7,-4,2,17,-1,-5,-48
1501875915607239,-1,-11,-1,0,30,7,5,7
1501875915607239,-1,5,1,9,1,0,-6,11
1501875915614268,0,-3,10,0,-6,-3,-3,-2
1501875915614268,-5,6,-11,-17,-16,-3,1,9
1501875915630210,-2,-5,4,7,-8,-7,-3,-34
1501875915630210,-1,-9,4,4,12,0,-1,3
1501875915632204,3,-2,-39,-1,-7,1,4,8
1501875915632204,1,-10,8,3,-4,-4,-2,9
1501875915653262,-2,3,12,-5,3,-2,-1,1
1501875915653262,1,-1,-16,2,5,1,1,7
1501875915654204,1,4,18,7,5,4,0,-8
1501875915654204,2,3,7,5,-1,1,2,-2
1501875915667244,-3,6,-6,5,-9,-3,-3,9
1501875915667244,-3,-7,-1,-25,19,4,1,-1
1501875915674249,-7,-16,5,-6,-10,-6,-6,-15
1501875915674249,4,2,-6,4,14,3,-4,-3
1501875915690248,0,3,9,3,-17,-6,-4,1
1501875915690248,0,10,1,3,-18,-5,0,2
1501875915692210,-2,12,-5,4,16,3,2,-9
1501875915692210,-7,-36,-11,-7,-11,-2,0,12
1501875915713225,2,7,-3,8,1,-2,-1,21
1501875915713225,-3,-10,0,3,7,2,-2,-16
1501875915714207,1,0,5,0,14,0,0,2
1501875915714207,3,12,22,9,-7,-4,1,-10
1501875915727270,-3,-9,-23,-30,-13,0,-1,6
1501875915727270,2,5,-1,6,2,-1,2,8
1501875915734255,0,-8,-4,-8,-21,-3,2,4
1501875915734255,-1,5,2,11,-7,-2,0,6
1501875915750235,-3,-14,11,4,46,0,-3,-8
1501875915750235,0,6,-11,-12,-32,-1,-1,-5
1501875915752220,-2,-9,9,7,21,1,1,5
1501875915752220,0,15,-15,-22,-13,-3,-2,-11
1501875915773222,0,-3,-7,-8,-7,0,0,-9
1501875915773222,-1,5,6,11,3,-2,-3,-4
1501875915775244,-2,-14,2,-5,-20,-5,-1,-1
1501875915775244,0,6,-7,-5,14,1,4,9
1501875915787278,0,-18,-9,-1,-25,0,4,7
1501875915787278,0,10,-3,-11,15,-1,-9,-21
1501875915794229,-3,-1,0,2,-5,0,-1,14
1501875915794229,-4,-5,-3,-4,-7,-1,-3,-4
1501875915810254,1,8,4,7,-13,-3,0,-8
1501875915810254,0,-8,-1,-1,6,-6,1,17
1501875915812235,-8,-1,-9,-4,12,0,-7,-38
1501875915812235,0,-10,-7,9,4,0,1,14
1501875915833222,0,7,11,9,3,1,-2,-20
1501875915833222,-1,17,8,-12,-16,-2,-4,-7
1501875915835213,3,-5,-11,-10,1,-1,-3,16
1501875915835213,-6,-15,-3,-13,-9,-3,-2,7
1501875915847282,0,-9,-55,25,-4,5,1,6
1501875915847282,-1,9,14,-3,-1,0,0,9
1501875915854259,1,-8,-4,-4,11,-3,2,-1
1501875915854259,1,11,22,33,10,2,-1,-1
1501875915870227,-6,-9,-3,-28,-12,3,-4,-4
1501875915870227,-2,-12,-3,-3,-12,-6,-2,-6
1501875915872217,0,18,4,-4,5,4,0,-9
1501875915872217,0,5,-9,-11,-10,2,7,26
1501875915893254,0,3,4,-1,16,-4,-6,-11
1501875915893254,3,9,-3,10,5,3,1,19
1501875915894219,-2,-5,6,1,-17,-5,0,-10
1501875915894219,-3,-16,4,-5,10,1,-5,-15
1501875915907259,-2,6,3,-4,2,-3,0,8
1501875915907259,0,3,1,5,-9,-1,1,2
1501875915914220,0,-1,-7,-1,0,-1,-1,-1
1501875915914220,2,4,-1,-7,4,-2,-3,10
1501875915930279,-1,0,9,1,8,-1,1,4
1501875915930279,-1,-2,16,23,16,1,8,-6
1501875915932231,4,12,-14,-4,-13,-3,-9,-11
1501875915932231,0,-20,5,-5,-6,-1,-4,-10
1501875915953284,2,2,24,8,-10,-7,5,24
1501875915953284,-6,-5,-37,5,23,5,-1,-43
1501875915954225,-2,2,4,-3,-7,2,2,23
1501875915954225,3,14,-4,-6,1,0,1,-1
1501875915966295,-3,-3,2,1,-17,-6,-6,-6
1501875915966295,0,-12,-2,11,8,1,1,7
1501875915975231,-1,7,4,0,5,-3,-1,-5
1501875915975231,1,1,0,14,-7,-2,-1,1
1501875915990256,-3,-21,2,-5,24,7,2,-28
1501875915990256,-4,-6,-5,-4,-19,-5,1,15
1501875915992226,-1,13,1,-12,-4,1,-2,-7
1501875915992226,-4,-20,-4,13,14,-2,-4,-6
1501875916013289,-1,7,-8,-20,25,1,-2,-3
1501875916013289,0,-2,6,-7,-7,-2,-4,-7
1501875916014226,-4,2,2,5,-10,-3,0,5
1501875916014226,1,-7,-29,-18,-4,-3,2,4
1501875916026264,2,8,-1,10,-10,-4,-2,3
1501875916026264,-4,-10,-10,1,4,1,-1,5
1501875916035237,3,-3,20,5,-13,-4,0,9
1501875916035237,-4,8,3,-22,7,7,2,-13
1501875916050271,1,8,-1,1,-6,1,0,-8
1501875916050271,1,-9,14,1,-9,-5,-1,1
1501875916052238,1,8,-6,-17,-1,-2,1,21
1501875916052238,-2,-11,-7,6,5,2,-3,-16
1501875916073270,1,0,6,-6,-19,-4,-2,0
1501875916073270,4,17,3,-6,-12,-1,6,23
1501875916074227,-9,-20,-5,8,11,-5,-13,-52
1501875916074227,3,7,5,-6,-4,0,-1,9
1501875916086267,-7,-8,-12,-1,15,-2,-2,-13
1501875916086267,-1,0,11,4,-17,-4,-6,13
1501875916095272,-1,-4,-5,10,7,1,4,-17
1501875916095272,-2,7,13,3,-13,-3,0,6
1501875916110266,2,0,-1,-3,18,5,3,-2
1501875916110266,-4,-3,-11,-14,3,1,-6,-20
1501875916112242,0,-6,-4,9,-3,2,3,14
1501875916112242,-1,14,10,-16,5,-1,-5,-6
1501875916133294,-3,4,0,-1,-19,-7,0,7
1501875916133294,0,-3,7,3,7,-1,-2,0
1501875916134231,-1,-3,-29,-23,-13,0,2,7
1501875916134231,-8,-16,-8,13,4,-1,-1,6
1501875916146285,2,6,0,2,-10,-1,-1,10
1501875916146285,-3,5,-12,3,27,-1,0,-18
1501875916155266,-1,-7,0,14,-2,0,-10,-45
1501875916155266,-1,9,8,35,-9,-8,-3,-8
1501875916170278,1,3,5,-48,16,16,4,0
1501875916170278,-1,2,20,6,3,-1,3,4
1501875916172244,1,-5,-10,-9,1,-1,5,30
1501875916172244,0,-1,-12,4,-10,-2,-2,-21
1501875916193297,-3,-2,18,26,2,-5,-6,-3
1501875916193297,5,4,-24,-11,-17,-1,0,3
1501875916194235,-2,-7,5,-7,-2,-2,4,28
1501875916194235,-3,6,1,-9,11,1,-4,-30
1501875916206272,-2,3,-10,10,-15,-7,-1,2
1501875916206272,-4,-10,-7,-3,-11,3,-3,-9
1501875916215306,1,-3,3,9,23,0,1,8
1501875916215306,-2,6,1,-7,-24,-3,0,0
1501875916230284,1,4,-3,-25,12,5,2,1
1501875916230284,-2,-17,-3,11,2,-1,4,12
1501875916232249,2,-1,6,4,-9,-1,-5,10
1501875916232249,-6,-5,-2,-5,16,2,0,-10
1501875916253277,-1,10,-7,8,-10,-4,-3,-8
1501875916253277,-1,-10,1,-8,-6,-5,-1,16
1501875916254238,-3,-1,7,2,-7,0,0,-31
1501875916254238,1,5,-3,-6,4,1,1,16
1501875916266238,0,-15,0,10,-2,-3,-1,-2
1501875916266238,-1,6,-8,-1,3,1,0,1
1501875916275271,-1,-4,1,-5,4,-2,-1,7
1501875916275271,0,1,-1,-2,-3,2,-1,-1
1501875916290283,-3,-5,1,2,-8,-3,0,-4
1501875916290283,1,-1,7,-2,-3,-1,-4,-4
1501875916292252,-1,3,-1,-4,-7,-1,0,-2
1501875916292252,1,-2,-4,-7,1,1,2,5
1501875916313306,-1,-5,-4,5,-3,-4,-3,9
1501875916313306,-1,1,-1,-3,0,-1,-3,-11
1501875916314242,-3,2,0,0,-5,-2,0,1
1501875916314242,2,3,2,-3,3,-1,-2,7
1501875916326308,1,-13,-5,0,-3,-1,1,-1
1501875916326308,0,3,-2,18,23,3,-3,-8
1501875916335281,-1,-3,-1,-18,-30,-4,3,13
1501875916335281,-4,3,-9,-10,4,-1,0,-17
1501875916350303,5,5,0,-7,-1,2,0,10
1501875916350303,-3,-1,6,-3,-12,-3,-2,-4
1501875916352257,-2,-11,-4,14,15,3,3,5
1501875916352257,2,-4,-18,-9,-15,-5,2,14
1501875916373308,-4,-1,15,3,-5,-2,-2,-10
1501875916373308,-3,3,-6,-9,-3,-2,-2,-5
1501875916374244,0,4,15,0,-4,-3,-1,2
1501875916374244,-1,-4,-5,-3,-4,-2,-1,0
1501875916395314,-4,-6,-2,6,7,0,-1,-5
1501875916395314,-1,1,-9,0,-3,-2,-3,2
1501875916397260,-1,2,-12,-4,3,0,-1,-4
1501875916397260,2,-6,19,5,5,0,2,1
1501875916410291,-2,0,-2,-2,-7,-2,0,13
1501875916410291,1,15,1,-4,-7,-1,0,-23
1501875916412267,-5,-15,3,7,-9,-6,-2,16
1501875916412267,2,0,4,0,31,12,-3,-3
1501875916433308,-3,-4,2,4,-14,-3,-2,-6
1501875916433308,-1,-9,-7,-3,11,1,2,4
1501875916434251,4,17,-7,0,-6,0,-2,-7
1501875916434251,-2,-11,8,2,-14,-6,-1,13
1501875916455291,0,4,1,9,8,1,-1,-1
1501875916455291,-1,-5,-13,-12,-13,0,-2,-3
1501875916457270,-1,5,1,-2,7,0,-4,-4
1501875916457270,0,1,6,2,-14,-3,-2,-3
1501875916470309,1,0,-16,-8,14,1,-1,-6
1501875916470309,1,8,8,0,-10,-2,2,7
1501875916472253,-1,-8,2,0,6,1,1,0
1501875916472253,-7,-11,-7,-2,10,-2,-6,-13
1501875916493322,-3,1,7,16,-2,-5,-4,-5
1501875916493322,2,-1,-6,-13,7,3,1,2
1501875916494253,-1,0,0,-5,-3,-1,-1,3
1501875916494253,-1,1,-17,-4,-9,-2,1,1
1501875916515270,-3,-4,-13,0,-3,-3,-1,-1
1501875916515270,-2,0,18,3,5,-2,-3,1
1501875916517283,-3,0,10,-1,0,-2,-3,-7
1501875916517283,0,2,-7,5,0,0,0,3
1501875916530297,1,-1,7,-6,-2,0,1,-1
1501875916530297,0,-2,12,5,-2,-1,-1,-2
1501875916532267,-4,-3,-36,-7,1,-2,-1,-4
1501875916532267,-2,1,16,-1,0,-1,-2,0
1501875916553317,-1,1,-5,-6,-5,-2,-1,0
1501875916553317,-3,-10,-14,0,1,0,-2,-1
1501875916554256,0,1,10,4,3,2,0,0
1501875916554256,0,2,-6,-1,-2,-1,0,2
1501875916575257,-1,-1,-5,-4,-3,1,0,-2
1501875916575257,-1,0,2,2,-1,-2,-1,-3
1501875916577257,0,3,-9,-4,0,-2,-3,-4
1501875916577257,-1,-3,-27,-3,-3,-3,-1,0
1501875916590292,-2,-3,26,-1,-2,-1,-3,-1
1501875916590292,-2,-4,-15,3,0,-1,-1,-1
1501875916598269,-1,-2,18,-4,0,0,-1,-2
1501875916598269,1,1,-14,-6,-3,-1,1,-2
