timestamp,emg1,emg2,emg3,emg4,emg5,emg6,emg7,emg8
1501875900400214,-11,-63,37,21,-62,7,1,4
1501875900400214,-8,22,-11,-21,30,4,12,-17
1501875900401199,-15,-43,-28,29,-69,-17,-8,-12
1501875900401199,4,-18,-66,-71,49,14,3,58
1501875900402199,5,-3,5,36,-3,-9,-17,-83
1501875900402199,-1,9,-2,28,-23,-1,2,28
1501875900405200,-5,-6,6,-2,27,4,2,-14
1501875900405200,-4,4,12,19,-46,-9,-2,-8
1501875900412213,17,46,18,13,18,-7,1,19
1501875900412213,-13,-47,-70,-49,-12,-6,-11,-21
1501875900420267,10,63,16,-53,-4,-6,7,39
1501875900420267,5,-66,13,-3,15,-1,7,15
1501875900427263,-8,-17,-24,-17,4,5,-4,28
1501875900427263,-4,25,17,17,1,1,2,-28
1501875900442263,-10,-4,7,0,-3,1,2,-10
1501875900442263,9,37,34,50,-59,-22,-33,-81
1501875900450223,0,20,-10,-9,49,19,18,52
1501875900450223,16,4,53,55,-9,-1,-2,1
1501875900465263,-10,-41,-96,-54,19,5,-5,-14
1501875900465263,6,67,65,26,-2,4,10,21
1501875900472205,-1,-35,-17,-10,-31,-12,12,72
1501875900472205,-4,69,23,-9,-20,-10,-25,-88
1501875900487206,7,-64,-15,2,-30,10,9,-15
1501875900487206,-13,33,27,-5,82,5,-5,1
1501875900528242,-2,25,-14,33,23,-4,-7,-8
1501875900528242,-2,-42,-31,-12,19,3,-9,-30
1501875900529225,0,4,-6,35,-6,-5,-5,-5
1501875900529225,-3,18,20,6,-3,2,6,-1
1501875900533211,-4,-17,-33,-15,-27,-7,-3,28
1501875900533211,11,37,16,14,-8,-8,0,-50
1501875900534207,-1,28,42,12,12,10,10,2
1501875900534207,8,-3,-39,13,-4,-7,-8,20
1501875900539210,-9,-23,26,3,30,7,-13,-62
1501875900539210,2,20,2,20,25,0,4,22
1501875900547229,0,-36,-19,14,31,1,-3,15
1501875900547229,11,73,28,-62,-23,4,12,36
1501875900556261,-20,-81,-40,-47,-21,-11,-3,-16
1501875900556261,-4,0,32,6,-18,5,-2,33
1501875900569272,5,4,-20,5,-16,-4,-1,-25
1501875900569272,-7,-3,-34,-26,-3,1,-4,-25
1501875900578215,5,0,66,56,22,-1,5,13
1501875900578215,9,12,-13,-10,-36,-6,2,-1
1501875900600212,-7,24,-30,-45,33,9,-6,-4
1501875900600212,8,-1,9,16,-5,-1,6,19
1501875900602210,-6,32,27,-1,-7,1,-3,-16
1501875900602210,-13,-47,14,50,-30,-8,-9,34
1501875900615254,10,46,-31,2,0,-12,3,27
1501875900615254,-19,-110,-35,-15,17,8,-12,-77
1501875900629277,15,11,5,-14,-56,-4,14,49
1501875900629277,12,56,23,27,80,9,15,54
1501875900638291,-28,-50,-43,-54,-42,-10,-25,-48
1501875900638291,5,-6,10,-11,7,-7,-2,22
1501875900640215,7,40,21,0,-1,1,5,5
1501875900640215,3,-15,-8,20,-26,-10,-5,-18
1501875900660213,2,-4,33,-47,-61,6,5,3
1501875900660213,1,-32,-14,14,52,6,1,18
1501875900662217,-5,-14,-48,10,-10,-1,-2,13
1501875900662217,-3,11,9,-71,-11,-1,-5,-42
1501875900675254,-1,14,4,40,-38,-4,8,-6
1501875900675254,2,-29,-11,-83,50,-1,-9,-4
1501875900682233,-7,-39,-24,-26,2,-5,-8,-21
1501875900682233,-10,-28,-28,-4,-34,-7,-3,4
1501875900698274,-6,19,19,-4,14,-8,0,23
1501875900698274,5,25,-1,46,-17,1,9,22
1501875900700221,5,10,-25,-41,51,2,-5,19
1501875900700221,-1,-8,6,-7,13,1,-9,-39
1501875900720261,3,7,-8,-38,-46,-3,5,27
1501875900720261,7,42,19,40,-17,-9,-6,-51
1501875900722218,-11,-22,-42,10,27,6,5,-1
1501875900722218,-1,18,8,-11,-29,2,13,25
1501875900734280,-7,-12,-12,-6,42,0,-14,-60
1501875900734280,4,14,23,66,-31,-9,-3,30
1501875900743222,-1,-1,19,8,-7,1,-3,-29
1501875900743222,6,14,-30,-48,39,0,-1,12
1501875900758280,-2,-40,-13,41,5,1,2,24
1501875900758280,-15,-7,-7,-57,-34,2,-1,-8
1501875900760239,7,13,24,-52,-33,-3,2,38
1501875900760239,8,16,24,76,22,-3,-2,-11
1501875900780231,3,-10,-15,-36,59,8,1,-8
1501875900780231,-17,-60,19,20,-51,-7,-5,-16
1501875900782221,-2,7,-26,22,1,8,7,18
1501875900782221,6,11,22,-19,6,4,15,15
1501875900794257,4,4,-7,18,-42,-10,-18,-24
1501875900794257,1,-21,-5,-18,31,-1,-3,-9
1501875900803230,-4,-5,15,1,2,-6,1,-12
1501875900803230,-3,-49,-9,-35,-17,2,5,22
1501875900818283,-4,5,22,20,28,1,0,18
1501875900818283,4,24,1,12,-31,1,5,8
1501875900819259,8,30,32,57,82,-5,5,-14
1501875900819259,-15,-60,-13,-35,-13,11,-7,-20
1501875900840268,16,35,46,21,-12,-5,5,23
1501875900840268,-4,10,8,-33,25,7,-5,3
1501875900842230,-2,2,-21,36,-49,-8,-1,11
1501875900842230,-5,14,-7,-39,5,-4,-8,-30
1501875900854228,0,-26,32,6,-28,3,2,3
1501875900854228,-3,-11,-23,33,28,-3,0,-17
1501875900863247,8,-6,21,-14,-19,10,10,44
1501875900863247,-18,4,-27,1,20,-6,-17,-42
1501875900878287,8,18,11,5,-37,0,-2,0
1501875900878287,-7,35,22,4,16,4,4,-15
1501875900880240,7,-28,-13,-30,-31,-2,-3,17
1501875900880240,-9,-7,-2,13,-4,-7,-7,9
1501875900900245,3,0,-24,26,24,1,10,-5
1501875900900245,-12,-12,-35,-50,-59,-9,-8,22
1501875900902230,11,53,-3,-6,14,1,-1,-10
1501875900902230,-1,-34,-19,17,79,2,-2,-16
1501875900914267,-12,3,17,-25,9,-6,-10,6
1501875900914267,2,-12,6,16,-20,2,-1,-10
1501875900923260,-10,0,14,-4,-18,-3,-13,-11
1501875900923260,14,27,0,8,-29,-3,10,28
1501875900938280,-4,-5,-15,15,28,8,11,-5
1501875900938280,5,-12,-1,4,12,0,8,5
1501875900939232,9,18,-12,-9,-23,-2,-8,3
1501875900939232,-11,-32,19,-15,10,-5,-1,1
1501875900960274,-6,-10,3,-7,2,4,2,18
1501875900960274,6,13,-11,41,-22,-2,8,3
1501875900962251,-17,-77,30,-59,31,10,-3,-45
1501875900962251,-1,3,-13,23,-39,-3,-7,-5
1501875900974249,5,1,10,8,-16,-4,0,3
1501875900974249,-4,14,-14,4,19,-8,-1,1
1501875900983253,-3,44,-14,28,-34,-14,-3,-9
1501875900983253,15,-42,25,7,-54,16,8,13
1501875900998252,-11,-20,-24,-86,77,2,0,-14
1501875900998252,7,27,13,31,14,-2,-6,0
1501875901000237,-14,-13,-1,12,-22,-10,-11,-37
1501875901000237,5,23,4,16,-6,0,2,3
1501875901020252,5,14,-23,9,-21,0,11,18
1501875901020252,0,-14,9,-14,16,5,1,31
1501875901022239,-5,15,14,-34,15,3,-12,-62
1501875901022239,-2,27,-9,16,3,1,2,18
1501875901034234,2,-26,-9,16,-36,-6,-3,-15
1501875901034234,-7,-10,-6,-14,15,-2,-3,36
1501875901043245,4,0,14,25,-2,0,3,6
1501875901043245,-3,19,9,45,-80,-17,-4,-18
1501875901058282,3,30,-26,-47,95,18,4,5
1501875901058282,1,1,15,-8,-20,2,-1,-5
1501875901059283,2,-12,-37,14,17,0,8,26
1501875901059283,-8,-5,24,13,-36,-3,-6,-6
1501875901080279,-2,11,13,-7,-3,-3,-6,-3
1501875901080279,4,-4,-50,-3,-6,-1,1,-28
1501875901082255,4,19,47,59,23,6,4,32
1501875901082255,4,26,-18,-61,-10,-1,-1,6
1501875901094242,-2,-59,-2,13,-20,-11,-3,14
1501875901094242,-1,12,37,0,10,7,1,-15
1501875901103245,-4,9,-6,-15,-27,-7,0,16
1501875901103245,7,21,-44,-4,52,8,4,-13
1501875901118266,-7,2,43,52,-25,-5,-22,-39
1501875901118266,8,19,14,20,-3,-6,-3,12
1501875901119261,-1,-30,-55,-79,-27,5,11,1
1501875901119261,-4,-18,-1,-13,22,-7,-2,21
1501875901140246,-3,-5,-9,5,7,0,1,-18
1501875901140246,-6,10,9,27,4,1,-10,-13
1501875901142247,18,45,31,12,0,2,12,69
1501875901142247,-20,-45,-28,-52,8,-6,-17,-86
1501875901163248,-1,2,11,45,24,-3,-3,9
1501875901163248,-5,-1,-47,-107,-45,-7,-1,-35
1501875901164264,-2,7,5,8,13,1,-3,4
1501875901164264,8,20,-16,32,10,-2,9,34
1501875901178280,0,-9,27,18,4,9,3,-37
1501875901178280,-7,-7,28,18,4,-1,-1,9
1501875901179264,-3,-26,0,93,4,-1,-6,-17
1501875901179264,1,-21,-3,21,-25,-1,-2,-9
1501875901200290,4,26,-12,-50,-2,-3,-3,-15
1501875901200290,1,-5,4,-10,14,2,2,16
1501875901202260,-6,-22,-5,-14,12,-5,-6,-25
1501875901202260,10,23,24,36,14,9,27,89
1501875901223253,-14,14,-3,-10,-31,-8,-32,-38
1501875901223253,-1,2,29,63,-7,-2,-1,-7
1501875901224279,8,18,-63,-15,19,5,4,16
1501875901224279,-13,8,5,-44,11,-5,-10,-28
1501875901238269,6,-22,-12,12,-9,1,3,73
1501875901238269,4,24,2,26,-19,-13,-5,8
1501875901239248,3,-37,59,-17,6,8,-1,-5
1501875901239248,-8,-8,-94,7,-4,4,-1,11
1501875901260293,6,18,21,-35,-39,-1,15,22
1501875901260293,-14,-21,15,24,6,1,-3,-18
1501875901262268,6,39,-23,-49,33,-8,-9,10
1501875901262268,-1,-45,16,-1,39,5,-11,-23
1501875901283314,-4,-28,0,-6,-33,-5,4,11
1501875901283314,-2,-3,-4,-12,10,0,-3,12
1501875901284286,-10,18,0,23,-17,-1,0,-53
1501875901284286,16,26,17,-25,10,3,6,12
1501875901297290,-11,-21,-56,-13,-10,-8,-10,25
1501875901297290,1,-20,-11,-14,20,0,-1,-11
1501875901304287,-8,3,-16,17,-27,-2,-3,-1
1501875901304287,1,23,46,24,6,-1,-6,-3
1501875901320293,-4,-19,7,27,-3,-2,3,-36
1501875901320293,9,42,-19,-1,-47,-5,3,39
1501875901322278,1,-47,20,-4,33,6,0,13
1501875901322278,-16,-4,-35,26,15,5,-13,-38
1501875901343316,3,18,16,8,3,-4,1,-5
1501875901343316,0,1,-25,-51,13,7,10,4
1501875901344292,-7,-6,3,11,-54,-14,-17,-25
1501875901344292,2,-31,62,5,51,5,7,16
1501875901357316,5,6,-20,7,-17,7,12,28
1501875901357316,1,-19,16,7,-17,-10,-16,-58
1501875901364321,-9,-3,-24,-24,23,1,11,33
1501875901364321,-10,-2,-6,-19,13,0,-8,-33
1501875901380294,6,26,-6,11,-3,-4,-4,7
1501875901380294,11,-1,24,-3,34,4,8,22
1501875901382276,-2,7,16,3,-27,0,-2,-2
1501875901382276,5,-5,-3,-9,-33,-4,5,24
1501875901403320,-2,23,30,30,50,6,10,17
1501875901403320,-7,-28,16,-4,-3,-5,-17,-36
1501875901404291,-5,-60,-79,-33,9,-4,-5,6
1501875901404291,-3,3,10,-14,-43,-5,2,23
1501875901417299,-9,-21,16,-21,-8,-3,-7,-68
1501875901417299,-12,-8,-17,-11,5,2,1,4
1501875901424299,7,29,8,7,-6,-3,-2,-7
1501875901424299,-2,21,6,14,5,-10,-2,19
1501875901440301,8,-6,-15,-37,20,6,3,-8
1501875901440301,-6,16,1,31,-15,-2,-1,-1
1501875901442277,-3,-4,4,-7,11,-2,-3,-4
1501875901442277,0,0,-11,16,-9,2,-1,-41
1501875901463307,-5,21,-21,17,-33,-6,3,28
1501875901463307,4,-56,2,0,41,4,3,-8
1501875901465263,6,30,-4,-39,-7,5,4,14
1501875901465263,0,4,46,16,-35,-8,-3,2
1501875901477334,0,6,-3,-3,-10,1,0,0
1501875901477334,1,6,-48,0,-6,-3,5,3
1501875901484304,3,37,43,16,-17,-4,2,24
1501875901484304,-3,-46,-63,-11,52,10,-5,-30
1501875901499328,-1,-6,8,8,-2,0,-11,-19
1501875901499328,-3,5,14,-11,-16,-7,-1,-5
1501875901508293,-6,-8,30,31,11,0,0,-30
1501875901508293,5,13,-28,-25,-11,-2,12,68
1501875901523306,-3,4,-7,9,-29,-9,-13,-26
1501875901523306,-4,-8,-10,-7,30,8,-2,7
1501875901524267,-13,-13,-21,42,-29,-5,-6,-19
1501875901524267,10,11,9,-30,6,1,10,6
1501875901545333,-8,-7,-1,2,-7,-4,-4,22
1501875901545333,3,16,4,21,0,0,-8,18
1501875901547303,-3,6,-1,-70,-27,-7,-10,-69
1501875901547303,-4,9,12,8,-3,3,-1,-22
1501875901559329,3,5,3,-1,41,8,10,29
1501875901559329,1,-19,2,11,-17,-3,9,-10
1501875901568282,-1,-5,-47,-43,-9,-8,-16,-7
1501875901568282,-10,-37,-4,-5,-36,-11,-9,-4
1501875901583339,1,7,25,-10,31,2,-2,-10
1501875901583339,5,7,-54,-18,-16,3,12,57
1501875901585270,-1,-11,27,61,-8,2,-2,-55
1501875901585270,-2,8,-9,-30,-20,-7,-6,2
1501875901605312,2,6,34,-27,27,4,5,13
1501875901605312,7,23,1,18,27,2,-4,1
1501875901607282,-8,-40,-30,-9,3,-2,-2,5
1501875901607282,-15,22,34,-1,2,0,-7,-41
1501875901619341,11,-32,-30,34,-26,-8,5,35
1501875901619341,-6,24,-16,-75,-2,6,-5,-27
1501875901628305,12,24,50,54,-7,-9,5,45
1501875901628305,-6,-4,6,46,25,7,-6,-22
1501875901643275,-1,9,-10,-41,-1,3,4,-8
1501875901643275,-4,-27,-31,35,-10,0,5,7
1501875901644276,8,0,-5,-23,-53,-6,7,30
1501875901644276,12,110,49,2,30,7,1,46
1501875901665340,-27,-65,-72,-11,15,-4,-12,-81
1501875901665340,0,31,15,8,-10,-2,5,10
1501875901667275,-16,-23,-17,-14,0,2,-8,-19
1501875901667275,13,22,5,-26,-3,0,2,17
1501875901688297,8,13,-19,4,-23,-8,-1,14
1501875901688297,-9,-32,29,-36,-17,0,-8,-13
1501875901690285,2,-11,-11,43,40,3,7,4
1501875901690285,0,-9,0,20,2,2,0,0
1501875901703338,3,8,-7,8,-25,-4,-2,22
1501875901703338,-4,-26,2,29,-4,-1,6,8
1501875901705278,9,56,13,-15,12,6,9,38
1501875901705278,-10,-61,-24,-4,-2,-7,-21,-46
1501875901725319,1,-16,45,26,5,1,4,44
1501875901725319,-2,19,-25,-31,-18,-4,-1,-27
1501875901727327,0,8,17,21,9,2,-10,-9
1501875901727327,1,20,-5,-32,-16,-8,0,13
1501875901748346,-2,-47,5,3,-15,-3,-1,0
1501875901748346,-5,4,-19,18,8,-2,-14,-35
1501875901749293,-8,-8,1,-36,10,0,5,29
1501875901749293,10,-8,-7,5,-21,-6,3,20
1501875901763341,-4,12,9,-8,27,3,-2,-15
1501875901763341,6,50,35,40,9,2,4,-20
1501875901764289,-3,-69,-26,-3,-9,0,2,9
1501875901764289,-3,9,0,-10,-1,-2,-2,5
1501875901785320,3,3,5,-14,8,2,-2,-46
1501875901785320,-1,-15,17,-9,7,2,-6,-6
1501875901787282,5,38,-12,19,0,-1,3,13
1501875901787282,-4,-32,-20,-34,-32,-2,4,-3
1501875901808284,-1,16,25,8,7,-5,1,18
1501875901808284,4,17,9,4,2,-6,6,18
1501875901809310,6,-27,-30,14,27,6,-1,-15
1501875901809310,-15,-26,11,2,-6,-6,-14,-20
1501875901822332,2,5,-27,-57,-11,-2,-2,4
1501875901822332,-3,-16,-15,3,18,2,-3,-28
1501875901829327,1,25,29,-10,8,2,0,-14
1501875901829327,2,3,-1,39,-15,-1,9,4
1501875901845347,-8,-5,-37,-15,-11,-10,-13,-28
1501875901845347,-7,9,52,32,-14,0,-3,27
1501875901847286,0,-10,-7,-25,11,-1,-1,-5
1501875901847286,-3,-3,-16,3,17,1,1,-10
1501875901868347,8,16,24,20,-15,-1,3,34
1501875901868347,-14,-16,-23,-2,-4,-5,-6,-43
1501875901869300,-2,14,-4,-63,11,7,5,-22
1501875901869300,7,10,8,3,-3,5,3,21
1501875901882330,-6,-6,-4,34,10,2,-2,15
1501875901882330,8,3,16,-22,-10,-3,1,22
1501875901889321,-6,-9,-20,12,-9,-5,1,-1
1501875901889321,0,1,-11,1,-1,-1,2,-1
1501875901905355,7,18,9,-9,6,2,4,-2
1501875901905355,-6,-19,16,-15,-18,0,-10,-16
1501875901907325,1,9,-24,20,-10,1,1,3
1501875901907325,5,4,6,8,20,0,4,19
1501875901928327,-4,-4,-20,5,-21,-4,1,-28
1501875901928327,-8,18,15,-14,7,-7,-12,-8
1501875901930290,-2,-14,20,-2,11,1,1,10
1501875901930290,-4,-7,-19,-23,-12,-7,1,7
1501875901942360,-3,4,25,56,9,-5,-6,-25
1501875901942360,11,-16,-34,-79,-10,6,10,41
1501875901956359,-4,34,29,40,-4,-1,-4,27
1501875901956359,-9,-21,-1,1,0,-3,-13,-59
1501875901965361,-2,-13,18,4,-20,-5,-1,8
1501875901965361,7,-3,-39,-7,45,0,6,3
1501875901967292,-2,11,19,27,-6,-8,-8,-7
1501875901967292,1,5,5,-11,-6,1,1,-11
1501875901988359,-3,18,-7,11,14,7,5,12
1501875901988359,-3,21,2,22,-4,-7,-9,-11
1501875901989295,-3,-53,-6,-35,-18,-3,-4,7
1501875901989295,2,19,10,17,10,2,2,6
1501875902002328,-5,-40,-31,-19,-1,3,-1,-34
1501875902002328,2,2,8,-3,-6,-4,2,26
1501875902009338,6,10,-9,15,4,0,4,-8
1501875902009338,3,23,4,1,-37,-9,3,21
1501875902025368,2,-45,29,10,10,9,-1,20
1501875902025368,2,-25,-7,12,29,13,-2,2
1501875902027318,-2,11,-24,-16,-4,0,-8,-36
1501875902027318,-2,-15,-6,7,-1,-3,4,21
1501875902048329,-6,14,24,-41,-28,-5,-4,-15
1501875902048329,1,10,-56,16,-10,-4,3,39
1501875902049299,3,-18,28,-23,-4,-3,2,-15
1501875902049299,-5,3,-17,1,0,2,-1,20
1501875902062373,3,30,5,-16,11,0,1,-22
1501875902062373,-1,-5,27,4,-16,-5,-6,-25
1501875902069365,1,11,-1,-36,1,1,7,22
1501875902069365,-2,-11,-24,37,-9,-6,-15,-48
1501875902085341,-3,18,-6,-2,56,0,2,39
1501875902085341,0,-18,-11,30,2,1,9,11
1501875902087301,0,15,-20,-13,-17,1,-10,-26
1501875902087301,0,-3,17,-3,-5,1,1,-17
1501875902108340,-9,-32,-8,0,-14,-6,-6,20
1501875902108340,1,8,10,19,-9,-2,1,22
1501875902109315,3,10,23,22,16,-1,5,22
1501875902109315,-4,-7,-19,-12,2,1,0,-16
1501875902122348,6,8,-6,7,-20,-1,-4,-15
1501875902122348,-9,-25,-13,-38,-10,-1,-2,-18
1501875902129344,1,7,19,10,2,1,-4,6
1501875902129344,-6,-22,13,12,17,2,-4,4
1501875902145343,5,11,-15,11,-18,-2,5,3
1501875902145343,1,-23,6,-18,-2,-9,-5,4
1501875902147303,-8,-1,-21,22,3,-1,-8,-10
1501875902147303,0,16,16,31,28,6,3,-5
1501875902168337,5,-18,7,-11,-26,4,3,14
1501875902168337,-3,10,9,8,22,-2,-2,-26
1501875902170305,-7,-12,13,-4,13,-3,2,1
1501875902170305,1,30,-25,-16,8,2,-2,-29
1501875902181307,-4,-41,-28,-5,-15,-1,-4,7
1501875902181307,-3,16,17,-7,1,-1,-5,-16
1501875902190307,6,0,7,15,3,1,9,15
1501875902190307,-2,-17,16,-10,-8,0,0,20
1501875902205335,0,32,4,33,15,1,9,-3
1501875902205335,5,-3,-6,-54,-29,-1,-6,-18
1501875902207313,-11,-14,-42,-10,6,-1,-3,-28
1501875902207313,1,1,5,-14,-17,-6,-3,2
1501875902228318,-7,17,8,9,8,-2,-2,-27
1501875902228318,-4,-1,3,16,-4,1,-3,-8
1501875902229310,4,7,37,-4,-19,3,0,4
1501875902229310,0,12,-21,-8,20,1,0,16
1501875902241310,6,-10,2,31,-42,-7,-3,15
1501875902241310,-3,1,-18,2,37,3,10,16
1501875902250310,6,11,0,21,1,-5,2,17
1501875902250310,-10,-13,34,-12,-2,2,0,17
1501875902265312,-6,-29,-27,-43,-19,-2,-8,-22
1501875902265312,19,32,-1,20,-11,-5,0,50
1501875902267317,-17,-35,-5,16,33,3,-11,-52
1501875902267317,2,12,-5,-11,5,-6,0,15
1501875902288311,-8,-4,-6,-75,-11,5,2,-17
1501875902288311,-3,-1,-17,-8,9,0,5,9
1501875902289313,3,2,15,27,-23,-12,-11,-8
1501875902289313,-2,-5,-5,-1,-16,6,-3,-1
1501875902302323,7,30,4,5,49,-1,-1,21
1501875902302323,-2,-26,12,14,-7,-2,0,1
1501875902310352,1,2,9,-20,-27,-3,6,10
1501875902310352,-5,-20,-23,6,-18,-5,11,11
1501875902325355,1,27,-3,-26,6,-3,-16,-21
1501875902325355,-1,4,32,21,6,2,-9,-6
1501875902327346,0,6,-47,31,17,2,0,-16
1501875902327346,-10,-60,-18,-49,-20,-6,-4,-21
1501875902348336,-3,-5,5,23,12,-3,5,13
1501875902348336,-1,22,6,-6,-17,-2,-2,-29
1501875902349346,9,2,12,-15,3,1,-3,11
1501875902349346,-3,-4,-11,10,-9,-6,-5,28
1501875902362334,2,19,-12,4,-1,0,8,-14
1501875902362334,-5,-13,7,14,-3,0,-9,-41
1501875902370364,-1,2,2,-19,-2,3,9,6
1501875902370364,9,13,-4,16,-9,-1,-2,17
1501875902385361,-4,-16,4,5,22,3,-4,-41
1501875902385361,2,11,-7,17,-15,-3,-1,28
1501875902387327,3,10,-12,-42,-1,4,5,9
1501875902387327,1,-23,14,-13,15,-5,2,-3
1501875902408361,-1,5,9,24,-11,-3,-2,11
1501875902408361,1,7,10,-7,8,2,3,4
1501875902409341,-3,-15,0,-7,-17,-8,-9,-11
1501875902409341,4,24,2,3,0,0,3,0
1501875902422339,1,-17,3,3,0,1,6,3
1501875902422339,-10,-10,-36,-12,-14,0,2,49
1501875902430318,-2,21,31,9,7,-5,-13,-42
1501875902430318,6,-9,-23,-14,-17,1,-5,-15
1501875902445358,-1,-17,0,8,10,0,-1,-9
1501875902445358,0,-2,-12,-13,-4,0,6,-27
1501875902447333,-1,4,18,23,1,-2,2,49
1501875902447333,2,2,-10,-25,-40,-2,-2,-13
1501875902468359,-1,12,-18,7,32,10,5,-11
1501875902468359,-3,-13,21,-3,19,2,6,17
1501875902469346,5,-1,-46,-25,-14,-2,-4,15
1501875902469346,-3,8,14,12,17,-3,-2,-9
1501875902481368,1,7,-8,-3,-29,-7,2,15
1501875902481368,-3,-3,13,28,13,3,3,40
1501875902490362,-1,-10,-17,-41,-1,-3,-3,-6
1501875902490362,-4,0,3,20,5,0,-3,-2
1501875902505394,5,5,13,7,27,0,5,39
1501875902505394,-11,-28,-4,-7,-15,-3,-15,-94
1501875902507335,5,2,0,6,25,3,5,23
1501875902507335,-5,-8,-23,0,-1,-3,4,1
1501875902528393,2,6,12,-29,6,-2,2,16
1501875902528393,3,-7,-7,5,-7,0,-4,-10
1501875902529325,-2,-2,4,-13,-23,-2,-2,0
1501875902529325,0,13,-4,14,27,-3,1,3
1501875902542346,-2,11,19,30,-16,-1,-3,1
1501875902542346,8,18,-6,-2,-1,1,2,28
1501875902550377,-12,-13,-15,1,2,-1,-8,-6
1501875902550377,4,4,12,3,-8,-2,-2,33
1501875902573394,-4,-1,3,-13,-15,-5,-6,-26
1501875902573394,6,14,-4,-6,1,3,7,1
1501875902574355,-9,-13,6,18,-16,-6,-6,-3
1501875902574355,6,15,21,-5,41,8,3,-11
1501875902588406,0,-1,-22,-17,-26,-2,-5,18
1501875902588406,-7,1,0,1,-4,-5,-3,-27
1501875902589329,3,-14,-26,-14,-8,-1,4,1
1501875902589329,-2,-3,-1,-16,0,-1,-6,-8
1501875902610370,-2,3,14,19,0,-3,-1,-11
1501875902610370,7,16,24,41,-15,-4,6,33
1501875902612340,-5,-27,-13,-40,22,6,9,-10
1501875902612340,-3,8,11,-6,7,0,-16,-72
1501875902625397,-4,-9,17,14,3,0,-2,3
1501875902625397,-4,-6,-45,-29,-25,-7,-6,-21
1501875902627342,6,27,24,41,-19,-1,11,51
1501875902627342,-7,-37,-5,-45,36,1,-3,-2
1501875902648399,1,-13,-13,-23,-23,6,-1,0
1501875902648399,-5,-1,8,10,-12,-6,-4,-3
1501875902649365,3,27,7,25,27,5,-1,-20
1501875902649365,-1,-18,-4,4,-8,0,5,18
1501875902670372,-5,5,-48,2,3,-5,-6,1
1501875902670372,1,-12,9,-12,-6,-1,6,-7
1501875902672335,-8,-1,15,-5,-17,-4,-11,-29
1501875902672335,-2,10,9,30,-7,-4,-3,10
1501875902685376,3,5,11,23,18,1,0,20
1501875902685376,-6,-18,-24,-33,-2,-2,-3,-19
1501875902687371,0,3,8,6,5,-3,1,-3
1501875902687371,1,14,-16,3,-17,-2,7,10
1501875902708400,-5,-14,30,18,-7,-1,-11,-34
1501875902708400,-3,-14,-43,-39,38,4,-5,11
1501875902709360,0,-5,15,15,6,-4,-5,-6
1501875902709360,-2,0,-18,-14,-33,0,0,6
1501875902730376,1,2,19,-7,0,0,6,6
1501875902730376,5,36,6,23,-17,0,10,33
1501875902732349,-9,-35,15,-1,14,-5,-19,-92
1501875902732349,-6,-1,-28,5,-4,-3,-10,2
1501875902745403,4,17,3,-32,5,2,2,-2
1501875902745403,-8,-24,14,40,6,-2,0,4
1501875902751338,5,4,-12,-4,-8,-3,10,39
1501875902751338,2,24,27,20,-11,-6,-3,-13
1501875902768379,-1,5,-23,-17,16,-2,-1,13
1501875902768379,-7,-29,15,-1,-7,-5,-5,-22
1501875902769339,3,14,-6,-6,-15,7,7,25
1501875902769339,3,-6,2,2,15,1,2,-7
1501875902790342,-4,2,-2,-9,-10,-5,-5,8
1501875902790342,6,24,13,12,2,0,2,18
1501875902792351,2,-1,10,6,0,-6,1,-3
1501875902792351,-4,-13,-19,-3,3,1,-5,-6
1501875902805415,1,-5,-1,6,-9,1,6,3
1501875902805415,-7,-5,-2,-15,-5,-2,-2,-27
1501875902812364,-2,15,-12,-5,-6,-5,-7,-3
1501875902812364,4,-3,11,-28,14,3,6,14
1501875902828343,1,7,-2,28,-2,-5,-3,-4
1501875902828343,3,-13,7,-4,4,1,-2,21
1501875902829344,-7,0,-3,-9,5,3,-7,-44
1501875902829344,-1,-1,-4,21,-29,1,7,6
1501875902850381,-7,-8,-16,5,4,-2,2,-6
1501875902850381,6,20,16,-88,6,-2,-4,11
1501875902852356,-3,-28,-6,44,14,-3,3,29
1501875902852356,-5,-8,-19,-64,-9,1,0,5
1501875902865391,-2,-11,0,9,-11,0,-4,-33
1501875902865391,0,-7,0,29,3,2,1,-18
1501875902879413,-5,5,-7,-24,-15,-1,-4,23
1501875902879413,-1,8,4,3,36,-7,-6,-1
1501875902888416,1,-16,2,-9,4,1,3,36
1501875902888416,2,28,6,18,-10,-2,-5,-35
1501875902889346,0,-7,-4,6,-30,-4,6,16
1501875902889346,4,32,8,20,14,0,-3,-5
1501875902910390,0,-35,-22,-40,1,-2,-4,2
1501875902910390,-7,-5,-15,8,7,-3,-6,2
1501875902912347,-1,-20,-7,-21,-6,1,9,27
1501875902912347,0,4,19,17,11,-2,-1,-39
1501875902925412,-11,-24,-23,2,-4,-6,-4,4
1501875902925412,1,5,-10,7,-7,9,-1,2
1501875902932387,-2,5,1,-42,-28,-3,0,-11
1501875902932387,7,5,18,22,17,10,6,17
1501875902948349,8,18,-6,-27,-19,-4,1,25
1501875902948349,-4,-18,5,49,4,-2,-10,-26
1501875902949348,0,5,-13,-22,3,-4,-8,3
1501875902949348,-2,-2,-5,-25,-21,-3,-1,1
1501875902970400,-2,20,13,26,10,-2,1,0
1501875902970400,2,9,-4,-31,-47,-6,3,0
1501875902972362,-1,-10,-2,-2,65,4,-9,-8
1501875902972362,-9,-29,-16,21,-18,0,-7,-18
1501875902985367,5,4,-16,2,12,1,0,4
1501875902985367,-9,12,20,-17,-6,-3,10,-3
1501875902991392,6,1,9,8,2,1,-2,-7
1501875902991392,-7,-19,0,11,10,-2,-3,5
1501875903008392,-1,2,0,23,-19,0,4,2
1501875903008392,0,11,2,-56,38,1,-8,6
1501875903009352,-1,-8,-24,30,-21,-9,-5,-3
1501875903009352,-6,-2,-1,-12,-1,0,-2,-16
1501875903030393,-2,0,9,-5,-19,-1,-2,-19
1501875903030393,0,-14,13,28,3,-2,-1,-12
1501875903032367,0,10,-28,10,7,4,4,5
1501875903032367,4,-3,-2,-20,-5,-4,6,33
1501875903045429,-4,9,2,9,16,0,-9,-31
1501875903045429,2,-15,-6,27,0,-4,3,24
1501875903051425,4,15,28,-35,-9,1,-4,-1
1501875903051425,-7,-8,12,15,-25,-5,-4,-17
1501875903068395,3,-3,-9,-2,23,5,6,20
1501875903068395,-3,10,-7,36,-26,-5,-6,-3
1501875903069357,2,-14,6,-51,46,8,9,16
1501875903069357,0,17,0,24,-24,-10,-10,-2
1501875903090402,1,-22,17,-29,0,3,0,-2
1501875903090402,-2,-16,-12,12,-18,2,2,30
1501875903092370,-8,-6,-8,18,6,-6,-2,-23
1501875903092370,1,15,8,31,11,6,7,3
1501875903104391,0,-10,-5,-16,2,-5,-4,-10
1501875903104391,3,6,7,-15,-4,-2,-3,13
1501875903113392,6,12,11,17,-9,-2,2,2
1501875903113392,0,-1,-36,-10,5,-2,2,9
1501875903128404,-3,-1,10,12,3,5,6,-9
1501875903128404,-5,3,-8,-10,23,-2,-13,-21
1501875903129375,-1,9,5,4,-13,-3,3,4
1501875903129375,7,-5,16,5,-8,-2,1,10
1501875903150400,-9,-25,-14,1,14,-5,-6,-35
1501875903150400,-1,11,10,-25,-15,-1,3,12
1501875903152372,-1,-2,-32,15,-1,15,4,-2
1501875903152372,-2,-29,17,-21,15,-5,1,5
1501875903164428,-1,4,-30,14,-24,-1,4,-4
1501875903164428,3,-3,10,-18,23,-2,-10,6
1501875903173395,-8,-5,-16,-1,-28,-8,-4,0
1501875903173395,-1,17,7,30,-46,-9,1,2
1501875903188409,0,-7,15,-43,26,15,1,7
1501875903188409,-2,-1,-20,19,1,-4,3,-3
1501875903189363,-2,3,11,-35,0,-5,-5,8
1501875903189363,0,-13,-20,-5,-1,3,6,-7
1501875903210407,-8,3,4,25,-41,-14,-16,-8
1501875903210407,-4,-14,0,-31,21,3,4,-33
1501875903212376,-1,1,-2,11,32,8,-5,-14
1501875903212376,3,-2,0,-40,10,1,8,27
1501875903224424,-1,24,11,-5,-23,-4,-10,-28
1501875903224424,6,10,-11,-10,6,0,-4,0
1501875903233398,-5,-24,4,41,-36,-17,-4,12
1501875903233398,2,9,-1,-18,44,12,3,5
1501875903248434,-6,-10,-3,-3,-12,2,1,-23
1501875903248434,-1,1,11,15,-1,-7,-2,7
1501875903249374,7,11,-12,2,-42,-7,3,9
1501875903249374,-10,-18,-30,6,38,9,-13,-37
1501875903270406,7,8,11,-11,1,-2,6,40
1501875903270406,-8,-23,-5,17,-24,0,1,-17
1501875903272380,-1,-2,24,1,11,0,-8,-23
1501875903272380,-5,2,-12,12,6,-5,-5,5
1501875903284435,4,23,18,22,1,-7,-5,-8
1501875903284435,0,6,-21,-10,-12,1,6,28
1501875903293402,-4,-13,1,-9,-21,3,2,-18
1501875903293402,-1,-4,0,-3,19,-3,-7,10
1501875903308437,3,0,-20,7,-9,-5,-1,8
1501875903308437,-1,18,20,32,15,6,5,0
1501875903309371,-3,-6,-5,-5,10,1,2,-10
1501875903309371,3,4,18,-14,-40,1,1,23
1501875903330410,1,-14,5,0,1,2,14,22
1501875903330410,8,10,-25,-17,14,-1,-9,-16
1501875903332384,3,12,13,25,12,-1,1,13
1501875903332384,2,17,-5,-74,-16,-4,-2,-6
1501875903344445,-11,-24,2,10,-14,-7,-3,-9
1501875903344445,-2,-3,2,1,33,-4,1,16
1501875903353406,-5,-7,5,-8,10,-4,-4,-11
1501875903353406,8,11,-2,3,9,7,5,8
1501875903368412,-3,-4,-12,-27,-1,0,-6,8
1501875903368412,-3,13,17,-11,-18,-2,-3,-14
1501875903369373,4,-9,-5,25,16,-3,11,44
1501875903369373,-5,0,10,-3,-27,-6,-12,-40
1501875903390414,4,8,-15,-23,17,3,-10,-23
1501875903390414,-2,-17,14,32,-4,-2,-1,-18
1501875903392387,11,37,-4,-8,3,2,0,9
1501875903392387,-8,1,0,22,-17,-2,-3,10
1501875903404415,-5,-20,-2,34,14,-5,-1,3
1501875903404415,-5,-14,-4,-75,2,3,3,3
1501875903413409,2,21,-15,-22,-3,0,-5,-7
1501875903413409,-6,-44,-13,-5,-3,-3,2,-11
1501875903428418,-6,17,8,21,-22,-5,-2,-6
1501875903428418,7,24,-11,9,10,-1,17,60
1501875903429377,-8,-28,7,-17,-7,3,-10,-45
1501875903429377,-5,-24,-16,7,-4,-6,-15,-13
1501875903450380,1,18,12,-4,-8,-2,-1,-16
1501875903450380,1,-9,2,21,21,-1,-2,-5
1501875903452391,3,17,-12,-29,5,0,6,25
1501875903452391,1,20,19,34,-6,-1,1,-24
1501875903464418,3,-8,-9,-12,9,2,4,17
1501875903464418,-9,-16,-30,8,-62,-4,1,-5
1501875903473413,-5,-29,-16,30,12,-3,-4,15
1501875903473413,0,27,8,-30,18,0,-1,2
1501875903488445,-6,-22,11,-6,19,0,-13,-25
1501875903488445,4,-2,-1,5,1,-2,-4,-11
1501875903489384,-4,6,-16,-2,-9,5,1,-1
1501875903489384,3,3,10,3,-26,-5,2,8
1501875903510425,1,14,17,1,0,-2,4,8
1501875903510425,-1,15,-1,-19,-12,2,-2,-3
1501875903512398,3,17,24,19,-21,-8,-1,-13
1501875903512398,-1,-27,-8,-12,82,10,7,-3
1501875903524449,0,0,-5,-27,-30,-3,-1,11
1501875903524449,0,-8,3,17,13,0,-2,-7
1501875903533384,1,1,7,-26,-1,-3,1,-5
1501875903533384,-1,2,12,41,-16,1,16,52
1501875903548452,-4,-7,-30,-61,-1,-5,-15,-16
1501875903548452,-2,-18,1,14,-21,0,-6,-16
1501875903549418,-4,0,-3,-6,28,3,-2,-9
1501875903549418,2,11,1,-4,-15,-1,1,13
1501875903570410,5,-10,3,26,11,-1,11,4
1501875903570410,-3,22,11,-2,-7,-4,0,0
1501875903572397,1,-1,5,-12,-28,-5,-2,-29
1501875903572397,-9,-16,8,32,26,-1,-4,12
1501875903592425,2,-13,-19,12,-5,5,6,15
1501875903592425,-2,-3,11,-9,5,1,-4,-20
1501875903593398,4,11,20,-11,-21,1,11,23
1501875903593398,-6,4,-35,-10,11,0,-7,-20
1501875903607486,-5,18,22,54,26,-1,-9,-40
1501875903607486,0,3,1,-34,-20,-1,-4,12
1501875903608399,1,-10,-2,41,0,-1,0,27
1501875903608399,-2,-15,-15,-74,-18,0,-3,-41
1501875903630402,-4,-22,4,11,25,-2,4,-3
1501875903630402,5,15,1,9,13,1,5,19
1501875903630402,-11,-29,-6,-3,16,3,-9,-10
1501875903630402,8,15,7,6,-41,-5,-1,0
1501875903652417,0,18,7,-7,14,0,3,12
1501875903652417,2,-17,0,4,1,-1,2,16
1501875903653399,0,0,-4,9,-2,-4,-1,17
1501875903653399,-6,19,6,19,6,1,3,-10
1501875903667453,-2,-23,6,-9,-30,-2,-5,0
1501875903667453,-9,-7,-6,-13,-1,-4,-6,-30
1501875903668402,0,4,-12,2,17,2,-7,-11
1501875903668402,6,10,7,-7,-14,1,6,15
1501875903690392,5,16,-6,-22,-10,-1,1,7
1501875903690392,-6,-21,-10,1,19,0,-2,3
1501875903690392,-3,-2,10,-6,-44,-4,-4,-8
1501875903690392,2,10,-25,-13,41,-4,1,-8
1501875903712439,-6,3,-17,-16,-8,-4,1,10
1501875903712439,-2,-13,-3,6,-8,-3,1,19
1501875903713395,-4,-19,12,4,-26,-6,-5,-3
1501875903713395,-3,1,7,26,8,0,-4,-5
1501875903727459,6,27,9,23,-3,-1,3,-6
1501875903727459,3,-21,-8,-27,7,5,4,21
1501875903728395,-6,4,0,2,-14,-3,-4,-7
1501875903728395,-2,-6,3,-3,-10,-3,-4,3
1501875903750407,-1,-1,7,-1,29,5,2,-15
1501875903750407,3,15,-15,7,-25,1,6,13
1501875903750407,0,-4,-11,-1,59,1,-1,-25
1501875903750407,-1,-5,-1,-3,-41,-2,-3,-9
1501875903772437,-2,9,0,11,14,-2,0,23
1501875903772437,2,-13,8,13,16,-1,0,8
1501875903773399,-2,7,7,-23,-25,-4,-3,-32
1501875903773399,-4,6,-16,10,16,2,-5,-5
1501875903787438,2,9,-1,-19,-2,3,6,6
1501875903787438,-2,2,-11,7,1,-7,-10,-22
1501875903788410,-1,-5,10,29,24,6,7,15
1501875903788410,-3,-7,12,-29,-39,-3,-2,6
1501875903810397,4,7,5,-21,8,5,2,9
1501875903810397,0,1,-4,5,-25,-5,-16,-38
1501875903810397,1,6,-22,-15,40,2,6,14
1501875903810397,0,-13,13,27,8,-2,-1,-11
1501875903832465,0,-10,-9,-1,-15,-1,1,15
1501875903832465,-5,-4,8,-2,18,-2,1,-26
1501875903833434,6,39,7,11,-17,-2,-2,14
1501875903833434,1,-47,-8,-2,-2,2,4,15
1501875903855447,-10,-9,-8,1,-6,-7,-13,-14
1501875903855447,2,5,21,4,-4,-3,0,1
1501875903856402,-4,-2,-17,4,15,5,2,-3
1501875903856402,5,10,2,-19,-1,2,-5,0
1501875903870408,1,-9,-4,3,-11,2,6,11
1501875903870408,-8,16,15,25,-5,-8,-10,-17
1501875903870408,-1,-15,-11,4,18,4,0,7
1501875903870408,-1,10,-4,21,21,-2,4,13
1501875903892443,0,-13,-10,-12,-10,2,-2,-13
1501875903892443,0,25,0,-4,9,2,9,22
1501875903893406,4,19,14,-4,-47,-5,5,21
1501875903893406,-6,-8,23,36,-18,-9,-19,-81
1501875903906408,-1,1,-24,-32,26,2,-1,7
1501875903906408,1,-16,-6,17,22,4,3,0
1501875903915423,-5,10,5,-34,-20,-1,-6,-16
1501875903915423,3,0,-5,-10,-6,-3,4,28
1501875903930427,3,13,10,15,2,-1,0,1
1501875903930427,3,2,-9,-1,-5,1,9,24
1501875903930427,-8,-15,1,1,-23,-9,-10,-29
1501875903930427,-2,23,5,3,5,0,-1,0
1501875903952445,-3,-18,-17,-18,36,1,-4,-13
1501875903952445,0,-1,-9,-21,9,3,3,22
1501875903953426,1,-17,8,3,-16,-5,-6,-39
1501875903953426,-1,6,-8,-21,-16,-2,2,7
1501875903966451,-8,-10,-8,26,-18,-8,-5,-10
1501875903966451,2,2,0,-14,14,3,1,-6
1501875903975425,-3,-15,12,-9,-2,2,11,31
1501875903975425,-1,1,-22,-5,10,-2,-2,-23
1501875903990421,8,-12,19,8,-18,-1,-10,-2
1501875903990421,-7,0,0,5,-6,1,-1,-9
1501875903990421,-1,-22,-19,-1,6,0,-1,17
1501875903990421,0,2,5,-7,-8,3,9,10
1501875904012453,-5,23,1,-16,2,-3,-10,-2
1501875904012453,-9,-16,10,4,-17,-6,-12,-66
1501875904013414,5,7,-20,17,9,5,3,9
1501875904013414,-3,-18,-2,-24,1,1,3,9
1501875904026411,1,18,15,11,-12,-6,0,-15
1501875904026411,-5,-29,-3,-13,29,-2,-3,15
1501875904035443,0,17,-1,31,25,-6,3,27
1501875904035443,1,-3,-1,-7,-17,2,-8,-20
1501875904050437,2,4,-1,-18,-10,0,2,13
1501875904050437,-1,0,-4,3,-42,-8,-2,-9
1501875904050437,-1,-15,0,-10,38,3,2,14
1501875904050437,0,7,2,-2,-10,1,-3,-4
1501875904072479,-9,-13,9,16,16,1,3,-6
1501875904072479,7,10,-13,-6,-29,1,3,9
1501875904073426,-4,-12,1,-18,1,-6,-5,-15
1501875904073426,1,2,-1,20,7,0,2,9
1501875904086415,-2,20,5,6,-2,-4,0,-3
1501875904086415,-1,-34,-1,-17,-12,0,-2,3
1501875904095439,3,-1,1,-3,-10,-3,-2,16
1501875904095439,-7,-7,-10,-20,40,1,-5,-3
1501875904110434,4,-1,5,30,-28,-4,2,11
1501875904110434,3,24,-20,-27,6,5,2,9
1501875904110434,-1,4,7,-2,4,3,6,-1
1501875904110434,0,12,5,20,-11,-5,-6,-10
1501875904132456,-3,-31,-24,3,14,-1,-2,-9
1501875904132456,-1,4,2,-43,-51,-4,-5,6
1501875904133429,-5,-15,-1,5,7,-1,-4,-12
1501875904133429,7,21,7,-6,23,-3,8,28
1501875904146465,-5,-20,-17,-8,-8,2,-9,-27
1501875904146465,-6,-17,-11,9,10,-1,-3,3
1501875904155435,-3,11,-15,-14,-32,-4,-5,-22
1501875904155435,-3,-24,17,8,-12,-5,-1,-10
1501875904170420,1,24,6,-14,25,3,3,23
1501875904170420,8,11,6,19,4,2,5,-1
1501875904170420,-3,-28,-4,1,-2,-3,-1,15
1501875904170420,-5,2,-11,11,-54,-6,-4,-15
1501875904192462,-1,4,-21,-73,7,1,-1,3
1501875904192462,-5,-6,18,13,22,0,-5,-14
1501875904193433,1,23,8,5,14,-1,0,6
1501875904193433,0,-18,4,-14,-32,3,1,-27
1501875904206466,0,2,0,20,2,-2,2,17
1501875904206466,0,18,-8,4,11,1,1,3
1501875904215440,-2,-35,0,-16,-9,-2,1,0
1501875904215440,-7,-3,8,5,3,-6,-6,-5
1501875904230443,-1,8,-14,2,9,5,0,-26
1501875904230443,3,13,3,3,13,-1,-2,-13
1501875904230443,0,2,8,23,-13,1,-1,13
1501875904230443,-7,-17,-11,-22,31,-3,2,8
1501875904252499,3,-6,24,46,7,-2,9,15
1501875904252499,3,9,-19,-34,-7,3,-5,0
1501875904253437,-3,6,-17,-23,-7,0,-5,-16
1501875904253437,2,10,2,6,-13,-3,-3,16
1501875904266488,4,15,19,5,-21,-2,9,22
1501875904266488,-14,-75,-8,10,6,-4,-4,-52
1501875904275469,1,15,5,15,2,3,-4,-15
1501875904275469,6,-6,0,2,10,1,3,52
1501875904290437,-9,14,-5,-16,-15,-2,-8,-46
1501875904290437,4,-6,22,3,1,1,1,15
1501875904290437,-8,-19,-4,-15,-19,-5,-6,-29
1501875904290437,-2,4,-6,9,27,1,-3,-8
1501875904312489,1,2,8,13,-33,-3,-1,7
1501875904312489,-1,5,-17,-31,30,-3,-2,9
1501875904313441,9,26,10,7,15,6,6,5
1501875904313441,1,5,1,7,0,0,0,-3
1501875904326491,-2,-13,-13,-13,-6,3,-1,10
1501875904326491,2,-4,13,24,-29,-8,-1,-3
1501875904335470,-4,-1,-10,-34,21,-3,-2,1
1501875904335470,3,17,2,1,-3,3,4,12
1501875904349486,-5,-11,4,11,-15,-10,-10,-25
1501875904349486,4,3,-12,19,-4,7,4,21
1501875904350467,-3,8,-5,11,3,3,4,-27
1501875904350467,2,2,-7,14,31,0,-5,-12
1501875904372494,-3,-5,8,-6,1,2,-2,5
1501875904372494,-1,22,16,25,-10,-3,2,10
1501875904373433,2,-1,-18,7,-13,-4,-5,-5
1501875904373433,2,-4,-3,-21,-7,2,6,14
1501875904386503,-3,-26,-7,10,-3,-6,-2,-12
1501875904386503,-3,6,-2,-5,-21,-3,-3,-9
1501875904395469,-4,-20,11,-19,50,1,-2,12
1501875904395469,-4,3,-5,0,-11,-1,-3,16
1501875904409501,11,20,4,-5,-13,-1,1,17
1501875904409501,-6,0,-4,-16,19,2,1,20
1501875904410468,4,21,3,16,-45,-10,-4,-22
1501875904410468,-3,-9,-14,-21,11,2,1,6
1501875904432505,1,-5,11,-2,9,2,-4,-15
1501875904432505,-4,3,-10,15,-2,-6,-1,-4
1501875904433448,-3,-3,7,-13,-33,1,0,7
1501875904433448,8,34,7,19,22,1,2,2
1501875904446493,0,-29,-5,1,19,3,1,-2
1501875904446493,-2,3,-2,-25,-17,-1,-1,-1
1501875904455455,-4,-19,-1,-5,1,-2,0,16
1501875904455455,-8,-11,-8,3,-17,-3,-5,-13
1501875904470440,2,14,3,8,5,-6,0,3
1501875904470440,-4,6,-2,-5,16,7,0,-15
1501875904470440,3,3,14,0,11,3,-1,20
1501875904470440,1,-1,-1,9,-6,-2,-4,-18
1501875904492476,2,-8,-10,-23,-25,-6,-1,3
1501875904492476,-3,-1,-2,19,13,1,-3,-16
1501875904493450,5,11,21,33,-9,-1,5,36
1501875904493450,0,-7,-17,-34,16,7,0,-8
1501875904515487,-9,5,-2,0,6,-3,-7,-33
1501875904515487,3,6,2,4,-2,-4,-3,3
1501875904516440,-1,-11,-5,-13,-24,-5,-4,-17
1501875904516440,-2,-14,8,9,9,-2,1,18
1501875904530460,-4,7,-3,-10,1,4,4,10
1501875904530460,1,-4,-7,-2,-12,-2,-1,-8
1501875904530460,1,14,-5,-3,24,1,0,6
1501875904530460,-6,-17,3,8,-24,-4,-5,-12
1501875904552499,-1,3,-3,-11,5,4,4,13
1501875904552499,5,14,5,14,1,-4,0,-9
1501875904553444,-3,-7,1,7,9,4,-2,-2
1501875904553444,0,-10,-5,13,-7,-4,-3,2
1501875904575506,-9,-2,0,-6,3,-1,-5,-5
1501875904575506,-1,1,3,-6,0,1,1,12
1501875904576477,-3,-15,4,-6,13,3,0,-16
1501875904576477,9,3,-1,-11,-2,0,3,12
1501875904590462,-1,5,-2,8,-15,-3,4,-14
1501875904590462,-3,-4,-2,5,12,-6,-7,12
1501875904590462,-5,1,-11,-4,-11,-7,-8,-43
1501875904590462,-10,-4,8,7,-5,1,-4,-12
1501875904612513,5,6,1,-4,16,1,2,28
1501875904612513,3,5,0,-1,2,-3,1,-18
1501875904613457,1,-5,-4,19,27,1,-1,-4
1501875904613457,-1,-8,1,-14,-29,0,-2,4
1501875904635484,-4,3,-10,2,-4,-1,1,0
1501875904635484,-5,-5,5,-14,-4,-1,-1,3
1501875904636481,4,1,0,-3,-10,-2,0,9
1501875904636481,-1,7,2,12,10,-3,-1,-7
1501875904650467,2,-1,7,-5,-4,0,0,11
1501875904650467,-2,-1,5,20,12,2,-3,-2
1501875904650467,-8,-7,-14,-22,-8,-1,-3,-7
1501875904650467,-2,-2,1,-13,-10,-2,-1,-5
1501875904672516,-1,-5,2,11,-10,-3,-2,1
1501875904672516,0,7,-12,-27,-10,-4,-4,1
1501875904673451,4,10,7,9,-4,3,11,33
1501875904673451,-5,0,-7,6,-8,-4,-8,-6
1501875904695518,-5,-16,-3,-9,19,2,-8,-49
1501875904695518,-1,-14,3,-3,-9,-1,1,7
1501875904696483,-1,23,3,9,1,-3,-4,-9
1501875904696483,0,-2,-9,-30,12,-4,3,11
1501875904709483,2,24,15,11,-15,-4,-1,14
1501875904709483,4,6,5,2,22,10,-1,-5
1501875904710487,-4,-14,-8,6,-5,0,1,3
1501875904710487,1,2,7,-3,0,0,1,-16
1501875904732514,-2,-12,-7,-6,-14,-2,-1,9
1501875904732514,1,13,2,6,19,-1,1,4
1501875904733464,1,7,0,7,0,5,2,13
1501875904733464,-5,5,-2,7,-3,-4,-3,-17
1501875904755453,0,-8,-7,-8,15,2,0,-4
1501875904755453,-2,-19,0,16,-45,-4,-1,11
1501875904756479,3,-9,8,-1,26,5,0,11
1501875904756479,-4,-3,-9,12,-5,1,-1,-22
1501875904769513,1,3,-14,-4,2,-3,0,8
1501875904769513,-3,1,4,-10,-15,3,1,-9
1501875904770463,6,-11,-18,-2,3,-6,-2,-2
1501875904770463,-2,-11,11,-36,-20,-1,-9,-23
1501875904792527,-2,-10,-1,18,-17,-2,-1,11
1501875904792527,-3,-7,-9,-12,3,-3,-1,1
1501875904793458,0,4,8,-14,-8,-2,1,-11
1501875904793458,-1,8,0,10,10,-1,4,17
1501875904815524,4,2,-1,0,8,-2,-5,-1
1501875904815524,0,-13,0,-5,9,5,2,9
1501875904816490,-3,0,-4,-1,-1,-3,-6,-9
1501875904816490,6,4,1,22,-20,-4,1,15
1501875904829497,-6,-11,-2,-22,9,2,-2,-4
1501875904829497,2,13,-1,7,3,-7,-2,13
1501875904830459,-1,3,-1,-25,-6,2,0,2
1501875904830459,-2,-5,-2,9,9,-2,-3,-31
1501875904852524,2,17,10,19,7,5,2,6
1501875904852524,0,-6,0,2,-6,1,-1,-4
1501875904853471,-3,0,-9,-1,-4,-4,-7,-10
1501875904853471,0,-3,-8,-9,-10,-2,-2,12
1501875904875499,0,-11,2,2,-5,-1,2,4
1501875904875499,-6,-3,-2,-1,0,-2,0,-11
1501875904876495,3,-1,-3,-5,-12,-3,-2,4
1501875904876495,-3,-3,4,0,15,3,0,-1
1501875904890485,1,7,-4,-7,-4,1,-1,-2
1501875904890485,1,9,2,22,12,-3,-1,-2
1501875904890485,-11,-7,-10,-30,-12,-2,-3,-5
1501875904890485,6,-5,7,6,7,2,4,21
1501875904912527,0,2,-8,-8,14,1,-4,-15
1501875904912527,1,6,-3,-14,-14,-1,0,-5
1501875904913474,1,1,3,12,-5,-4,0,-5
1501875904913474,-1,3,-5,3,-4,-1,0,4
1501875904935463,-4,3,9,-7,-11,-4,-1,-4
1501875904935463,5,7,7,1,2,-2,4,6
1501875904936496,-11,-28,-18,6,-12,-1,-5,6
1501875904936496,-2,0,1,-3,17,0,-6,-9
1501875904950488,0,20,-12,-15,1,0,0,10
1501875904950488,-3,-36,9,12,20,3,-1,6
1501875904950488,2,5,-1,-11,-4,-1,1,-15
1501875904950488,-3,3,0,-2,-4,-4,2,6
1501875904972509,-2,-5,1,2,-14,-4,-1,-3
1501875904972509,-2,-3,-5,-14,-30,-6,-2,-3
1501875904973466,-1,2,0,8,45,0,2,14
1501875904973466,-1,1,1,6,-12,2,-6,-14
1501875904995517,3,-3,0,-2,5,1,-1,0
1501875904995517,-6,-7,-6,0,-14,-2,-5,-11
1501875904996480,0,-3,6,-2,-28,-4,-3,1
1501875904996480,1,5,-4,-17,17,-3,-3,3
1501875905009514,-3,10,-1,16,5,3,2,11
1501875905009514,-1,-1,0,-17,-9,0,-1,-12
1501875905010508,3,20,1,9,8,1,0,2
1501875905010508,-10,-25,-9,-1,-6,-2,-5,-4
1501875905032527,1,-19,-6,-3,-8,0,2,4
1501875905032527,-3,23,-5,0,13,-4,-7,-13
1501875905033482,7,-6,9,9,-29,-7,5,31
1501875905033482,-1,-3,-11,-15,26,7,-4,-72
1501875905055500,-4,-14,-1,16,15,2,-3,-4
1501875905055500,9,7,3,17,-26,2,2,0
1501875905056472,-5,1,0,-25,41,8,6,-4
1501875905056472,2,11,10,-8,0,-2,-1,51
1501875905070472,0,-25,-4,9,-32,-5,2,12
1501875905070472,-9,-3,-8,3,49,3,-11,-21
1501875905070472,1,21,0,16,-9,-3,-2,-30
1501875905070472,-6,-17,-7,-1,-21,-3,-2,0
1501875905092540,0,-2,4,-10,1,-4,-3,4
1501875905092540,-2,-11,-6,-4,-7,-3,10,28
1501875905093486,2,4,6,-1,12,2,-5,-16
1501875905093486,2,1,-14,25,5,0,9,34
1501875905115541,1,19,1,-23,-16,-4,-15,-27
1501875905115541,-5,-17,5,-1,-16,-3,-2,6
1501875905116510,-9,-19,-4,-8,28,8,-4,-11
1501875905116510,6,23,6,-2,-21,-2,3,4
1501875905138486,-1,-11,3,20,-17,-4,1,12
1501875905138486,-5,3,-5,-14,12,-2,-1,-29
1501875905138486,3,8,-6,4,-15,-2,3,20
1501875905138486,-2,-6,5,-4,3,-8,1,23
1501875905152520,1,-3,-10,-18,32,4,-2,-14
1501875905152520,1,-14,-1,-1,-15,-8,-5,11
1501875905153489,2,20,0,-8,-39,-5,-5,-21
1501875905153489,-1,7,1,-10,20,9,12,10
1501875905174548,-1,6,-3,-10,-16,-12,-7,0
1501875905174548,1,-28,-6,-10,15,11,4,-2
1501875905175478,-1,1,1,22,-5,-6,-2,-6
1501875905175478,0,6,3,-5,5,-4,-5,10
1501875905189518,-3,-18,0,-3,-2,4,6,12
1501875905189518,5,25,6,5,3,-2,-3,-3
1501875905197525,0,1,0,-9,-11,-4,-3,22
1501875905197525,-4,-24,2,5,-46,-6,-2,8
1501875905212524,0,12,-1,3,44,4,2,-2
1501875905212524,-10,-12,7,5,-4,-4,-4,-14
1501875905213493,6,10,-4,-1,-8,1,-3,1
1501875905213493,6,3,1,0,-10,5,4,6
1501875905234492,-11,-46,-3,11,14,-7,-1,-17
1501875905234492,5,15,2,2,-19,0,-3,9
1501875905235481,3,18,2,8,12,1,2,3
1501875905235481,0,-14,1,-1,11,1,-5,-11
1501875905249491,-1,7,-12,-12,-61,-6,0,0
1501875905249491,-3,-11,-7,-3,74,3,4,-2
1501875905257510,-8,-6,10,-4,1,0,-2,16
1501875905257510,3,-3,-27,-2,-14,-2,-5,-6
1501875905272543,10,15,14,-3,-4,-1,9,31
1501875905272543,-15,-12,-3,-2,-22,-8,-7,-41
1501875905273491,4,10,0,-6,4,5,2,8
1501875905273491,-6,13,15,22,13,-4,-11,-36
1501875905294546,-2,2,0,-1,-4,2,3,14
1501875905294546,2,-7,-8,36,21,2,-3,23
1501875905295494,-4,-15,0,-43,-21,3,-1,-7
1501875905295494,5,12,6,10,28,0,6,3
1501875905309507,-4,-3,-2,3,16,6,0,-15
1501875905309507,1,2,-1,-7,-23,1,-6,17
1501875905317549,-7,-40,-14,16,9,-3,-2,-16
1501875905317549,2,-6,0,-4,-21,-5,-3,5
1501875905332552,1,33,6,12,-9,-3,-3,-33
1501875905332552,-4,-5,-5,-41,-5,1,7,3
1501875905333487,-3,7,3,9,-31,-6,-6,-11
1501875905333487,4,7,-7,-13,20,3,3,0
1501875905354489,-6,-9,3,9,10,1,0,28
1501875905354489,9,29,0,-16,-14,-2,-9,-18
1501875905355521,-7,-26,7,15,6,-1,6,8
1501875905355521,-14,7,-4,15,-16,-7,-18,-37
1501875905369525,2,-1,5,-54,14,1,1,1
1501875905369525,-2,-11,-24,4,12,-6,-8,-14
1501875905377548,6,-10,0,-11,-5,7,7,29
1501875905377548,-4,3,-1,-5,-19,-4,-3,-34
1501875905392550,3,17,4,27,10,-2,-2,-5
1501875905392550,0,9,7,-5,-12,-2,5,7
1501875905393503,-1,-16,-5,-6,5,-5,-1,0
1501875905393503,-5,-4,-1,0,3,3,2,-7
1501875905414492,4,9,5,10,-41,-7,2,19
1501875905414492,-3,19,3,-27,14,-2,-3,-24
1501875905415492,-4,-8,-11,13,23,3,-3,-17
1501875905415492,-1,-6,3,7,3,2,2,0
1501875905438535,0,21,-6,-33,-3,-2,-3,6
1501875905438535,-1,-18,-1,14,-7,1,5,8
1501875905439512,0,13,-3,3,-4,-2,-2,-7
1501875905439512,0,-2,2,-13,-14,1,2,11
1501875905452565,1,-4,-3,2,4,1,-1,8
1501875905452565,-2,1,0,10,-11,-3,-3,-5
1501875905453497,-2,-5,-2,-3,8,0,-4,-13
1501875905453497,4,7,1,4,-9,-2,-1,14
1501875905474536,-2,-21,-10,18,-16,-10,-6,4
1501875905474536,6,18,6,21,54,17,22,65
1501875905475534,-10,1,-4,-11,2,-2,-29,-84
1501875905475534,-11,-15,-15,-17,17,1,-4,6
1501875905498544,0,1,3,-14,-16,0,-6,-14
1501875905498544,-3,-26,2,1,-17,-3,1,15
1501875905498544,2,12,0,15,-2,-4,9,15
1501875905498544,1,7,3,3,0,-1,2,-5
1501875905512566,-3,2,-4,-2,13,3,-1,-10
1501875905512566,7,-3,-6,-2,-19,-5,0,-6
1501875905513498,-1,0,10,-5,-10,-4,1,22
1501875905513498,-1,-5,0,1,-40,-8,-5,-25
1501875905534531,-5,1,1,22,37,7,4,-9
1501875905534531,1,-23,-2,-12,35,14,8,30
1501875905535500,-2,-12,-5,6,-4,-6,-9,-1
1501875905535500,10,23,3,-23,4,5,6,16
1501875905558520,-5,-34,-6,4,-20,-8,-3,-8
1501875905558520,-3,14,1,4,-19,-9,-3,-9
1501875905558520,-2,4,-3,3,3,0,-3,-10
1501875905558520,-2,-8,6,13,7,-3,-2,7
1501875905572541,5,0,3,-20,1,1,-2,-9
1501875905572541,0,15,1,6,-9,-1,-4,-8
1501875905573503,0,-21,-6,-7,-6,-3,4,29
1501875905573503,5,3,0,9,-6,-3,-2,14
1501875905594562,-8,-9,-3,-14,26,7,0,-8
1501875905594562,0,6,1,9,-4,0,-2,3
1501875905595533,-5,-3,-1,-8,-6,0,3,-3
1501875905595533,1,-2,2,-3,-10,-1,-2,0
1501875905618561,1,-2,-2,9,1,-1,3,12
1501875905618561,-2,5,0,-8,-22,-6,-4,-17
1501875905618561,4,18,3,6,14,1,4,19
1501875905618561,-7,-17,-3,-1,6,-5,-7,-17
1501875905632505,-5,2,-6,-3,-4,-2,-7,-23
1501875905632505,-2,-18,0,-4,-9,-3,-3,-12
1501875905633517,1,5,1,9,-39,-4,3,-2
1501875905633517,-2,-7,-12,-14,55,-2,3,11
1501875905654545,3,2,0,-29,-14,4,1,5
1501875905654545,0,4,7,4,-45,-4,0,1
1501875905655551,6,12,-6,-17,81,6,7,26
1501875905655551,1,-7,2,6,-28,1,3,2
1501875905678546,0,35,6,22,-1,-4,-4,4
1501875905678546,7,-28,-1,-20,14,-2,1,-4
1501875905678546,-21,-37,-12,-2,-21,-5,-5,-26
1501875905678546,-4,-6,1,5,-3,2,-2,3
1501875905692556,0,-10,-4,2,11,-2,-1,5
1501875905692556,5,25,3,3,-11,1,2,-5
1501875905693509,2,-3,4,4,-6,-5,0,4
1501875905693509,-1,4,3,-3,-12,-2,-4,7
1501875905714549,-1,-3,0,12,15,4,3,-3
1501875905714549,-2,1,0,-8,6,-3,-3,8
1501875905715548,4,-1,-5,-7,-2,1,0,-7
1501875905715548,-4,3,-1,0,-2,-1,-1,-8
1501875905737541,3,-5,-4,1,-12,-4,0,10
1501875905737541,-4,-1,-3,-5,6,-2,-2,2
1501875905738518,-1,10,4,1,4,3,-3,-12
1501875905738518,1,-1,-3,-3,-5,2,3,-3
1501875905752573,-4,-10,-2,2,-6,-3,0,-1
1501875905752573,-2,-1,-4,0,6,0,-4,-9
1501875905753525,1,6,0,2,-10,-3,-3,-5
1501875905753525,-1,-1,-1,-11,6,2,1,6
1501875905774560,18,-9,-6,-2,1,-3,-8,-3
1501875905774560,-14,1,3,3,-1,1,-3,-7
1501875905775550,17,4,9,3,-6,0,-4,14
1501875905775550,-21,-4,-3,6,9,0,-7,-16
