timestamp,emg1,emg2,emg3,emg4,emg5,emg6,emg7,emg8
1501879372135543,23,-15,-12,-54,-4,-3,2,3
1501879372135543,-9,13,3,0,3,0,5,-11
1501879372136544,8,24,-5,-22,1,-1,-4,-17
1501879372136544,-9,4,0,39,-2,-2,0,-4
1501879372158547,-9,-1,42,62,8,5,-1,-10
1501879372158547,25,3,4,-91,-6,2,0,26
1501879372159554,-15,-52,0,48,8,6,10,-20
1501879372159554,18,-43,-14,-66,-9,-9,-22,-10
1501879372172548,-8,39,-7,-16,-3,2,14,17
1501879372172548,-7,67,-7,5,3,-1,-1,-2
1501879372180547,6,-25,32,22,-4,-6,-8,-14
1501879372180547,6,56,10,-51,10,4,6,-44
1501879372195548,-28,-90,-38,20,-8,-1,-10,15
1501879372195548,39,24,64,35,8,8,8,17
1501879372196548,-14,45,0,4,-1,-2,-3,-16
1501879372196548,7,118,-10,2,-2,-7,-7,15
1501879372219549,-10,-58,-18,-73,-7,-5,-2,-37
1501879372219549,-17,-25,-2,22,15,5,-7,33
1501879372219549,13,-3,-37,29,-24,-7,10,25
1501879372219549,2,88,-21,5,10,7,2,10
1501879372232554,24,-47,61,6,1,2,7,31
1501879372232554,1,95,39,22,-8,-11,-26,-41
1501879372240551,10,-44,-53,65,11,2,5,99
1501879372240551,-59,-65,12,-13,5,4,10,-59
1501879372255552,-15,-29,-43,-42,-22,-7,-7,-7
1501879372255552,24,-40,-14,11,-2,-3,6,-10
1501879372256556,-8,49,47,-18,16,-2,-13,46
1501879372256556,49,23,-5,68,2,4,6,47
1501879372278553,-11,66,37,-48,10,7,8,-32
1501879372278553,-27,-97,-17,48,-11,-8,-14,-58
1501879372279561,-8,-15,-36,-122,-12,3,-27,6
1501879372279561,-11,-59,1,46,0,-5,24,-55
1501879372301557,-58,-30,-2,-59,-10,-5,-17,39
1501879372301557,-3,16,55,83,19,6,-15,6
1501879372302556,12,-32,-36,68,5,9,57,-45
1501879372302556,19,60,-30,-52,-20,-13,-25,63
1501879372315557,-8,127,47,-60,-27,-12,-10,-15
1501879372315557,-61,-128,-42,9,14,-2,-9,-10
1501879372316555,-8,77,71,70,13,-3,-1,86
1501879372316555,44,-71,-59,1,-21,2,-1,12
1501879372338555,59,127,-1,-15,10,0,-1,5
1501879372338555,-40,-34,-43,-128,-19,-6,-2,-16
1501879372339555,-9,64,24,62,13,1,9,-20
1501879372339555,-20,83,59,52,18,5,-7,53
1501879372362557,36,-30,-76,-50,-16,-8,8,95
1501879372362557,-13,-9,31,60,-4,1,-1,-33
1501879372363563,34,45,-14,-49,-8,-4,29,-45
1501879372363563,-5,-45,74,1,24,14,-19,-58
1501879372375572,7,77,41,42,8,5,-8,31
1501879372375572,11,-17,-40,-40,-16,2,7,11
1501879372376559,-9,-3,-35,-26,24,3,14,71
1501879372376559,-14,-46,43,26,-31,-6,0,18
1501879372398559,16,-34,-61,-23,21,1,0,-23
1501879372398559,8,59,-19,22,-30,-8,5,35
1501879372399559,-32,-105,-21,50,-6,-9,-18,-34
1501879372399559,12,34,-24,-69,25,-1,-10,-6
1501879372421575,6,-17,46,82,11,7,26,44
1501879372421575,5,17,-27,-76,-18,4,4,-8
1501879372421575,8,-36,-15,-56,-20,-11,-38,-43
1501879372421575,-36,-19,-19,61,-1,-2,2,-9
1501879372435565,-2,-66,44,2,-26,-10,-6,-32
1501879372435565,32,96,4,75,33,17,16,-34
1501879372436564,-29,37,-41,-128,-35,-11,-22,-108
1501879372436564,-8,17,2,39,23,-2,14,92
1501879372458565,3,-86,-89,8,-13,-5,-1,-31
1501879372458565,2,125,70,6,-7,3,0,6
1501879372459563,-25,-28,76,101,-9,0,-32,3
1501879372459563,30,11,-15,-5,7,3,53,97
1501879372481565,-61,24,-21,59,-18,-15,-40,-116
1501879372481565,-2,-11,-52,32,29,-2,2,83
1501879372481565,2,-23,-55,-128,-24,-6,-5,16
1501879372481565,-31,3,72,0,-19,-8,-9,-87
1501879372495569,-6,-44,11,104,32,3,6,-18
1501879372495569,2,-24,-40,-71,-30,-7,-2,-1
1501879372496567,12,41,49,32,-3,-1,-6,6
1501879372496567,12,9,-59,27,-37,-3,-15,-48
1501879372517567,-5,-36,4,-16,22,-2,5,17
1501879372517567,-17,-82,-25,-41,-11,6,-1,-5
1501879372525582,-3,-15,16,3,34,4,13,41
1501879372525582,1,-11,-9,-56,-25,-2,1,35
1501879372548568,2,101,35,61,3,7,2,-66
1501879372548568,-3,-49,34,-27,12,-6,6,47
1501879372549568,13,-17,12,-1,7,11,-7,-33
1501879372549568,11,-57,-47,44,7,-5,18,17
1501879372555587,-16,48,40,-38,-51,-10,-11,-18
1501879372555587,25,-42,-23,51,55,5,12,49
1501879372556576,1,21,-15,-9,-24,-1,2,7
1501879372556576,-10,54,23,-30,-2,-3,-27,-45
1501879372578571,6,55,-15,52,41,7,12,-16
1501879372578571,15,-33,-20,-36,-29,-8,6,94
1501879372578571,6,61,20,25,-1,-2,-4,-30
1501879372578571,-18,-60,10,-34,20,5,13,42
1501879372601572,16,-19,8,-50,-24,-2,-16,-1
1501879372601572,-9,31,-9,32,8,-9,3,-66
1501879372601572,20,-29,1,2,-3,3,2,16
1501879372601572,0,-2,2,-44,2,-4,-8,16
1501879372615572,4,-8,-27,39,21,3,5,14
1501879372615572,9,101,0,-55,-30,-10,-9,-35
1501879372616572,-2,-29,12,-6,-8,-1,0,-46
1501879372616572,-29,-25,16,13,2,-12,-9,-65
1501879372638573,-6,-29,50,36,35,10,-9,41
1501879372638573,-11,19,-56,-7,-26,-3,-7,-11
1501879372638573,25,37,2,-51,22,3,11,34
1501879372638573,4,58,-2,39,-14,-1,-8,-13
1501879372661585,4,-40,-71,-107,-34,-11,10,39
1501879372661585,-17,-42,70,73,-11,0,-10,-80
1501879372661585,-17,-16,-22,14,17,7,4,36
1501879372661585,-6,-26,-25,-73,-18,-11,-18,-52
1501879372683579,30,37,29,64,30,15,18,50
1501879372683579,-19,13,25,12,10,-2,0,-21
1501879372684576,0,-8,-34,23,-7,-10,-11,6
1501879372684576,-3,-27,-45,-52,0,0,-8,-9
1501879372697578,-17,-3,-32,31,-17,-6,-3,-7
1501879372697578,31,2,29,13,2,-8,-3,50
1501879372698579,-8,38,19,-30,14,17,4,-52
1501879372698579,21,3,47,8,16,8,24,50
1501879372720594,-34,-7,-90,-41,-15,-10,-22,-16
1501879372720594,-14,-14,37,44,1,3,5,-32
1501879372728584,-2,-16,17,10,3,-4,-7,-7
1501879372728584,11,20,-22,48,-4,2,8,-9
1501879372735578,-9,23,36,18,10,4,9,29
1501879372735578,21,-7,-10,1,21,-1,-6,29
1501879372736581,6,16,-40,2,-33,-6,11,-20
1501879372736581,-17,-24,37,29,19,0,-3,1
1501879372757594,45,-6,47,-21,-6,0,2,36
1501879372757594,-18,-2,-47,-53,-11,1,-10,-13
1501879372758579,5,35,34,39,7,-5,-8,-8
1501879372758579,-9,-53,-13,89,-9,3,-2,-6
1501879372781582,-4,16,-12,-39,11,0,7,9
1501879372781582,7,2,0,-29,-14,4,18,44
1501879372781582,-11,-11,1,12,-3,-10,-22,-51
1501879372781582,1,38,-8,-59,-5,4,-2,-12
1501879372795582,-12,-1,0,45,-1,-7,-14,-43
1501879372795582,-3,15,-29,-6,-31,-5,-2,21
1501879372796584,-5,-16,1,4,37,2,14,4
1501879372796584,9,9,14,7,5,4,2,54
1501879372826586,1,3,0,0,-14,2,-6,-52
1501879372826586,3,17,-27,-46,-7,-5,-5,-26
1501879372826586,7,22,4,4,-2,0,2,43
1501879372826586,-2,-10,33,-89,-6,-2,-4,15
1501879372841586,16,-11,-35,-23,-41,-6,8,34
1501879372841586,-26,8,30,45,44,-2,-12,-39
1501879372841586,-4,8,-24,-40,-9,2,2,16
1501879372841586,7,-9,0,-14,4,-4,-1,-6
1501879372855602,-13,30,4,-15,-13,-5,-2,-1
1501879372855602,5,-19,-13,1,3,-3,-6,-8
1501879372856604,-6,-46,27,25,3,5,11,4
1501879372856604,-8,-16,-51,-47,-13,1,-12,-43
1501879372878589,3,31,5,-24,8,-3,3,24
1501879372878589,4,-16,13,57,-6,-2,5,-8
1501879372879587,-8,-93,10,-7,-5,-1,-6,8
1501879372879587,-4,36,-49,96,3,-6,-7,22
1501879372901589,1,-3,49,-28,8,3,-6,10
1501879372901589,-9,-17,-27,-26,-12,-1,4,-7
1501879372901589,10,43,40,8,-17,-8,-8,-3
1501879372901589,-1,-23,8,3,9,1,4,5
1501879372914590,-13,-24,-12,49,6,3,1,-1
1501879372914590,0,-2,49,-3,17,4,-4,7
1501879372923590,-2,-25,-80,-26,-18,-6,1,18
1501879372923590,-13,-6,16,-41,-10,-7,-9,-38
1501879372937591,6,-14,5,-42,11,5,8,30
1501879372937591,4,16,32,-11,-10,-1,6,14
1501879372938591,-13,49,-40,-3,9,-4,-11,-48
1501879372938591,8,-45,-14,-4,-14,-4,0,34
1501879372961591,-14,-16,1,28,4,-1,-7,-46
1501879372961591,8,3,-8,-37,7,2,6,42
1501879372961591,3,31,20,20,-2,-4,-2,25
1501879372961591,0,12,27,63,8,6,6,-45
1501879372974608,13,14,4,-42,1,-2,0,1
1501879372974608,1,-7,-26,-12,-10,-4,-6,7
1501879372983596,1,-3,23,-5,13,5,-2,16
1501879372983596,4,8,12,33,6,1,5,5
1501879372997597,4,-12,13,7,28,0,0,-17
1501879372997597,-19,-34,3,14,1,12,13,18
1501879372998593,5,7,-4,-52,-43,-9,-9,2
1501879372998593,4,8,19,30,36,5,-2,10
1501879373021595,-6,43,-40,4,-29,-4,0,-36
1501879373021595,10,-8,24,-8,12,-4,-7,57
1501879373021595,2,-39,-30,-56,-3,4,4,-28
1501879373021595,-1,-32,13,0,-7,-3,-2,-5
1501879373034598,2,-9,45,9,-9,-3,6,16
1501879373034598,-3,44,-35,8,1,-6,-8,-40
1501879373043597,-6,-12,11,34,6,6,7,23
1501879373043597,-12,25,-27,-12,-16,-6,-2,-2
1501879373058612,0,-38,19,37,15,-3,-4,6
1501879373058612,-9,-23,-18,26,13,0,-5,-23
1501879373058612,1,0,-20,-90,-23,-1,4,10
1501879373058612,-1,-2,15,29,7,3,10,38
1501879373081600,3,29,11,11,3,3,-14,-35
1501879373081600,-3,-41,-33,47,6,-1,3,-9
1501879373081600,-4,1,-28,-29,0,-10,-10,-5
1501879373081600,-7,28,-6,-26,-5,2,5,-28
1501879373094601,-5,-47,-2,13,-1,-1,-4,17
1501879373094601,3,7,11,-15,0,0,-3,11
1501879373103600,-23,-17,22,68,-10,2,-2,-54
1501879373103600,19,27,-5,-7,12,-8,-6,34
1501879373126605,-5,17,-4,-38,-31,-3,3,7
1501879373126605,3,-10,29,28,18,3,-3,-43
1501879373126605,2,-5,9,-5,5,-2,-3,15
1501879373126605,5,1,-3,23,-23,-9,-11,-13
1501879373141603,-8,-4,-18,-18,4,3,3,-2
1501879373141603,5,3,-42,-23,-12,-3,3,-1
1501879373141603,6,27,18,48,10,2,6,-17
1501879373141603,-3,34,20,-30,2,1,-1,-19
1501879373154604,8,-85,-21,10,-15,-5,-2,39
1501879373154604,4,21,-10,-24,-3,-5,-7,-44
1501879373163604,-5,-40,4,15,2,0,3,11
1501879373163604,-3,-2,8,8,14,1,0,-5
1501879373178628,-2,24,-40,-19,-3,2,2,-14
1501879373178628,1,10,37,-14,-15,-5,-5,3
1501879373178628,-5,20,-18,-7,22,0,3,10
1501879373178628,-3,-23,-20,-10,-22,-3,-3,-35
1501879373201610,7,-1,-17,-5,-2,-2,-2,14
1501879373201610,1,27,33,9,14,3,1,-12
1501879373201610,2,-12,-12,-10,-7,0,3,3
1501879373201610,-4,-20,-17,6,7,6,4,16
1501879373223622,2,13,12,-17,-21,-2,-3,-7
1501879373223622,0,10,-17,16,18,5,3,15
1501879373224608,3,12,5,-55,5,-3,-1,-14
1501879373224608,-12,-1,19,-5,2,1,1,7
1501879373237609,-7,-5,-5,11,-5,-3,5,39
1501879373237609,14,9,-6,-5,-23,-5,-6,-24
1501879373238609,1,-4,5,56,22,-2,-2,21
1501879373238609,-13,-30,10,-94,-20,2,-7,-21
1501879373261615,3,22,-14,10,-12,-5,3,5
1501879373261615,-11,28,20,-77,-1,7,6,19
1501879373261615,5,-59,30,58,-10,-6,-7,4
1501879373261615,-2,10,-1,8,11,-5,-7,-10
1501879373291612,-2,4,-21,-22,27,10,9,2
1501879373291612,5,8,-4,-1,-17,-6,1,10
1501879373291612,-2,33,22,-5,-8,-4,-4,-26
1501879373291612,13,-9,24,25,-7,2,2,37
1501879373297612,3,15,-9,8,-5,-3,-3,1
1501879373297612,-8,-8,-14,52,-21,-2,2,-43
1501879373298615,-2,5,-10,-19,32,-3,-4,30
1501879373298615,7,17,8,-32,-3,7,-1,-6
1501879373336636,-12,-7,-6,51,10,-4,-6,-4
1501879373336636,4,-8,-27,-31,-4,-1,2,50
1501879373336636,8,25,25,29,-22,-4,4,-28
1501879373336636,-17,1,-66,-84,3,-2,-2,-30
1501879373343620,3,2,29,-7,14,-2,-7,4
1501879373343620,-16,-36,-14,3,-17,-4,-1,-19
1501879373345630,-9,-34,7,11,0,1,-4,3
1501879373345630,9,3,-3,34,-16,-6,5,20
1501879373357656,-10,26,0,-4,27,4,3,-5
1501879373357656,-10,-20,67,-13,13,11,-5,-26
1501879373358616,4,24,-42,30,-9,-2,-4,22
1501879373358616,-4,-19,-26,-83,-10,-3,-2,-28
1501879373381618,-8,12,17,40,-17,-12,-6,-5
1501879373381618,11,6,36,33,20,3,3,-3
1501879373381618,16,6,-56,-45,-10,7,11,40
1501879373381618,-16,-39,5,32,-11,-6,-5,-16
1501879373403643,-8,-20,-2,-22,-2,-2,-10,-18
1501879373403643,2,7,-27,-2,6,-1,3,10
1501879373404618,-6,7,12,3,-10,1,3,16
1501879373404618,15,0,-46,55,39,2,-7,10
1501879373417619,4,9,17,-50,-23,-1,-4,-18
1501879373417619,-4,-20,-8,26,-1,-4,-3,11
1501879373418618,-14,-17,13,-15,-3,0,2,-21
1501879373418618,6,14,15,56,6,-2,8,40
1501879373440641,-4,1,5,26,0,-2,-9,-24
1501879373440641,9,11,0,-28,9,3,2,17
1501879373447626,1,26,-10,9,9,-2,-1,0
1501879373447626,-12,-25,24,-17,-20,-2,-1,-6
1501879373463623,1,-5,-39,-31,-9,-1,2,4
1501879373463623,-9,4,-12,-2,-35,-12,-2,25
1501879373464622,5,-8,17,61,40,4,3,-54
1501879373464622,-4,14,7,-6,-7,-1,-10,11
1501879373478661,30,33,26,-1,6,1,2,33
1501879373478661,-11,-67,14,-12,0,1,-2,2
1501879373478661,-10,-19,-43,-6,-10,-2,-4,-24
1501879373478661,2,5,19,37,8,-5,-1,-1
1501879373501628,3,11,-35,-63,0,0,3,-5
1501879373501628,5,35,39,20,2,0,6,5
1501879373501628,-12,-24,25,-40,-18,2,-7,-11
1501879373501628,1,-4,-4,2,16,-4,2,26
1501879373523666,-11,-12,11,15,15,4,-7,-33
1501879373523666,13,38,-16,0,-12,-7,-7,8
1501879373524625,-9,-23,-19,-24,11,2,5,-11
1501879373524625,2,17,-4,-9,-18,-4,-7,-19
1501879373537647,-4,-34,17,25,19,-1,11,3
1501879373537647,-3,30,6,23,2,6,-7,-10
1501879373545629,-1,-8,-31,-45,-11,-6,-8,-4
1501879373545629,-2,-28,0,-19,-11,1,2,-5
1501879373561640,-3,20,5,59,23,1,9,-28
1501879373561640,-3,1,17,-46,-18,-4,-14,11
1501879373561640,9,34,18,32,1,-1,-3,1
1501879373561640,-1,5,-72,6,-6,-2,4,13
1501879373583634,0,-27,23,22,-18,2,4,13
1501879373583634,-4,-14,-14,39,16,-5,0,-5
1501879373584632,6,21,20,-15,8,1,-5,-17
1501879373584632,-6,-7,9,-17,3,2,-1,-5
1501879373597635,-2,-20,-17,-19,-5,-4,0,22
1501879373597635,-3,13,11,34,-1,-4,-5,-13
1501879373598630,-8,-27,1,13,-5,-4,-4,14
1501879373598630,11,9,22,-20,-8,5,6,16
1501879373621632,-9,17,-1,-18,-12,-8,-1,-42
1501879373621632,-5,-53,-33,-24,-6,3,-6,3
1501879373621632,3,-2,32,2,15,0,0,29
1501879373621632,-2,9,1,34,-3,0,-2,6
1501879373642645,4,-8,-17,-24,-14,0,1,26
1501879373642645,-3,12,-13,-9,10,-5,-8,-46
1501879373650652,-1,5,-10,-12,-33,-2,3,3
1501879373650652,11,12,10,18,16,-1,9,47
1501879373659648,-5,1,29,8,-11,0,-13,-72
1501879373659648,-4,3,-39,10,30,6,7,4
1501879373660642,5,14,-8,-17,-11,-1,1,20
1501879373660642,-2,-25,24,31,-9,-2,-2,-10
1501879373681635,-5,8,6,18,-6,-1,-3,-14
1501879373681635,3,-2,-8,-83,-2,0,8,1
1501879373681635,1,12,-5,16,-6,-5,-10,4
1501879373681635,-8,8,-26,19,1,1,1,-11
1501879373703638,5,-5,4,-27,0,-1,-5,6
1501879373703638,1,-28,0,13,-15,-3,6,12
1501879373704636,0,24,2,7,16,0,2,4
1501879373704636,0,5,-3,-33,-11,1,-5,-26
1501879373717638,0,16,-4,-13,13,5,9,43
1501879373717638,1,17,9,29,-10,-6,-10,1
1501879373718635,-3,-31,-16,1,1,-4,-4,-33
1501879373718635,-3,4,1,-13,4,-2,-10,-32
1501879373741643,-4,-14,-22,1,5,5,3,17
1501879373741643,9,17,10,-10,-9,-1,6,13
1501879373741643,-4,11,13,20,0,-1,3,12
1501879373741643,7,-10,-3,-28,-5,-2,-2,-8
1501879373763641,-6,-23,-7,50,-21,-4,-3,7
1501879373763641,3,-22,10,-22,29,6,0,23
1501879373764641,-5,9,-10,-5,-1,-3,-8,0
1501879373764641,3,2,15,15,1,-1,7,7
1501879373778645,-3,-15,-18,-55,-9,-8,-2,10
1501879373778645,-3,12,-12,-41,-8,-1,-6,-15
1501879373778645,2,0,29,-38,-18,-2,5,14
1501879373778645,-2,2,-25,-7,13,2,3,18
1501879373801642,1,8,12,21,0,-3,-13,-54
1501879373801642,3,4,3,56,3,-6,0,22
1501879373801642,-2,-1,-14,-15,-43,7,5,-11
1501879373801642,-9,-13,-17,20,36,0,-5,-13
1501879373823660,-3,-7,6,-13,5,0,-2,-5
1501879373823660,-1,-8,-18,-2,-7,-3,6,27
1501879373824643,-1,-5,18,12,-10,0,-3,-48
1501879373824643,-5,4,-3,-13,-15,-5,-5,7
1501879373837646,-1,-9,6,20,18,-6,-3,15
1501879373837646,-6,21,-6,-7,0,13,2,-23
1501879373845645,8,-7,5,0,15,0,12,45
1501879373845645,-9,-4,-6,-36,-16,-1,-1,-43
1501879373861666,5,17,1,6,-15,-6,-12,7
1501879373861666,-10,-23,-2,-23,7,-1,-3,-12
1501879373862645,-1,-10,-50,0,5,-5,-6,13
1501879373862645,-4,13,13,19,-4,-1,0,-18
1501879373883647,2,-5,-25,-33,6,3,8,-1
1501879373883647,8,17,16,28,-10,-1,-5,-5
1501879373885649,-8,-6,-3,-4,11,-1,-2,-15
1501879373885649,4,12,15,-4,-3,1,-3,29
1501879373897647,-5,30,13,9,-23,0,4,-10
1501879373897647,3,-28,-32,24,-1,-11,-9,14
1501879373906663,-6,-9,-8,-32,14,6,2,1
1501879373906663,-2,-18,32,-2,-14,-3,-6,27
1501879373921715,-4,0,5,-7,10,5,-2,-60
1501879373921715,6,25,-5,9,-17,-2,1,-16
1501879373922658,4,0,-7,33,14,-1,0,21
1501879373922658,-8,-6,-12,-26,-16,-5,-1,-16
1501879373943671,1,-4,4,-6,22,4,1,24
1501879373943671,-3,-1,5,-3,-10,-5,-4,-16
1501879373945653,-6,12,-18,-6,-11,-4,-3,-3
1501879373945653,7,21,20,10,9,5,11,-7
1501879373957688,1,-5,-8,-23,-8,-7,-11,-2
1501879373957688,-3,-10,11,-25,22,7,8,-12
1501879373966651,9,6,-4,1,-5,1,6,28
1501879373966651,1,12,3,10,9,2,-4,-29
1501879373981673,-1,-3,-2,10,7,-2,0,29
1501879373981673,-4,5,16,17,0,-1,-3,-16
1501879373982652,-4,-6,-12,-30,-12,-3,-1,-22
1501879373982652,1,4,11,-10,2,-1,0,26
1501879374011654,0,4,3,25,-11,-3,-6,-4
1501879374011654,-7,6,0,-3,-7,-2,-4,-1
1501879374012653,3,-7,21,32,9,2,1,22
1501879374012653,6,-12,-37,-37,-21,-4,7,-12
1501879374026655,6,4,21,17,38,13,7,19
1501879374026655,-2,-13,-21,-30,-7,1,1,3
1501879374027655,-6,-8,11,23,7,-2,-3,8
1501879374027655,-8,-25,2,28,-11,-9,-9,-15
1501879374041656,-5,-17,-13,-1,-7,-5,-4,8
1501879374041656,6,11,-6,-57,-8,0,11,11
1501879374047676,4,-1,25,45,1,-1,-11,-28
1501879374047676,-9,-8,5,0,12,4,-5,9
1501879374071661,-4,20,-33,13,-20,-5,2,1
1501879374071661,-3,-22,-8,-6,-10,-3,-2,11
1501879374072670,-3,0,8,-15,25,3,-1,-30
1501879374072670,-1,-6,-11,-1,-17,-7,-1,-12
1501879374077658,5,35,32,34,35,6,-3,-19
1501879374077658,-8,-44,-11,-17,-17,-3,-3,2
1501879374086659,1,2,-4,-21,-4,-3,-1,31
1501879374086659,0,0,-11,5,13,-1,-4,-1
1501879374099660,-6,-21,4,-26,-26,2,3,-2
1501879374099660,-5,11,1,28,8,0,-1,-13
1501879374108661,-2,4,7,-4,-11,-3,-2,5
1501879374108661,11,27,19,16,15,1,14,31
1501879374123660,-4,-41,-30,-23,-8,-3,-9,-8
1501879374123660,-11,-6,-10,-16,-19,-3,4,11
1501879374125662,-6,-4,-25,-5,15,-5,-12,-36
1501879374125662,3,4,5,4,-19,2,5,13
1501879374137661,1,-14,0,-15,5,-1,6,32
1501879374137661,-2,10,13,19,9,4,-3,-43
1501879374146662,7,18,6,-4,-16,-5,-7,14
1501879374146662,-5,-6,-13,12,-12,-2,-5,-6
1501879374161661,7,2,4,-29,17,-3,9,43
1501879374161661,-6,8,30,82,20,-5,-18,-74
1501879374162663,0,2,-38,-47,-34,0,5,-1
1501879374162663,4,-18,3,20,42,13,4,7
1501879374182665,-6,-10,-3,-20,-26,-5,-3,-3
1501879374182665,5,12,-4,10,10,2,11,34
1501879374191666,-6,-13,20,8,-10,-5,-8,-19
1501879374191666,0,6,-21,-24,-3,0,-5,-12
1501879374213667,2,11,0,20,5,1,6,14
1501879374213667,-2,4,4,-7,-3,2,-5,-23
1501879374215666,2,15,15,-3,3,0,2,11
1501879374215666,8,14,-13,-8,-1,0,6,22
1501879374221667,-4,-11,-30,18,5,-3,-9,-30
1501879374221667,1,9,13,-4,-1,1,5,9
1501879374222666,2,1,6,7,-16,3,1,4
1501879374222666,-2,17,27,21,29,1,3,5
1501879374243669,0,-2,-7,-1,-21,-5,4,-1
1501879374243669,-5,-9,-16,-14,-13,-5,-12,-13
1501879374245669,0,-6,-4,17,13,2,4,11
1501879374245669,-5,-3,5,-12,-3,-5,-7,13
1501879374266670,1,4,-4,-7,-1,5,-1,-1
1501879374266670,4,6,13,9,5,-4,-4,7
1501879374267669,-10,-13,-40,-19,-19,-2,0,3
1501879374267669,-3,-4,-18,-5,-21,-5,-8,-25
1501879374281672,-3,-10,14,9,11,-2,-1,1
1501879374281672,4,35,5,-12,-3,-2,10,32
1501879374282670,3,-28,27,21,25,5,-4,-33
1501879374282670,1,0,-4,17,-1,-3,-5,-3
1501879374303670,-1,9,15,-37,5,6,1,15
1501879374303670,5,-12,-1,17,-5,-2,0,-21
1501879374305672,5,6,-8,-3,11,-2,8,23
1501879374305672,-3,-8,-13,-17,-24,-2,0,2
1501879374326674,-4,-7,3,49,2,0,1,-13
1501879374326674,0,5,-8,-52,-2,5,6,29
1501879374332673,1,4,20,-5,-3,-5,-8,5
1501879374332673,-10,-30,-18,5,-10,0,-5,-30
1501879374340673,-1,17,26,30,12,0,-5,-2
1501879374340673,3,11,-48,-24,-12,-1,0,14
1501879374348675,2,-1,9,6,1,0,5,-1
1501879374348675,-6,-24,11,-1,10,2,-1,-2
1501879374363675,0,-5,-15,-19,-31,-5,-4,-27
1501879374363675,-3,4,13,4,27,1,-2,0
1501879374369676,-2,-5,-20,-22,0,-2,-2,-2
1501879374369676,2,8,-5,14,15,2,0,18
1501879374393678,-8,4,-8,-12,-17,-4,-7,-40
1501879374393678,0,3,14,12,5,1,-1,-9
1501879374395677,-5,-22,-4,5,-27,-9,1,14
1501879374395677,-3,20,-2,-56,19,1,-11,-38
1501879374400679,0,-17,-14,-11,-6,-3,0,24
1501879374400679,-3,-6,-4,15,-3,-2,-7,-24
1501879374407679,-1,7,14,23,6,6,5,7
1501879374407679,4,13,16,21,-7,-3,0,-18
1501879374423692,-1,-3,6,-16,4,3,10,37
1501879374423692,-5,-29,-39,-20,1,-8,-16,-51
1501879374425679,-3,16,-5,22,5,3,2,0
1501879374425679,6,-4,-6,-15,-12,1,1,21
1501879374446683,0,9,13,-25,3,-4,-4,-13
1501879374446683,3,-11,23,40,-1,1,8,29
1501879374447680,-2,13,-4,-13,13,3,-6,-17
1501879374447680,1,18,18,33,-22,-6,-1,-6
1501879374460684,2,-12,-16,-26,19,6,7,6
1501879374460684,-6,-7,-16,-3,-5,-9,-13,1
1501879374468686,3,-4,-22,-18,1,-1,-3,-10
1501879374468686,0,4,12,5,-15,-1,5,22
1501879374483681,2,16,2,20,-9,-3,-3,-3
1501879374483681,-6,-29,9,-4,-5,-3,1,16
1501879374491683,1,11,23,4,4,0,0,-19
1501879374491683,-2,-24,0,17,13,-3,-3,6
1501879374506706,-4,-11,-16,-53,-24,-1,-3,-12
1501879374506706,-3,-7,-13,-14,3,-2,0,1
1501879374507691,5,11,16,8,-9,-4,2,28
1501879374507691,0,0,-17,-17,5,-2,-1,-8
1501879374520685,-2,-9,0,35,7,0,1,-4
1501879374520685,3,15,-1,-23,6,6,3,-4
1501879374527698,-4,-4,-2,-3,-14,-2,2,11
1501879374527698,-4,9,5,-11,11,-1,-3,-13
1501879374543685,-4,-9,17,46,3,-3,-9,-11
1501879374543685,2,8,-13,-14,-11,3,5,6
1501879374545685,-1,-3,-19,-1,12,-2,-4,-5
1501879374545685,2,-5,-8,-10,-8,-3,3,2
1501879374566688,-2,16,-8,-35,-24,-1,-2,5
1501879374566688,5,11,35,38,13,3,3,3
1501879374567686,-12,-28,-24,-54,4,-2,-5,-23
1501879374567686,-1,-18,-34,15,-7,-1,5,32
1501879374580687,0,-8,19,54,8,-2,0,-19
1501879374580687,7,-14,-36,-89,-21,-2,0,15
1501879374587688,-7,29,26,25,-16,-1,-3,-50
1501879374587688,2,-12,-36,-23,11,-3,2,-8
1501879374603726,0,12,5,-25,0,-2,-2,34
1501879374603726,-14,-8,29,29,16,-1,-7,-37
1501879374605689,-2,-15,-40,24,-8,-2,-1,13
1501879374605689,-8,-3,22,43,-8,1,-15,-39
1501879374626688,8,13,-1,5,5,-2,10,0
1501879374626688,7,-22,-25,-30,-4,-4,-2,27
1501879374628691,-11,4,15,-8,6,0,10,-11
1501879374628691,1,-11,-4,4,2,-3,-6,18
1501879374640694,-2,-10,-12,19,-4,1,-3,-17
1501879374640694,2,14,-30,-49,-7,-1,-6,8
1501879374648691,1,-22,17,35,-10,-3,-7,20
1501879374648691,4,13,31,-2,-4,-2,11,26
1501879374663693,-7,21,44,4,31,4,-12,-33
1501879374663693,-1,-16,-28,27,-41,0,2,-3
1501879374665692,-3,-23,-68,-41,21,-3,-5,7
1501879374665692,-3,-17,7,-39,-5,-1,0,-6
1501879374686693,2,-7,1,20,1,0,-1,-6
1501879374686693,-9,7,28,35,1,0,4,10
1501879374692697,12,32,27,21,13,-1,0,12
1501879374692697,-2,-4,1,7,-13,-1,-6,-13
1501879374699693,4,-5,-23,-22,-1,0,2,3
1501879374699693,-9,-4,24,25,2,-3,-1,12
1501879374708695,-9,2,10,-9,-13,-5,-8,-11
1501879374708695,4,16,-8,-30,12,1,-2,-18
1501879374724696,-2,-15,-53,-33,-16,-4,-2,-5
1501879374724696,9,12,16,56,1,2,0,11
1501879374725696,0,-1,28,-12,9,0,0,0
1501879374725696,-1,3,6,7,-14,-1,0,1
1501879374746697,-6,-13,-11,-7,10,-6,-3,15
1501879374746697,1,20,2,-46,23,5,3,-8
1501879374747697,1,-4,28,37,-11,1,4,-2
1501879374747697,-3,14,-21,34,1,0,0,0
1501879374759701,-3,-16,13,-5,-26,-1,2,11
1501879374759701,7,28,4,-24,14,-1,2,27
1501879374768698,0,-21,-7,-13,-20,-3,-4,-59
1501879374768698,-6,4,10,24,17,2,2,7
1501879374783700,-4,-13,-4,-18,-5,-2,-9,-8
1501879374783700,-4,1,-13,8,-19,-6,-5,-15
1501879374791701,6,-10,4,-5,22,3,3,32
1501879374791701,-1,4,-4,-42,2,3,3,-10
1501879374806700,6,16,-6,41,-4,-2,0,-17
1501879374806700,-8,-25,-1,-44,-1,-1,0,4
1501879374807700,4,24,-10,13,-16,-5,1,18
1501879374807700,-4,-24,1,-36,-1,-3,-4,-24
1501879374819715,-5,8,21,25,13,1,3,10
1501879374819715,-3,-7,4,-1,-8,0,1,-6
1501879374828713,3,11,8,1,3,-2,-2,-5
1501879374828713,-1,5,5,-13,3,2,3,31
1501879374843704,4,-11,7,-6,-1,1,-5,-9
1501879374843704,-8,4,16,30,-8,-4,-2,-17
1501879374845703,0,-10,-52,-14,-6,-6,-6,7
1501879374845703,-9,-12,-22,-28,6,-1,-3,-8
1501879374866704,-2,-10,-3,-22,-12,-3,1,13
1501879374866704,4,24,8,17,12,1,-3,-8
1501879374867704,3,-1,12,-29,-4,1,0,13
1501879374867704,-1,6,-5,6,-9,-6,0,8
1501879374879705,2,2,-1,4,-10,-4,-1,8
1501879374879705,-4,-10,-12,2,9,1,-1,0
1501879374888706,-2,17,-16,-14,-1,4,8,-6
1501879374888706,2,-9,2,16,-8,-3,-12,-19
1501879374904709,-2,1,-16,7,3,0,-1,-4
1501879374904709,-1,-20,19,17,-16,-1,3,16
1501879374909708,-2,12,7,33,15,2,4,-10
1501879374909708,2,-10,-3,-39,-2,2,-5,-14
1501879374926714,-1,11,-19,-29,-1,-7,-3,-1
1501879374926714,3,9,4,-13,-13,4,0,15
1501879374928717,-6,-17,-12,12,26,2,-2,-2
1501879374928717,4,8,19,27,2,1,2,2
1501879374939708,-4,1,-10,-20,-14,-6,-2,-1
1501879374939708,2,-8,-13,4,-7,-8,-5,-5
1501879374948709,-8,5,19,-9,-4,1,-1,-21
1501879374948709,8,5,12,31,7,4,5,12
1501879374963709,-2,-8,-11,-25,6,4,-4,5
1501879374963709,0,-2,-9,17,16,-1,-2,-10
1501879374965710,-3,-9,12,-4,-15,2,-6,-9
1501879374965710,-2,-8,3,-10,-3,-3,0,25
1501879374986714,8,34,15,11,6,4,5,0
1501879374986714,-11,-54,-22,-4,-27,-4,-2,-8
1501879374987711,2,0,2,-19,14,-5,-2,26
1501879374987711,-5,-2,-15,12,-2,-2,3,-5
1501879374999711,9,10,33,15,26,6,5,0
1501879374999711,-2,-5,-15,-1,-7,-1,-9,-23
1501879375008714,-4,-19,-15,-4,-8,-3,-3,5
1501879375008714,-4,3,20,-10,-11,-5,-2,3
1501879375023719,-8,-16,-13,-3,-4,-1,-1,-10
1501879375023719,8,25,8,4,2,-3,-2,-2
1501879375025713,-4,-2,4,-1,-9,0,0,5
1501879375025713,9,17,-4,5,8,-1,3,11
1501879375046715,-12,-5,17,-1,-11,-4,-3,-20
1501879375046715,9,15,-1,9,16,5,4,7
1501879375047715,-7,-7,-46,-19,-20,-9,-4,0
1501879375047715,-2,-9,-9,-20,12,3,0,3
1501879375059717,1,8,-15,-4,-3,-1,1,6
1501879375059717,1,-4,23,5,1,-5,-3,-9
1501879375068716,2,10,19,28,2,2,-1,0
1501879375068716,-3,1,-5,21,-3,-2,0,1
1501879375083719,-1,-9,-3,-17,-4,-3,0,6
1501879375083719,-1,9,0,26,2,-5,0,2
1501879375085717,8,26,16,-12,6,1,-4,2
1501879375085717,-8,-12,-5,18,-31,-6,-8,-21
1501879375105718,-6,-45,-33,-6,20,8,0,15
1501879375105718,-4,-9,-6,-12,-7,-3,0,-1
1501879375113718,-3,12,-5,13,10,-1,-1,-13
1501879375113718,1,-3,5,-7,12,0,-2,-5
1501879375119719,0,-5,5,9,-4,-2,3,41
1501879375119719,1,7,3,-3,4,2,9,-62
1501879375129720,0,-15,2,5,4,-1,-13,15
1501879375129720,-5,18,5,-10,16,6,-3,-24
1501879375143722,0,2,5,-16,-11,1,0,-19
1501879375143722,-8,-29,-10,32,8,-2,-1,33
1501879375145720,-4,8,-13,-38,-24,-5,3,-7
1501879375145720,-6,-2,0,4,-7,-2,-5,-5
1501879375166723,4,13,12,5,7,-2,-3,2
1501879375166723,3,11,9,4,4,2,-1,8
1501879375167721,3,-1,-14,12,-4,-2,4,6
1501879375167721,3,-8,-3,6,-19,-4,5,26
1501879375188723,1,23,1,-37,21,6,-5,-40
1501879375188723,-3,17,8,6,3,-4,-4,0
1501879375190725,-7,-51,-18,-17,10,4,-4,3
1501879375190725,-2,-3,-2,18,-25,-6,0,-3
1501879375203724,2,-3,-17,-39,-5,-5,1,22
1501879375203724,1,26,0,-20,3,-2,-1,-19
1501879375205725,3,-9,31,14,1,1,4,-9
1501879375205725,-4,-9,-4,-16,-12,-6,-2,-8
1501879375225725,2,-1,-5,43,0,-2,-3,22
1501879375225725,-3,-4,-3,-18,-1,4,-2,-10
1501879375227724,0,2,-5,0,-14,-1,3,-6
1501879375227724,2,-9,4,6,23,0,-3,-3
1501879375248726,-3,18,5,11,-13,-4,4,-5
1501879375248726,-2,-29,-5,-18,5,3,-8,7
1501879375250728,4,15,16,7,10,3,2,-1
1501879375250728,-1,8,-23,-10,-36,-8,-8,-10
1501879375263727,0,-8,10,10,2,0,9,29
1501879375263727,2,2,14,55,20,1,6,8
1501879375265728,-2,8,0,-61,-14,-3,-1,17
1501879375265728,-2,-13,7,-12,21,1,-14,-18
1501879375285729,-5,-6,-17,15,-17,-2,-5,-13
1501879375285729,-4,5,3,-2,-7,1,0,-5
1501879375287728,2,-12,-5,80,2,-4,0,8
1501879375287728,2,16,8,-13,12,-2,6,14
1501879375308732,-5,-9,-9,-16,1,-2,-6,-23
1501879375308732,-4,-8,10,-1,1,1,2,20
1501879375310732,2,10,18,-20,-3,2,0,-35
1501879375310732,3,-4,-31,9,-3,1,2,4
1501879375322746,-10,-13,8,5,-2,-4,-5,-35
1501879375322746,2,1,1,0,-16,-5,-2,28
1501879375329737,5,18,6,-4,10,-1,-5,-32
1501879375329737,1,15,20,37,5,4,18,34
1501879375345733,0,-14,3,-7,0,-2,11,25
1501879375345733,-5,12,-5,-16,-25,-7,-14,-39
1501879375347731,2,-9,4,1,15,0,-3,27
1501879375347731,-8,21,9,-11,2,-1,-4,-53
1501879375369735,0,-6,-3,37,-1,2,-1,4
1501879375369735,2,0,-25,-46,-11,-3,-4,14
1501879375370733,1,-10,-14,20,8,-2,1,13
1501879375370733,-9,-16,4,25,-7,1,-4,-6
1501879375383737,4,16,-21,-37,-11,-7,-2,-16
1501879375383737,-6,19,2,29,-8,-3,-8,-4
1501879375391737,6,-19,-12,-48,-1,2,-3,-5
1501879375391737,-4,-1,19,20,12,2,6,1
1501879375406768,1,2,6,23,2,5,-4,-2
1501879375406768,-1,-10,2,-2,2,-3,-1,9
1501879375407760,-8,5,-21,-26,-11,-1,1,6
1501879375407760,2,14,11,-1,0,-5,-2,-2
1501879375428739,9,-21,-11,-19,-12,-1,1,5
1501879375428739,2,-4,19,-1,13,-1,-9,-6
1501879375431739,-4,-11,-3,24,-2,2,16,4
1501879375431739,-2,-17,2,-12,-9,-4,-1,20
1501879375442741,1,9,2,10,15,1,-3,17
1501879375442741,4,9,5,28,21,8,9,-30
1501879375449737,-8,-21,-4,-42,-13,-1,-7,-18
1501879375449737,-2,7,-11,-16,4,-1,-5,15
1501879375466740,5,4,-1,-11,-16,1,4,10
1501879375466740,-5,8,17,28,3,-2,-2,-32
1501879375468740,-4,6,-12,-62,-10,-4,-4,-7
1501879375468740,-3,-25,0,-10,5,-1,0,-10
1501879375488755,-2,-10,-10,11,-18,-4,-7,15
1501879375488755,-2,-5,-31,-52,8,1,3,17
1501879375490740,2,19,15,33,-4,-2,0,-4
1501879375490740,7,22,26,29,0,0,-7,11
1501879375511741,-6,6,-18,-1,-2,-2,1,-9
1501879375511741,-3,-29,-6,-27,-15,0,1,-4
1501879375512745,0,1,-21,34,-4,-5,-8,22
1501879375512745,-3,-13,-6,-36,-7,-4,-4,-8
1501879375525745,3,0,10,11,10,-1,-3,-16
1501879375525745,-2,5,0,-10,-11,-1,6,30
1501879375527742,-7,5,16,23,18,-3,-2,-6
1501879375527742,6,-17,-11,-13,-2,3,6,-11
1501879375548743,-13,-7,19,35,-1,-5,-6,-9
1501879375548743,-1,-14,-15,-3,0,1,3,6
1501879375550748,2,10,22,20,-6,-2,-3,-13
1501879375550748,-2,-19,-10,-24,2,-1,0,13
1501879375562744,-2,4,-8,3,6,5,1,-18
1501879375562744,5,-2,-19,-57,8,-1,0,19
1501879375569764,0,22,16,16,0,3,10,15
1501879375569764,-1,9,1,2,-9,-3,-10,-31
1501879375585748,1,-3,12,-8,5,1,1,-1
1501879375585748,1,-4,-3,41,4,-4,-2,15
1501879375587746,-8,-2,-15,-21,-19,2,3,-26
1501879375587746,-3,1,-17,-15,2,-1,-2,-14
1501879375608786,2,9,10,8,-3,-5,-6,11
1501879375608786,3,6,14,10,3,2,8,0
1501879375610751,-2,-14,3,11,6,-3,-4,-8
1501879375610751,2,-8,-16,34,0,5,7,18
1501879375622767,-7,-19,-11,-39,2,-5,-2,-5
1501879375622767,-3,12,1,3,-19,-11,-5,10
1501879375629748,7,-7,5,-1,16,8,-3,-9
1501879375629748,7,15,3,-3,-13,2,2,-9
1501879375645771,-6,-19,-3,2,3,-2,0,13
1501879375645771,0,1,-10,-13,2,-2,-1,-10
1501879375653752,-7,-19,9,2,-11,-6,-3,8
1501879375653752,0,18,3,12,-4,0,0,13
1501879375668797,6,6,-9,4,12,2,7,19
1501879375668797,-6,-8,1,-24,-18,-6,-5,-48
1501879375670770,0,-21,-26,18,6,-1,-4,-4
1501879375670770,-6,-18,-2,-37,8,2,2,-8
1501879375682752,4,20,10,5,-12,-3,-4,-4
1501879375682752,-6,10,1,15,4,3,-1,9
1501879375691755,8,10,2,-15,-5,0,4,18
1501879375691755,-1,1,-9,2,2,-5,-3,2
1501879375706810,-2,6,17,-5,4,4,-2,3
1501879375706810,0,-1,12,7,14,5,1,-24
1501879375712753,-4,-12,-35,5,-20,-4,-4,-9
1501879375712753,8,11,11,11,17,-4,7,38
1501879375728773,0,3,-2,25,-1,5,-6,-19
1501879375728773,3,-4,9,-39,9,3,-1,13
1501879375730754,-6,14,-18,-5,-9,-2,-1,-3
1501879375730754,-4,-12,-4,-14,-9,-6,-5,-20
1501879375742756,1,3,1,0,-13,-7,0,1
1501879375742756,5,4,1,23,8,2,1,7
1501879375751756,13,18,20,6,2,0,10,61
1501879375751756,-18,-16,-13,-12,-18,-3,-15,-80
1501879375765775,-2,-31,-17,-15,4,-4,-5,14
1501879375765775,-4,-1,-3,20,6,3,3,-8
1501879375767756,-1,-3,8,-7,3,0,-4,2
1501879375767756,4,6,-8,6,-1,-1,4,23
1501879375788815,-3,6,-3,-11,-6,0,-1,-24
1501879375788815,1,7,-5,2,-7,-4,-1,9
1501879375790795,-4,-22,10,-2,-7,0,-3,-4
1501879375790795,6,14,40,44,13,3,1,11
1501879375802781,-5,-8,-40,-83,-14,-5,1,-18
1501879375802781,8,2,-1,8,-2,-2,2,38
1501879375811762,6,-36,-3,-5,-4,-5,-7,2
1501879375811762,-9,6,8,0,-6,0,-8,-24
1501879375833780,4,-2,-4,33,10,-2,0,4
1501879375833780,-5,-4,-2,-8,-1,4,-1,-27
1501879375835780,2,11,12,-1,-3,-2,1,13
1501879375835780,0,-8,-15,-13,-5,-3,1,16
1501879375848764,-3,4,17,4,-1,2,-2,-24
1501879375848764,0,15,-6,3,-16,-6,-3,33
1501879375856779,-3,-8,33,-5,25,4,1,-13
1501879375856779,4,0,-46,8,-17,-4,3,13
1501879375862766,2,25,5,-20,6,-1,2,22
1501879375862766,-13,-34,-4,11,-2,-1,-12,-48
1501879375871768,0,32,-3,-16,-8,0,-4,-13
1501879375871768,-1,-10,12,6,12,4,-1,-6
1501879375885766,-1,-16,1,6,-8,-2,-2,14
1501879375885766,5,-2,-12,-10,-1,-5,1,23
1501879375887763,-11,9,-12,19,-2,1,-2,-36
1501879375887763,4,-10,-7,-8,8,1,6,18
1501879375908800,-1,14,27,23,8,4,-3,-18
1501879375908800,2,18,-20,24,7,0,3,17
1501879375910766,-1,-10,-12,-23,-8,-3,-3,-5
1501879375910766,-8,-15,-21,-26,-10,1,0,25
1501879375922828,-1,-14,5,1,-5,0,-3,-12
1501879375922828,6,25,21,14,12,5,5,-21
1501879375931786,-5,13,-6,6,-10,-4,-4,-12
1501879375931786,6,-27,3,4,10,-3,0,41
1501879375945803,5,-10,19,25,10,-2,-6,-4
1501879375945803,-11,-4,-8,-36,-19,1,-3,-4
1501879375947766,3,12,-11,39,9,1,2,6
1501879375947766,-2,9,4,-20,-4,3,-1,-27
1501879375968781,-3,6,-2,7,-14,-6,-2,0
1501879375968781,2,-15,7,4,13,-1,1,0
1501879375970780,6,28,10,-7,-5,0,7,13
1501879375970780,-11,-9,0,0,3,0,-12,-35
1501879375982769,-6,-1,-13,-10,-2,-2,1,4
1501879375982769,-3,-9,-6,-11,-12,-3,-2,-5
1501879375991773,4,-8,0,-1,4,-3,3,13
1501879375991773,1,-12,5,4,8,-3,-4,-9
1501879376006798,0,22,-8,3,-2,1,1,-2
1501879376006798,-4,-47,23,27,-7,-5,-6,-14
1501879376012772,-6,1,-10,-4,1,-2,-6,6
1501879376012772,3,10,-5,-6,-3,0,4,1
1501879376027772,-2,5,-9,-16,-6,-2,0,-1
1501879376027772,3,3,0,-1,-9,6,1,2
1501879376036773,1,-11,5,-3,19,1,2,4
1501879376036773,-2,20,-4,2,-3,-2,-2,-14
1501879376042776,1,-32,-8,1,-4,-1,2,18
1501879376042776,-3,1,-4,6,-3,-4,-2,-3
1501879376059774,-6,-5,0,-10,-10,-2,-6,-24
1501879376059774,11,6,9,4,3,0,6,40
1501879376065774,0,6,2,0,0,-2,0,-10
1501879376065774,-3,-26,-2,0,-1,1,-1,0
1501879376067775,-9,-11,-24,-62,-4,-2,-3,8
1501879376067775,-5,0,12,6,9,1,-4,-30
1501879376088775,-3,9,-8,0,3,2,1,-8
1501879376088775,5,24,4,-19,7,-2,-6,-7
1501879376090776,5,-19,-11,13,-9,-1,-3,-6
1501879376090776,-8,17,6,12,-13,-6,-2,6
1501879376110778,-5,-19,-5,-14,0,-4,-8,-10
1501879376110778,-3,5,-17,-9,3,6,6,1
1501879376112777,1,-1,0,-3,-2,-5,-2,0
1501879376112777,9,-10,6,-14,-12,1,1,-2
1501879376126779,-8,2,19,22,1,-2,-5,-13
1501879376126779,2,-7,0,-3,5,-2,2,19
1501879376127785,-6,9,-10,44,-7,0,0,-12
1501879376127785,0,-8,-24,-92,-15,-2,0,7
1501879376148779,5,5,-3,-9,6,1,-1,2
1501879376148779,-3,7,7,29,-2,-3,1,-6
1501879376150780,-1,22,21,12,9,1,-1,-10
1501879376150780,-8,-22,-8,10,-5,-3,-6,-1
1501879376169780,5,10,6,8,-1,0,5,5
1501879376169780,-10,-6,-16,-25,-9,-6,-6,-9
1501879376178800,7,-4,5,-9,-6,1,2,2
1501879376178800,1,13,-5,39,13,2,2,2
1501879376185783,-7,-21,7,-3,-6,-1,-2,9
1501879376185783,8,21,9,15,13,0,5,11
1501879376187780,0,10,-14,0,3,1,-3,-12
1501879376187780,-6,8,2,-9,-16,-4,1,0
1501879376208782,-3,-11,-2,-6,14,5,3,-9
1501879376208782,2,-2,13,-3,-5,-1,-1,5
1501879376210785,-1,-1,-12,-26,-2,0,0,6
1501879376210785,1,7,-6,37,3,0,0,15
1501879376230790,2,11,0,5,-14,-5,-1,-2
1501879376230790,-11,-22,7,-6,9,-3,-3,-38
1501879376233783,-7,-31,-2,-11,-13,-5,-6,-4
1501879376233783,-3,-29,0,32,4,0,-2,-6
1501879376245784,-1,12,13,2,-6,1,5,15
1501879376245784,5,11,-30,-38,4,-1,-1,7
1501879376252785,-8,-15,-15,-17,-4,0,-3,-5
1501879376252785,2,12,5,-3,-7,-2,1,4
1501879376268801,2,0,-4,14,6,0,-1,3
1501879376268801,1,7,22,23,-13,-2,-1,-1
1501879376270789,9,-9,14,11,13,0,9,20
1501879376270789,-12,1,-31,-14,-11,-7,-6,3
1501879376291786,-2,11,-7,-21,-1,-1,-4,-16
1501879376291786,-6,-13,-12,-2,1,1,-3,10
1501879376298788,0,-8,6,7,-8,2,0,1
1501879376298788,-1,-7,10,-10,3,2,5,8
1501879376305787,13,12,7,6,1,0,2,8
1501879376305787,-13,-2,-14,6,-4,-1,-6,-26
1501879376312790,-5,-1,-4,-8,3,2,1,-9
1501879376312790,5,1,-2,-4,9,-6,-1,2
1501879376329790,-2,-3,-10,3,1,1,-3,6
1501879376329790,-1,-9,-3,-13,-8,-1,-6,-17
1501879376331792,4,28,12,13,0,-3,1,8
1501879376331792,-2,-19,9,3,-21,0,-2,-15
1501879376350792,-3,-5,-6,7,17,1,2,22
1501879376350792,1,11,-31,-21,0,-3,0,-24
1501879376352795,8,7,21,13,24,2,3,-1
1501879376352795,0,-5,4,1,-3,5,2,-3
1501879376365794,-7,-14,-9,14,2,-2,-2,-4
1501879376365794,4,-9,8,4,-3,2,-1,21
1501879376372802,-5,3,-6,3,-10,-4,-3,-14
1501879376372802,2,12,11,-9,5,1,0,-26
1501879376388793,0,-3,-6,-9,-4,-2,-4,-11
1501879376388793,2,-11,-8,1,6,0,5,17
1501879376390792,-5,-11,-5,-9,-8,2,-2,-14
1501879376390792,-6,1,2,1,5,-3,-9,0
1501879376410796,-6,-14,-9,-3,-15,-4,-6,-28
1501879376410796,4,24,8,4,1,-3,1,22
1501879376412795,-10,-27,-3,-2,-13,-4,-3,7
1501879376412795,4,8,8,-3,2,0,3,-2
1501879376425798,0,-3,-1,-3,12,0,-4,-3
1501879376425798,0,21,-1,6,-8,0,4,10
1501879376433795,2,-14,-3,10,-4,-2,2,-19
1501879376433795,1,8,-6,-15,18,4,-1,2
1501879376448796,-7,-1,-6,-13,-18,-7,-6,-2
1501879376448796,5,-5,8,-8,3,3,5,21
1501879376449798,-2,13,1,3,-9,-4,-3,12
1501879376449798,1,7,16,21,6,0,-2,-40
1501879376470801,0,-3,-1,-20,1,0,1,4
1501879376470801,-4,-4,-15,-29,-13,-2,-3,-2
1501879376478798,1,18,-9,4,4,-5,-7,-12
1501879376478798,2,-13,-4,0,5,0,1,25
1501879376485798,1,-2,13,1,2,1,4,8
1501879376485798,-4,3,8,17,-2,-1,-2,-3
1501879376492797,0,0,-2,-19,-18,-1,-3,9
1501879376492797,-11,-14,-7,-4,4,-3,-2,-21
1501879376508814,3,7,0,-5,-1,-2,-2,-7
1501879376508814,0,-9,-3,8,-6,-3,-4,-4
1501879376510799,0,0,6,4,10,1,0,7
1501879376510799,1,13,0,4,-10,-1,1,20
1501879376530801,3,-6,-5,-2,-3,-1,2,7
1501879376530801,-4,-2,3,-10,-11,0,-5,-32
1501879376532801,-1,-15,21,11,13,-3,-3,20
1501879376532801,6,14,5,-18,2,5,5,7
1501879376545806,-8,-10,-10,26,-10,-2,0,8
1501879376545806,2,12,15,6,2,-3,-2,3
1501879376552801,-4,-20,-8,3,-13,-3,-2,-20
1501879376552801,2,-8,-5,-10,10,3,4,23
1501879376568817,-1,-1,3,10,8,-5,0,-17
1501879376568817,-1,-16,-7,-9,-1,1,1,-3
1501879376570802,2,24,13,4,7,1,0,9
1501879376570802,1,-1,-8,3,-8,-1,-3,-5
1501879376590819,2,14,16,-6,1,-1,-1,11
1501879376590819,-7,-27,-34,-3,-5,-1,-2,-36
1501879376598806,6,2,0,-2,3,0,9,24
1501879376598806,2,5,1,0,0,-7,-10,-13
1501879376604804,-4,-1,-11,-3,-7,3,-1,17
1501879376604804,0,-1,8,5,-4,-1,-2,-10
1501879376621806,0,0,-3,-1,-9,-1,7,17
1501879376621806,-11,-11,-28,-9,7,-5,-11,-31
1501879376628822,0,-14,3,14,4,5,0,-1
1501879376628822,7,19,6,6,5,-2,1,21
1501879376630809,0,1,-12,-21,-3,3,3,9
1501879376630809,-4,13,7,1,-15,-4,-5,-27
1501879376650809,0,8,-15,-10,-3,-5,4,3
1501879376650809,3,-4,3,-1,6,1,-8,-28
1501879376652808,-5,3,4,-4,-6,-3,-7,4
1501879376652808,-4,5,18,14,-1,1,6,14
1501879376664809,4,10,-19,-17,0,1,4,26
1501879376664809,1,-21,4,-10,4,-3,-2,6
1501879376673809,-4,-8,-10,-1,-9,-4,-4,-11
1501879376673809,2,1,4,32,24,5,2,-12
1501879376688809,-4,2,8,-26,-9,2,-4,-4
1501879376688809,-7,-1,4,-12,-12,-2,1,12
1501879376689814,1,15,-8,6,10,0,-5,-23
1501879376689814,9,-1,-4,6,-15,-3,6,20
1501879376710813,-1,-10,9,-1,-2,-4,-8,-37
1501879376710813,-2,21,-32,-1,4,2,4,29
1501879376712811,8,1,20,15,-4,-5,-6,16
1501879376712811,-17,-24,-25,-54,-4,0,-9,-59
1501879376724812,0,-1,13,7,-2,-2,4,-5
1501879376724812,-1,13,12,-13,2,-2,-4,10
1501879376733814,-2,-2,-13,32,15,-1,1,-15
1501879376733814,4,10,-16,-17,-36,-4,1,16
1501879376748814,-3,-13,3,-9,2,0,-4,4
1501879376748814,5,9,16,25,10,2,12,19
1501879376750814,-13,-10,-25,-32,-18,-3,-10,-2
1501879376750814,1,-1,15,-2,12,-3,-6,8
1501879376770820,-2,-4,0,26,2,-1,-3,-14
1501879376770820,1,-7,18,26,-8,-3,3,-1
1501879376772815,1,2,-5,0,6,5,6,27
1501879376772815,5,6,15,-3,-9,-4,2,13
1501879376784816,8,6,-34,-3,-6,-1,1,6
1501879376784816,-1,-8,-2,-5,4,-4,-2,-10
1501879376793816,-9,-28,3,-18,-8,0,-4,-14
1501879376793816,-2,4,28,29,4,1,3,22
1501879376808831,4,1,-22,-47,-15,-5,-3,-24
1501879376808831,-7,-5,-8,-14,20,5,0,-2
1501879376810817,-7,-24,-14,7,-2,-2,-5,-29
1501879376810817,5,10,7,17,2,0,-1,3
1501879376830820,0,-10,12,14,3,1,3,9
1501879376830820,-1,-6,-12,-8,-1,-4,-3,16
1501879376832818,-4,7,19,-5,8,1,4,-37
1501879376832818,3,-1,-18,-3,2,1,0,12
1501879376844818,4,13,9,9,0,0,5,2
1501879376844818,-3,-3,-4,-17,-14,-3,-10,-12
1501879376853824,-4,-10,12,39,20,3,1,-8
1501879376853824,2,-8,-11,-25,-6,-2,2,21
1501879376868822,-9,9,-12,-17,4,1,-7,-17
1501879376868822,6,-19,14,18,-5,1,0,10
1501879376870826,-2,24,-15,-20,-12,-3,-1,20
1501879376870826,-5,-19,-8,23,24,-2,-3,-8
1501879376890835,0,-8,20,-7,-5,-1,7,33
1501879376890835,-3,6,-15,-1,3,-1,-6,-47
1501879376892825,5,17,2,31,-1,1,-4,-2
1501879376892825,-1,-15,-16,-76,-20,-3,0,7
1501879376904823,-1,8,18,23,12,3,1,0
1501879376904823,1,-6,-3,1,-19,-5,0,35
1501879376913823,-3,3,-2,-4,15,-2,-3,-44
1501879376913823,-1,-6,9,19,-4,-1,0,-10
1501879376935825,-2,-10,0,-10,-7,-3,5,21
1501879376935825,-8,-2,-6,-4,-4,-3,-10,-27
1501879376937827,6,33,4,-10,-3,-2,-1,24
1501879376937827,-1,-26,13,29,25,7,3,-2
1501879376950826,1,-10,-33,-12,-10,-5,-3,7
1501879376950826,-2,-4,3,20,4,0,-2,-16
1501879376952826,3,0,3,-19,-18,-4,-2,7
1501879376952826,-2,25,8,11,-2,-2,-4,-11
1501879376964828,2,-10,12,11,5,-1,-2,-15
1501879376964828,-6,2,-4,-6,-9,0,3,31
1501879376973828,0,-11,-3,5,6,3,2,-26
1501879376973828,0,-6,2,-2,-4,1,0,-2
1501879376988828,-12,11,-7,5,-3,-6,-12,7
1501879376988828,3,0,1,-4,-7,-1,0,-13
1501879376990828,-5,3,-2,5,-4,-2,4,26
1501879376990828,2,-3,-17,-13,3,0,2,-7
1501879377010831,3,9,7,15,8,1,-1,-17
1501879377010831,3,-14,11,-8,-13,4,3,27
1501879377012829,-3,-7,-19,3,12,-2,-3,-41
1501879377012829,-7,-7,-1,-4,-22,-4,-5,-2
1501879377033831,-3,-8,0,7,7,-2,-4,-14
1501879377033831,4,22,4,24,2,0,2,32
1501879377034830,2,-13,15,-3,-4,1,3,6
1501879377034830,2,13,-23,-17,-14,-4,1,7
1501879377048832,-6,7,-5,-6,-10,-3,-8,-19
1501879377048832,-3,-15,-4,-7,3,-3,3,4
1501879377050833,-3,-3,-7,-12,10,-2,-11,-16
1501879377050833,-5,-9,1,-12,-7,2,0,7
1501879377071832,5,-1,12,21,5,4,3,15
1501879377071832,-2,20,-6,-6,-12,-1,0,-22
1501879377073833,0,-15,2,3,7,-3,2,14
1501879377073833,-5,12,5,11,7,-4,-7,-24
1501879377100834,3,-18,0,-9,-1,-1,-1,12
1501879377100834,-4,-12,-25,-8,1,0,5,1
1501879377102834,5,0,-1,-2,-12,-2,4,7
1501879377102834,-1,2,-6,-13,2,-1,-9,-26
1501879377108835,2,14,3,-5,-3,2,10,26
1501879377108835,-4,-6,15,5,10,-3,-12,-41
1501879377109835,0,0,-13,-4,-8,-1,1,20
1501879377109835,1,12,-6,-4,-2,-1,1,14
1501879377130837,-4,-12,0,-20,-5,-4,-5,-28
1501879377130837,2,8,2,-4,7,-1,2,9
1501879377132839,-1,11,2,20,-12,-1,-3,-12
1501879377132839,0,-27,-1,-16,1,-3,-4,16
1501879377153838,-5,-21,-11,-12,-6,-1,0,1
1501879377153838,-7,3,27,19,2,0,2,9
1501879377155838,1,-3,-22,-3,24,2,3,23
1501879377155838,-1,-4,-16,-22,-26,-1,1,6
1501879377168838,-6,-4,-13,-2,4,-2,-7,-53
1501879377168838,2,-12,0,-5,-8,-4,-4,-12
1501879377169838,-1,7,17,10,-6,-3,1,11
1501879377169838,1,8,11,30,21,1,8,19
1501879377190840,-3,1,-3,-10,-5,0,-5,-4
1501879377190840,3,9,4,5,1,0,0,15
1501879377192840,3,-11,-6,-16,-7,-3,2,24
1501879377192840,-4,-4,-13,-9,7,3,1,-8
1501879377213841,5,19,20,39,0,1,7,22
1501879377213841,3,9,-6,-45,2,-2,-7,-42
1501879377215842,-6,-11,-8,-16,-2,-4,-6,11
1501879377215842,-1,-15,2,-1,-16,2,2,-22
1501879377227842,-1,-1,0,16,7,2,-2,13
1501879377227842,-2,2,0,4,9,-2,4,27
1501879377242844,7,4,17,4,-10,-1,2,19
1501879377242844,1,13,-1,10,13,5,0,-3
1501879377250843,0,6,-3,-23,-9,-3,2,6
1501879377250843,-3,-20,-9,12,1,-2,0,-5
1501879377252844,-3,-13,1,-4,-22,-2,-3,9
1501879377252844,-3,3,-5,12,17,-4,-4,-17
1501879377273860,3,13,14,2,-3,1,1,10
1501879377273860,3,-1,-6,1,5,0,0,-10
1501879377274847,-3,32,-30,-15,-5,-3,-6,-41
1501879377274847,-2,-21,12,30,-4,-2,-3,10
1501879377287846,-1,-11,-6,-20,12,-1,4,7
1501879377287846,0,9,6,8,-10,-2,-2,-16
1501879377294853,7,1,23,4,18,4,0,15
1501879377294853,-7,-11,-8,22,-13,-7,-7,-14
1501879377311863,4,9,-8,-13,9,4,4,45
1501879377311863,-2,-7,-3,3,1,0,2,2
1501879377312849,0,-1,1,-15,3,1,1,-6
1501879377312849,2,16,0,-17,-14,-4,3,30
1501879377333849,-6,-15,2,20,-11,-7,-8,-35
1501879377333849,-1,-4,-6,-11,12,5,-1,10
1501879377335848,-3,10,2,-3,-2,0,-2,-19
1501879377335848,-7,-2,13,-1,2,-2,-5,-17
1501879377347848,3,5,-1,-10,-27,-1,5,12
1501879377347848,-2,-7,-13,18,7,-8,-4,11
1501879377354863,-5,-14,2,-6,7,2,0,-18
1501879377354863,7,18,-1,2,2,0,4,23
1501879377370864,-4,4,3,9,-9,-1,-1,-36
1501879377370864,-1,-20,-20,-15,-1,-2,-5,3
1501879377372851,-6,-6,17,31,-4,-1,-3,-7
1501879377372851,0,3,-15,-16,2,-4,5,6
1501879377401854,-3,-5,-24,-66,0,-1,-7,-29
1501879377401854,-3,1,10,-2,-8,-4,-3,-12
1501879377408862,0,-7,-8,-23,-11,-2,2,25
1501879377408862,4,7,13,29,14,3,0,-26
1501879377409857,-1,-5,3,17,5,-2,-4,-8
1501879377409857,-2,4,-4,-4,-4,0,2,16
1501879377414855,-1,-5,-3,-7,3,1,-1,-1
1501879377414855,1,4,2,-5,-8,-4,-1,0
1501879377430855,-4,7,1,13,5,0,-5,-23
1501879377430855,-1,-25,-4,-18,-5,1,1,3
1501879377432855,-1,-6,-3,-2,-4,-4,-3,-9
1501879377432855,-8,-14,-5,5,-8,-2,-9,0
1501879377453872,2,8,-7,8,20,0,5,20
1501879377453872,1,-5,2,-1,-9,-1,1,3
1501879377455864,1,3,-6,-12,-4,0,-2,-13
1501879377455864,2,6,6,10,1,1,-1,22
1501879377467872,0,-7,4,8,-2,0,-1,-4
1501879377467872,-1,4,-3,15,1,-1,0,-7
1501879377474857,2,-6,-1,1,-2,1,7,22
1501879377474857,2,21,5,-21,-5,0,-3,-5
1501879377490872,-2,-18,-7,-10,10,0,-2,-6
1501879377490872,3,6,-9,-6,-17,-2,-2,-11
1501879377492859,0,5,10,39,17,0,2,3
1501879377492859,-5,-6,-13,-13,-7,-2,-3,-18
1501879377512859,5,1,20,12,-3,2,-1,25
1501879377512859,-1,19,-9,-12,0,1,-1,-5
1501879377521859,-3,5,-18,-11,-5,-5,-7,-1
1501879377521859,-1,-16,13,-8,-3,-2,2,4
1501879377527863,-5,1,-4,6,0,-4,-4,-6
1501879377527863,0,12,5,-11,-7,-2,-2,-1
1501879377536860,-1,-6,-4,-3,11,-1,2,19
1501879377536860,5,4,-5,1,5,-2,2,-28
1501879377550862,-5,-4,-5,-1,-5,1,-2,-4
1501879377550862,3,4,3,3,-15,0,1,12
1501879377552864,-3,-4,0,0,8,-2,-3,-10
1501879377552864,4,7,0,2,4,0,-2,-5
1501879377573863,-6,-15,-9,-11,-5,-4,2,11
1501879377573863,-5,-2,8,6,1,-3,-1,-7
1501879377575864,1,0,-4,5,2,3,0,-4
1501879377575864,-7,-2,-10,-25,-6,-1,-4,7
1501879377586863,7,1,0,10,-8,-2,5,25
1501879377586863,-2,-6,4,2,12,1,-4,-59
1501879377596865,-1,-7,14,8,-7,1,-4,5
1501879377596865,-3,-6,-11,-7,-4,0,2,4
1501879377610865,1,2,-1,-10,-2,-1,0,3
1501879377610865,-7,-15,0,2,1,-3,0,-22
1501879377612864,4,-1,0,-14,15,-1,-1,-6
1501879377612864,-3,3,-6,14,-5,-6,-3,4
1501879377633866,-1,3,7,-2,-6,0,-1,3
1501879377633866,1,-3,-3,9,0,3,3,0
1501879377634867,-1,5,-9,-26,-10,-3,-1,-4
1501879377634867,-4,-12,-11,-3,-10,-1,-3,4
1501879377647866,-1,3,6,12,8,-1,-3,-19
1501879377647866,-2,6,6,12,7,-4,-7,11
1501879377655881,0,12,6,-2,-8,0,-1,-15
1501879377655881,0,-25,-6,-4,-1,1,2,4
1501879377678870,-2,-5,-10,2,7,-1,2,-4
1501879377678870,1,3,-2,-2,0,-1,0,16
1501879377679885,-2,6,1,-4,-15,-4,-2,-4
1501879377679885,3,3,12,13,12,0,-1,-4
1501879377693884,-3,3,-7,-11,-1,1,-3,-38
1501879377693884,-2,4,2,-6,0,0,1,14
1501879377694883,1,2,-5,14,-15,-3,-1,-1
1501879377694883,-1,-8,3,-7,15,2,1,10
1501879377706880,1,12,-2,-10,-11,-2,-3,-3
1501879377706880,-3,-16,-5,1,8,-1,-1,7
1501879377722880,3,17,8,-4,-7,2,2,-2
1501879377722880,2,3,-22,-3,-8,-3,-2,9
1501879377730871,-5,-11,3,4,7,0,3,-11
1501879377730871,-1,-15,-6,4,-13,-2,-8,4
1501879377732874,-3,-13,4,-11,15,0,-1,9
1501879377732874,1,6,3,2,-1,-1,-3,-4
1501879377753883,-5,3,-2,-4,-4,-2,-3,-14
1501879377753883,2,6,6,-5,-7,-2,3,5
1501879377754872,-1,-1,-9,6,3,-3,0,4
1501879377754872,-5,-9,-4,-2,-2,-1,-7,-35
1501879377767877,-4,12,4,8,3,-4,-5,11
1501879377767877,-1,-11,5,-7,3,3,1,-11
1501879377775874,-2,4,-2,-10,7,1,4,24
1501879377775874,-2,1,0,-1,-7,-2,-2,-20
1501879377790937,1,-11,-14,-16,-9,-2,-2,8
1501879377790937,1,19,2,17,7,0,3,7
1501879377792879,-2,-33,4,2,0,-1,-9,-20
1501879377792879,5,4,-8,-5,-9,2,3,43
1501879377813901,-5,5,20,15,9,2,-10,-54
1501879377813901,7,21,-17,-2,-2,2,3,13
1501879377814876,-5,-5,2,14,-10,-3,4,-9
1501879377814876,-13,-16,5,-30,-2,-4,-10,5
1501879377827902,3,-20,-11,-5,-14,-4,-3,7
1501879377827902,-1,2,5,12,5,-1,-2,2
1501879377835877,-3,5,1,-7,2,0,-1,-11
1501879377835877,3,13,9,18,0,0,5,19
1501879377850878,3,-12,5,6,0,-2,2,16
1501879377850878,-1,-3,-9,-20,-4,-4,-5,-11
1501879377852878,-3,4,-2,17,0,-1,-4,-8
1501879377852878,2,-10,5,-1,6,2,4,6
1501879377873923,2,-5,-5,4,8,3,6,4
1501879377873923,-10,11,1,-7,-1,1,-6,-6
1501879377874883,3,-6,-6,-53,-5,-1,-4,0
1501879377874883,3,28,-6,-6,-18,-4,-4,-12
1501879377887886,-1,1,3,0,7,-4,3,22
1501879377887886,3,-14,-4,-5,-3,-2,0,4
1501879377895881,-11,-20,-1,5,5,-1,0,-51
1501879377895881,1,2,4,15,7,1,0,-4
1501879377910882,4,20,4,-1,-11,-1,0,1
1501879377910882,2,-1,7,3,1,-2,1,4
1501879377912882,-3,-8,-15,-5,-14,-2,-5,5
1501879377912882,-3,4,17,9,5,-1,1,-35
1501879377933882,-1,1,-1,46,1,-1,0,1
1501879377933882,2,-27,-24,-85,-23,-3,5,17
1501879377934903,-6,-2,-16,9,8,-1,-5,11
1501879377934903,1,-6,3,-1,6,-2,-6,1
1501879377955943,-2,21,7,-9,-5,-1,0,11
1501879377955943,0,-8,0,19,-6,-5,-4,-6
1501879377957884,0,5,7,-6,-9,-1,2,0
1501879377957884,-3,-8,-15,-4,12,-2,1,1
