timestamp,emg1,emg2,emg3,emg4,emg5,emg6,emg7,emg8
1501876871610437,-5,-11,-56,-60,-22,-2,-13,4
1501876871610437,10,49,3,37,-6,-4,9,-15
1501876871616399,-6,-28,-9,-20,-20,-11,0,44
1501876871616399,6,-13,61,106,-7,-7,-14,-25
1501876871617413,5,-26,-32,-52,-38,-9,-5,83
1501876871617413,7,82,-10,-76,45,20,8,7
1501876871618398,-22,-17,-4,61,-19,-2,1,-109
1501876871618398,32,83,-41,-104,11,5,11,-7
1501876871629458,-17,9,36,37,-49,-13,-18,34
1501876871629458,-3,-22,14,29,14,-5,-2,29
1501876871637432,12,46,14,-1,36,10,-1,4
1501876871637432,2,6,-2,47,4,8,14,30
1501876871643436,-13,-50,33,28,8,-3,-3,-62
1501876871643436,-8,-11,-43,28,-37,-12,-6,5
1501876871658416,14,-93,-8,5,7,-3,4,34
1501876871658416,4,-18,16,24,15,-10,-7,24
1501876871667431,23,37,-10,17,15,7,-3,-17
1501876871667431,-48,-128,-10,-57,-7,-7,-10,-26
1501876871682440,0,95,17,13,34,18,0,-22
1501876871682440,-12,-24,-1,-21,-35,-7,-2,6
1501876871689463,10,41,16,102,-4,-2,12,6
1501876871689463,-1,28,-19,-87,-27,-9,-12,-46
1501876871703402,11,-32,5,48,10,-7,4,31
1501876871703402,8,-2,-12,-103,-9,9,14,22
1501876871744445,2,-9,16,29,-5,-1,-3,15
1501876871744445,-7,8,13,62,4,-3,-4,-36
1501876871745406,-13,-43,28,4,19,-6,2,5
1501876871745406,6,53,14,-43,19,5,-1,19
1501876871746441,-4,-83,-33,-16,-19,-6,0,-12
1501876871746441,18,29,42,87,30,6,13,35
1501876871749445,-9,-24,-58,-22,-64,-7,2,19
1501876871749445,6,0,39,-68,88,8,-4,-35
1501876871756471,15,57,-16,-53,-13,2,0,20
1501876871756471,-25,-94,8,41,-22,-8,-5,0
1501876871763471,12,-4,0,-10,11,3,3,11
1501876871763471,-9,5,31,26,-24,-4,-2,19
1501876871772414,5,-5,-43,30,-21,-9,-5,-36
1501876871772414,-7,-57,0,3,11,8,11,8
1501876871786471,8,62,15,45,-13,-4,-12,7
1501876871786471,-10,-65,-3,52,-38,-5,-1,-1
1501876871795420,6,72,49,-70,97,15,-3,-30
1501876871795420,-3,-42,-35,-52,-24,-11,-5,11
1501876871817455,-1,52,-24,-10,-4,-5,-9,-18
1501876871817455,-7,-42,-40,12,1,12,8,3
1501876871819413,-4,57,48,43,-19,-8,12,44
1501876871819413,12,-6,-30,-48,1,-3,-10,-38
1501876871831477,-3,-1,60,9,49,6,-3,-11
1501876871831477,12,28,29,9,-40,-6,-2,-3
1501876871838470,-2,-34,-66,1,-9,-4,8,34
1501876871838470,0,46,-7,-14,27,7,-5,-19
1501876871854478,1,37,2,-6,-40,-2,-3,14
1501876871854478,2,-7,-33,7,-10,-8,-2,-12
1501876871856413,1,-10,4,31,11,5,5,8
1501876871856413,1,42,-2,-81,-38,-6,-7,-17
1501876871877477,-19,-55,-33,-2,6,7,10,20
1501876871877477,-7,-35,34,60,19,1,-10,-83
1501876871879449,-11,6,-29,-87,-9,-10,-5,6
1501876871879449,-8,-32,-19,40,-9,0,-3,37
1501876871891458,16,44,25,32,-3,0,6,-6
1501876871891458,-13,8,16,-16,13,-2,-1,8
1501876871898452,-2,-54,-33,-14,-56,-6,-3,-26
1501876871898452,-5,2,10,52,41,7,1,-18
1501876871915433,-17,-6,-22,-110,-14,-2,-6,-17
1501876871915433,28,32,9,32,-4,-6,6,67
1501876871916415,-1,12,30,20,-10,1,7,14
1501876871916415,-15,-24,-5,52,1,-5,-8,-20
1501876871937478,12,7,7,-17,19,10,9,43
1501876871937478,-8,-19,-35,-36,-16,-7,-6,-112
1501876871939428,-4,-2,64,107,7,3,0,58
1501876871939428,29,17,-37,-64,2,6,8,-4
1501876871951455,-21,-19,-12,-46,-19,-12,-11,-13
1501876871951455,-12,-18,20,25,-3,-7,-1,18
1501876871958465,14,50,2,-28,32,11,5,14
1501876871958465,-32,-31,19,34,-11,-5,-5,-38
1501876871975435,11,47,-5,30,-4,-2,1,-23
1501876871975435,-7,-54,-29,-33,-17,0,8,73
1501876871976429,-3,59,14,66,9,4,-23,-96
1501876871976429,1,-53,22,-6,15,0,-4,30
1501876871997493,-2,-37,-2,11,-22,0,7,-12
1501876871997493,1,56,-16,-2,16,-2,0,17
1501876871999446,-22,-12,-12,1,-13,-3,-7,-41
1501876871999446,16,24,39,-20,-20,-10,3,50
1501876872011456,9,-41,-7,25,8,11,3,-18
1501876872011456,7,-24,-31,-46,10,19,2,16
1501876872018430,-3,-40,38,12,3,-3,1,-34
1501876872018430,13,59,6,-59,-11,6,19,53
1501876872035443,-34,-92,-19,59,-8,-13,-31,-59
1501876872035443,22,79,1,-27,3,1,-1,6
1501876872036431,4,-31,15,14,5,5,4,17
1501876872036431,-14,0,-34,-4,-8,-6,-1,4
1501876872057484,12,73,9,-20,23,1,5,4
1501876872057484,-4,-57,11,40,-11,-4,1,5
1501876872059425,-11,18,-47,-48,-32,-4,-5,4
1501876872059425,11,-12,12,18,-10,-14,3,18
1501876872071465,12,-15,25,20,37,21,12,12
1501876872071465,6,98,-20,23,-21,-7,-7,5
1501876872078472,-3,-77,-28,-61,-8,-3,-5,-38
1501876872078472,-7,30,-15,-23,10,-2,-10,-20
1501876872094424,0,60,-39,-49,-25,-19,-13,-40
1501876872094424,-6,6,33,54,31,8,11,41
1501876872096425,-6,-66,-14,12,2,-6,-3,-5
1501876872096425,10,67,2,-30,-30,0,-2,-10
1501876872117488,-11,-25,-14,32,43,10,8,-2
1501876872117488,0,-22,0,-2,-30,-11,-1,-9
1501876872119427,0,22,-13,12,-7,-5,-7,3
1501876872119427,-6,7,17,39,35,11,0,13
1501876872131493,5,-45,9,-1,-17,1,13,26
1501876872131493,-12,-20,-16,39,-14,-5,-10,-39
1501876872138467,6,-11,3,-43,13,4,6,58
1501876872138467,-1,-5,15,5,7,-6,-11,-63
1501876872155449,22,70,24,7,0,3,5,17
1501876872155449,-23,-55,-58,-20,9,-3,-7,-19
1501876872156438,0,20,18,4,-7,-3,2,17
1501876872156438,-3,8,8,15,-19,-11,-3,-15
1501876872177493,7,7,1,9,1,-3,2,2
1501876872177493,-26,-50,-10,-20,22,4,-4,-22
1501876872179465,-4,-2,12,53,-39,-4,-3,-11
1501876872179465,0,-2,-11,-35,32,13,7,16
1501876872191443,-2,-24,32,21,3,-1,-2,2
1501876872191443,9,68,-6,1,-16,-2,-1,5
1501876872200467,8,40,6,-14,10,1,10,40
1501876872200467,-8,-87,-6,36,-48,-6,-15,-44
1501876872214462,-3,-15,-5,-25,33,0,-5,8
1501876872214462,1,15,10,-19,8,0,1,19
1501876872216432,1,11,41,17,11,1,-2,-13
1501876872216432,-4,6,-35,14,-16,-3,3,13
1501876872237473,0,5,-26,3,-19,-10,-1,20
1501876872237473,-3,-39,5,-21,-6,4,-3,-13
1501876872239433,9,55,-16,-3,-1,-4,6,9
1501876872239433,-3,22,15,3,14,0,-10,12
1501876872251477,-2,-46,10,1,-47,-10,-12,-16
1501876872251477,6,7,6,-19,63,6,5,4
1501876872260435,-13,-17,10,29,-20,-6,1,12
1501876872260435,9,61,8,-26,-5,2,-1,8
1501876872275455,4,-3,-10,16,24,-2,3,13
1501876872275455,-8,-34,-12,-22,-33,-8,-8,-25
1501876872276445,5,19,0,12,1,4,-2,-23
1501876872276445,0,3,12,-20,-2,-6,-2,28
1501876872297479,0,-9,2,-24,16,12,2,10
1501876872297479,0,2,14,10,-17,-9,2,16
1501876872299436,-6,11,0,-31,4,1,-8,-46
1501876872299436,3,-29,-4,1,1,8,9,21
1501876872311495,-6,-42,10,-3,-33,-8,-7,-6
1501876872311495,1,16,-9,-16,-40,-8,-6,19
1501876872320451,3,-18,13,9,72,12,10,43
1501876872320451,-6,-33,-21,12,-31,-14,-13,-70
1501876872334482,0,25,1,-28,-5,0,5,0
1501876872334482,6,22,18,9,-14,3,1,-13
1501876872336451,-2,-17,-3,11,-1,2,-7,-3
1501876872336451,-5,38,-2,-9,4,6,4,-11
1501876872357480,-11,-20,-7,-20,-1,-9,-4,-12
1501876872357480,4,-10,8,24,-24,-7,-3,6
1501876872359476,7,-7,-12,-36,22,0,-3,24
1501876872359476,3,-1,-5,-11,23,7,7,14
1501876872371493,5,43,10,25,-28,-2,-8,-34
1501876872371493,-16,8,-20,-9,22,5,2,-9
1501876872380465,1,-38,5,36,-3,-7,-5,5
1501876872380465,6,14,-5,-35,5,1,3,23
1501876872394511,2,4,-9,36,3,1,8,-10
1501876872394511,-1,-9,16,-23,1,3,1,-2
1501876872396452,1,18,-13,-16,-18,-2,-2,-18
1501876872396452,-5,26,-4,24,11,-4,4,11
1501876872417488,-2,-81,20,-21,-7,-3,-5,13
1501876872417488,11,7,-6,8,29,9,11,31
1501876872419445,-14,-11,-22,22,-27,-7,-10,-45
1501876872419445,-4,-1,12,-45,18,0,-1,26
1501876872431519,-9,7,-8,1,-2,2,-6,-21
1501876872431519,-2,-12,8,-5,-1,-3,-3,-2
1501876872440480,-9,-18,-16,-18,-27,-5,-3,-14
1501876872440480,8,13,0,6,-10,2,2,3
1501876872454445,-14,13,-16,-12,19,0,-2,-19
1501876872454445,5,4,-8,19,-31,-6,-4,9
1501876872456445,-4,-20,-3,-33,9,4,3,15
1501876872456445,7,0,20,15,-38,-8,-4,-19
1501876872477481,1,54,-21,8,44,2,7,24
1501876872477481,6,-6,30,40,1,-2,-1,-3
1501876872479487,4,-9,-29,-26,17,9,10,27
1501876872479487,-18,-65,-7,-1,20,0,-14,-86
1501876872491448,13,23,13,25,-8,-3,-1,20
1501876872491448,3,13,-10,-18,-18,-7,0,-6
1501876872500451,-5,7,38,45,-1,-1,2,-1
1501876872500451,14,-12,-34,-85,3,0,8,29
1501876872514483,-7,17,13,1,17,10,2,4
1501876872514483,-8,-9,3,15,5,-3,-4,-17
1501876872516453,0,1,-2,-4,-2,-2,-3,1
1501876872516453,1,36,-14,1,2,-1,5,10
1501876872537522,-6,-26,-3,-43,-16,-12,-16,-21
1501876872537522,7,36,-9,24,29,10,8,22
1501876872539452,0,22,12,-37,-6,0,-4,-47
1501876872539452,-1,-50,-2,19,-17,-6,0,7
1501876872551504,-3,1,-7,4,-33,-7,1,19
1501876872551504,-9,11,-12,-34,61,16,9,-12
1501876872560465,-11,-24,-35,-29,-27,-7,-14,-68
1501876872560465,4,30,36,55,-11,-12,-8,-15
1501876872575459,2,-3,9,-27,-12,11,11,31
1501876872575459,14,13,-10,-64,-1,2,-4,14
1501876872576454,9,23,20,37,-11,-7,8,26
1501876872576454,-6,-20,-16,9,6,5,1,26
1501876872597493,-6,-17,11,35,12,8,-8,-16
1501876872597493,-13,-8,-23,9,-27,-8,-7,-14
1501876872599455,-4,-17,-15,-15,-12,-7,-6,0
1501876872599455,7,-5,34,15,40,2,14,47
1501876872620477,-8,9,-26,-52,-27,-1,-11,-40
1501876872620477,2,-43,-6,18,1,-6,-7,-13
1501876872621488,-10,35,3,-11,-11,-3,-4,13
1501876872621488,-1,-42,-23,3,-69,-4,3,2
1501876872635471,2,35,15,18,67,5,5,26
1501876872635471,-9,-43,-34,-9,-10,-9,-11,-33
1501876872636466,2,-15,11,2,5,9,3,16
1501876872636466,-1,46,8,-2,0,0,-9,-57
1501876872657528,0,-12,-30,10,-2,-6,-2,10
1501876872657528,8,51,36,-2,-39,-3,5,20
1501876872659476,-10,-59,-19,36,-11,-9,-1,14
1501876872659476,-10,-6,-12,4,46,1,-15,-24
1501876872680498,11,-21,11,6,0,5,9,35
1501876872680498,-1,27,16,-7,5,3,2,-7
1501876872681468,-4,-23,-19,-17,12,0,0,16
1501876872681468,-1,35,1,12,1,-3,3,17
1501876872695473,-8,-29,-7,8,-25,-12,-14,-42
1501876872695473,9,38,21,12,3,-6,-2,24
1501876872696493,7,-14,15,30,10,5,-1,-26
1501876872696493,-4,-12,-31,-93,-27,4,3,16
1501876872716477,9,42,9,7,1,1,8,6
1501876872716477,-22,-31,-11,-1,-4,-11,-11,-24
1501876872725472,8,-32,9,-20,32,5,3,44
1501876872725472,-13,3,-7,56,-31,-1,-1,-46
1501876872740476,-2,-27,7,-18,32,-12,-12,-39
1501876872740476,3,15,6,11,6,3,1,9
1501876872741495,2,21,6,-18,-8,5,4,5
1501876872741495,-3,0,-12,-15,4,-2,1,17
1501876872762532,-3,-27,9,12,3,-8,1,7
1501876872762532,-3,3,12,37,2,2,-8,-66
1501876872764465,-3,3,2,-38,5,-2,-3,-7
1501876872764465,-1,9,-28,-17,-8,-3,0,8
1501876872776490,0,-14,14,29,-29,-8,5,31
1501876872776490,-11,-19,-22,-30,-18,-7,-11,-18
1501876872785464,15,65,9,9,28,1,-3,-5
1501876872785464,-3,-26,26,46,-18,-2,-2,-10
1501876872799517,-7,-1,-10,24,20,3,1,14
1501876872799517,-4,-24,-6,-4,-3,5,8,9
1501876872801498,4,22,-3,-25,-27,-9,-3,-31
1501876872801498,-3,-26,-28,-30,58,4,-1,43
1501876872822536,12,29,-7,8,-8,3,8,41
1501876872822536,-3,-9,3,-1,-11,0,0,-27
1501876872824468,-5,1,8,-1,-32,-8,-11,-32
1501876872824468,-3,-15,-1,-16,17,0,-3,5
1501876872836504,-2,26,-11,30,21,7,-5,-25
1501876872836504,12,-4,9,-49,-9,-1,9,34
1501876872845506,-7,-28,-4,11,-24,-1,1,-13
1501876872845506,-4,17,25,28,28,4,4,7
1501876872859535,0,-13,-10,-9,-55,-7,-7,-20
1501876872859535,-4,-27,11,-11,32,7,-3,18
1501876872861502,5,22,-28,19,18,3,3,14
1501876872861502,14,17,6,-15,-11,1,6,18
1501876872882473,-13,-19,-5,8,-16,0,-4,-36
1501876872882473,-2,20,3,5,5,-2,-1,-8
1501876872884493,-3,0,1,22,21,-1,-6,-18
1501876872884493,4,14,-14,-55,-15,-2,-3,12
1501876872896489,2,-60,-10,-33,15,-4,-5,-18
1501876872896489,-16,-21,-7,15,-35,-3,3,8
1501876872905508,0,21,-3,-7,2,2,1,13
1501876872905508,6,35,16,11,6,-4,5,-6
1501876872919538,-4,-15,0,12,-6,7,-2,-3
1501876872919538,5,12,12,19,-28,-6,-5,-21
1501876872921483,-2,-22,-11,34,48,-1,9,36
1501876872921483,-4,-19,0,-40,-28,-7,-9,-11
1501876872942533,-1,-4,26,-22,38,14,3,24
1501876872942533,6,-41,5,26,0,-2,2,19
1501876872944475,0,-13,-20,0,-10,4,4,14
1501876872944475,-1,7,23,45,-17,-9,-6,-25
1501876872956511,3,69,-1,-32,12,-5,11,35
1501876872956511,-16,-61,-15,5,-11,0,-9,-14
1501876872965478,2,16,5,4,-11,-6,-4,-27
1501876872965478,0,-26,15,-8,3,5,-4,-26
1501876872980495,-9,35,3,31,-12,-3,-1,-5
1501876872980495,20,38,20,-51,29,6,12,44
1501876872981509,-4,-2,-19,16,8,-7,-5,-32
1501876872981509,-1,0,-10,23,-32,3,-1,19
1501876873002498,6,30,18,-5,25,-4,-1,2
1501876873002498,-1,7,-26,-2,-8,-4,-1,1
1501876873004478,3,61,7,-15,-14,-7,-7,-38
1501876873004478,-3,-69,-5,10,4,7,5,18
1501876873016495,-5,-49,-9,-8,-76,-16,-10,-25
1501876873016495,4,-9,12,29,82,9,4,7
1501876873025483,-4,-9,-12,-52,-8,2,7,33
1501876873025483,-1,41,-5,-11,-4,-3,-6,-10
1501876873039532,12,15,-29,-18,1,6,4,25
1501876873039532,-12,-22,2,21,-20,-7,-7,-73
1501876873041490,8,11,19,5,-11,-1,3,25
1501876873041490,-5,-3,-10,22,7,-1,3,10
1501876873062541,-3,-7,10,-2,9,4,3,-9
1501876873062541,3,10,-21,-31,17,-4,-13,-5
1501876873064485,-3,2,-4,31,-3,-1,5,48
1501876873064485,-6,-3,5,-20,-14,-5,-8,-47
1501876873076530,-10,33,-21,27,43,-6,-7,-24
1501876873076530,5,15,1,-20,-40,-4,0,25
1501876873085483,-5,-43,13,2,25,5,2,5
1501876873085483,13,38,14,-17,20,3,4,32
1501876873099526,0,-9,-25,31,-13,1,-1,-36
1501876873099526,-5,8,11,13,-55,-6,4,45
1501876873101483,-1,14,0,-15,41,11,-8,-34
1501876873101483,8,-16,-10,12,-1,-3,11,27
1501876873122523,-10,-12,1,-14,4,-2,-17,-64
1501876873122523,3,31,4,-2,-10,5,7,11
1501876873124484,2,-49,19,-5,-79,-16,-6,2
1501876873124484,-2,32,1,17,74,9,2,-6
1501876873144544,-5,-48,-8,-10,23,-1,4,30
1501876873144544,-1,-4,-20,27,18,2,-1,-4
1501876873146521,-5,34,7,-31,-26,-3,4,-6
1501876873146521,1,-23,-6,7,-38,-14,-9,7
1501876873159488,5,15,6,-7,5,6,1,9
1501876873159488,-7,-20,-4,7,27,-3,-7,-9
1501876873161499,9,17,7,8,6,1,12,43
1501876873161499,-2,-27,4,-12,-26,3,-9,-24
1501876873182533,-11,-29,-15,-14,-34,-6,-7,-19
1501876873182533,4,-2,3,12,0,4,4,17
1501876873184489,2,6,0,9,16,1,-2,-7
1501876873184489,-5,19,-19,28,17,-3,-4,0
1501876873204488,5,14,38,-27,-18,-5,6,41
1501876873204488,-1,42,-11,19,23,2,-9,-56
1501876873206491,12,-25,1,-13,7,1,2,44
1501876873206491,-14,-20,11,-13,-71,-4,-5,-79
1501876873220524,5,2,-21,-37,35,7,9,54
1501876873220524,4,32,-11,-13,-46,-11,0,-28
1501876873221490,-13,-31,12,-22,28,8,-9,-54
1501876873221490,1,26,5,33,3,-3,-1,7
1501876873242539,2,-1,0,0,-3,2,0,0
1501876873242539,7,19,-3,-4,6,-4,9,51
1501876873244491,-16,-11,1,27,-26,3,-13,-65
1501876873244491,-3,0,-29,-18,12,-7,-6,-23
1501876873264492,2,8,39,-29,-8,5,2,7
1501876873264492,0,-12,-5,-25,-2,-1,0,8
1501876873266493,-5,-31,-18,13,21,-6,3,9
1501876873266493,-1,0,-1,-9,6,-5,0,3
1501876873279502,-4,22,1,39,-15,-2,-6,25
1501876873279502,-2,20,10,-35,-21,-3,-4,-22
1501876873286506,2,-48,-22,-16,11,5,-8,-9
1501876873286506,-5,3,-4,1,28,2,2,2
1501876873302560,7,-5,3,41,-10,-2,2,17
1501876873302560,0,9,4,12,-35,-8,-3,-20
1501876873304506,0,18,6,12,10,-8,6,54
1501876873304506,2,32,-1,-35,4,6,-4,-50
1501876873324534,-5,-24,-8,-1,-20,-7,-7,-35
1501876873324534,-2,-15,3,23,-4,-2,5,31
1501876873326519,8,55,-10,-35,-46,-6,-4,-6
1501876873326519,-9,-32,-2,36,22,10,6,8
1501876873339538,-3,-7,-2,-1,19,-3,-8,4
1501876873339538,5,49,13,5,-1,2,-5,-20
1501876873346508,-6,-18,-18,-21,-16,-6,0,8
1501876873346508,4,4,23,-4,-13,0,6,53
1501876873362540,-2,-41,8,11,4,-1,-2,-91
1501876873362540,10,41,-6,-22,1,5,3,29
1501876873364500,-19,-47,12,59,34,-5,-1,-2
1501876873364500,-1,17,-4,-35,-52,-5,-2,-12
1501876873384574,11,19,21,31,59,14,6,24
1501876873384574,-6,-41,-34,-18,18,3,5,-3
1501876873386501,-9,13,15,-5,-5,-5,-10,-14
1501876873386501,10,-2,6,27,-22,2,3,36
1501876873399513,-11,-9,-78,-43,7,-9,-5,2
1501876873399513,-5,-3,9,-2,31,-2,5,29
1501876873406505,0,-32,-7,-3,-4,-4,-4,-18
1501876873406505,7,11,8,25,17,7,5,6
1501876873422563,-3,-36,25,8,-46,-9,-2,21
1501876873422563,3,-35,-32,-54,29,-1,-7,-19
1501876873423515,2,54,22,46,-20,3,8,17
1501876873423515,3,4,1,-3,45,-6,-8,6
1501876873444551,-7,-35,3,17,-2,1,-8,-23
1501876873444551,-11,-41,6,29,-14,-5,-4,16
1501876873446503,4,17,12,-15,-1,1,0,-10
1501876873446503,-1,25,1,-24,-21,-3,4,24
1501876873459546,11,32,-17,12,-1,4,3,-61
1501876873459546,-11,-19,16,35,25,3,-1,2
1501876873466509,17,30,-13,-46,-31,-1,2,28
1501876873466509,-3,-5,-12,31,35,0,8,-24
1501876873482521,-22,-37,7,-20,-25,-6,-14,-14
1501876873482521,3,19,9,25,5,3,2,16
1501876873484506,-6,-9,-3,-2,-17,2,-3,-24
1501876873484506,-6,-21,0,-20,0,-6,-11,-13
1501876873504553,7,31,7,2,6,6,8,8
1501876873504553,-2,-2,-19,-23,-2,-4,-2,11
1501876873506543,-12,-17,-14,16,-10,-9,-16,-36
1501876873506543,-3,-13,-7,-31,21,-3,-2,4
1501876873519540,15,63,4,-10,14,-3,8,27
1501876873519540,-12,-69,-1,36,-27,-4,-11,-44
1501876873526519,2,15,-35,-10,4,2,1,22
1501876873526519,-1,-15,41,26,-31,-5,-3,13
1501876873542570,4,37,-36,-49,-9,-1,4,22
1501876873542570,-5,-12,10,10,12,-1,-3,-53
1501876873544509,6,14,-1,-9,0,-1,1,16
1501876873544509,-10,-35,-5,17,-9,-1,-4,-21
1501876873564581,0,-10,31,-5,-5,-4,3,3
1501876873564581,0,-8,0,0,15,8,-2,-3
1501876873566519,8,11,16,37,-1,-3,-1,-5
1501876873566519,-2,10,-36,-50,-31,-3,-3,-8
1501876873579548,4,6,11,16,17,11,15,24
1501876873579548,1,25,-21,-61,-17,2,-9,22
1501876873586527,-10,-40,23,10,24,3,-7,-19
1501876873586527,4,1,-8,11,-12,-4,0,10
1501876873602538,0,25,3,20,-41,-12,0,3
1501876873602538,2,-16,-3,-28,10,3,-1,22
1501876873604513,-6,13,8,-16,24,-2,0,-17
1501876873604513,5,-17,2,2,0,-1,-4,3
1501876873624584,-8,40,6,-13,3,0,-1,11
1501876873624584,3,-34,-15,7,-12,-6,3,34
1501876873626550,-3,-7,-9,-14,-18,-3,-3,-39
1501876873626550,-14,-24,9,10,32,0,3,-8
1501876873638579,1,9,11,3,-46,-7,-11,-1
1501876873638579,0,29,9,6,52,10,4,-11
1501876873647528,-3,-3,-28,-88,-2,-4,-1,-6
1501876873647528,7,-3,12,21,-4,-1,3,17
1501876873662566,1,-14,11,11,6,2,-1,-17
1501876873662566,5,29,-3,18,-52,-13,-1,5
1501876873668578,1,-26,14,3,25,2,4,34
1501876873668578,1,23,-1,-1,8,6,5,-12
1501876873684560,7,11,4,20,4,-5,-4,42
1501876873684560,-6,-11,4,-15,-23,1,-3,-26
1501876873686552,6,6,-19,36,17,-1,1,37
1501876873686552,-1,28,10,-33,-5,-4,1,15
1501876873698532,-5,-37,3,20,0,4,-1,-72
1501876873698532,9,-1,-21,35,12,-7,2,61
1501876873707519,-6,32,19,-5,-53,-2,-1,-62
1501876873707519,-2,-34,3,-6,41,15,12,13
1501876873722585,-9,-23,-23,-26,-8,-10,-10,20
1501876873722585,4,27,6,13,30,8,1,8
1501876873724520,-4,-1,-8,-15,-10,-9,-13,4
1501876873724520,-6,11,1,-1,-14,-4,-7,-70
1501876873744594,0,-10,19,-6,3,3,4,12
1501876873744594,0,-1,-19,3,-38,-9,2,24
1501876873746529,-5,-3,-5,15,44,11,5,-53
1501876873746529,15,18,-5,10,-13,0,11,81
1501876873758589,-23,-22,-27,-6,-49,-15,-32,-72
1501876873758589,8,28,33,-21,54,13,9,34
1501876873767555,0,-11,-6,-3,-4,5,6,32
1501876873767555,-15,5,-18,-21,-35,-23,-19,-51
1501876873782591,11,16,0,2,8,11,11,51
1501876873782591,-1,25,-20,-24,-24,-6,-7,-25
1501876873784523,-3,-63,8,20,13,2,2,42
1501876873784523,-6,-17,-18,-21,-4,2,-6,11
1501876873804565,4,48,12,-30,-14,-5,14,34
1501876873804565,-7,-53,17,76,3,-7,-3,-2
1501876873806561,25,34,-8,-8,27,8,7,4
1501876873806561,-18,-41,-2,-9,17,9,-16,2
1501876873818565,1,35,-44,-27,-1,3,7,13
1501876873818565,-8,-5,28,-24,-13,-17,-9,-9
1501876873827526,0,15,9,58,10,9,10,-16
1501876873827526,29,11,14,17,-8,-1,14,78
1501876873842585,0,-1,1,3,18,4,-11,-50
1501876873842585,-4,-9,-12,-27,-17,1,-6,-21
1501876873844526,6,14,7,13,-42,-4,3,52
1501876873844526,-25,6,-9,-30,64,5,3,-48
1501876873864569,-4,-5,-1,13,-11,-12,-1,5
1501876873864569,1,16,8,3,23,11,0,-5
1501876873866563,-25,-50,-6,17,-11,-11,-13,-49
1501876873866563,30,12,-11,-11,-20,-1,11,71
1501876873878574,-17,-26,19,23,14,-3,-13,-61
1501876873878574,-9,-30,-6,16,-6,2,-1,-36
1501876873887529,-2,27,-19,-61,-34,-10,-4,19
1501876873887529,-6,-4,3,21,0,-4,-13,-37
1501876873902591,11,-47,-47,-45,0,-2,8,48
1501876873902591,-7,-26,33,28,-51,-2,0,-28
1501876873903565,3,18,-39,-41,28,3,1,13
1501876873903565,-3,-19,-6,4,-12,-6,4,15
1501876873924600,8,30,-5,29,24,4,-7,-23
1501876873924600,-14,3,-1,-47,-7,-4,-5,-28
1501876873926530,2,26,30,33,64,0,8,12
1501876873926530,-3,-20,-21,5,-16,-3,-4,10
1501876873938602,13,-15,9,12,4,0,4,54
1501876873938602,-3,-4,-7,-30,-27,-3,9,-22
1501876873947533,1,-22,5,42,-6,-7,-12,-12
1501876873947533,1,69,-3,-17,-49,-2,6,1
1501876873962535,-6,-50,0,2,65,13,6,-22
1501876873962535,1,8,4,5,4,-5,-9,-5
1501876873963534,4,-23,-3,-22,-6,1,9,47
1501876873963534,-4,57,5,11,4,2,-10,-47
1501876873984567,-10,-46,-5,33,-16,-11,0,24
1501876873984567,1,26,10,-29,37,11,0,-14
1501876873986547,5,-8,-13,23,-18,-6,1,24
1501876873986547,-21,-33,14,-1,-66,-10,-11,-47
1501876873998537,10,8,13,10,63,14,11,29
1501876873998537,4,2,-28,-3,-7,-2,-3,-27
1501876874007535,3,11,5,-12,-8,-4,-9,-19
1501876874007535,1,3,27,33,5,4,-1,33
1501876874022539,-15,-8,-6,-38,-5,-3,-12,-23
1501876874022539,13,6,6,-41,-6,-3,9,31
1501876874023539,-10,-10,-9,-20,-6,-2,0,3
1501876874023539,8,10,-13,-9,11,0,-2,6
1501876874044539,6,43,1,12,-26,-9,4,-19
1501876874044539,-8,-22,-17,46,26,7,-6,8
1501876874046551,-9,0,9,8,-10,5,0,-58
1501876874046551,4,-7,-14,-79,3,4,-2,-8
1501876874067552,-4,6,15,1,-20,-2,-6,1
1501876874067552,6,12,-11,-15,-21,-10,-1,31
1501876874068539,2,-6,7,21,8,3,5,21
1501876874068539,-1,7,17,37,13,0,-3,-38
1501876874089585,-5,-23,6,-4,-7,-5,0,42
1501876874089585,-1,3,-23,-17,-27,-2,-5,-9
1501876874091574,-8,10,13,-18,9,1,-5,-9
1501876874091574,5,-11,31,22,17,-2,5,24
1501876874104604,-4,-2,-46,-1,-17,-11,-5,-20
1501876874104604,-3,11,11,14,67,5,10,33
1501876874106576,6,1,4,-34,-44,3,-10,13
1501876874106576,-12,-11,-12,-2,33,7,-1,-32
1501876874127608,7,14,23,-3,-25,0,3,1
1501876874127608,5,27,-3,4,-16,-4,7,49
1501876874128543,-7,-23,-10,6,-13,-8,-7,-43
1501876874128543,1,-13,12,14,27,0,-5,-14
1501876874141555,3,-22,-17,-37,-64,-7,3,-3
1501876874141555,-19,9,-16,16,63,10,-9,-19
1501876874149577,9,18,20,8,-4,-3,-1,26
1501876874149577,-4,-26,-23,13,-18,-9,0,29
1501876874164583,-5,3,-5,-27,-58,-2,-10,-18
1501876874164583,12,1,13,-54,7,6,6,-12
1501876874166562,-1,1,-2,32,-6,-3,-3,7
1501876874166562,4,32,-5,-1,5,1,2,22
1501876874187547,-1,-15,11,10,4,4,0,-45
1501876874187547,3,-22,0,35,-61,-12,-5,23
1501876874188549,-10,-7,-5,-62,39,-1,5,-9
1501876874188549,-18,-19,-24,-8,-50,-4,-19,-35
1501876874201587,-2,31,9,11,67,9,5,27
1501876874201587,-6,-25,7,-16,-29,-10,-13,-32
1501876874208612,6,-6,-2,7,4,0,14,54
1501876874208612,2,-1,-2,-13,-46,-8,-5,-37
1501876874224588,-5,18,-7,-3,49,9,-4,19
1501876874224588,9,-13,-15,3,-10,-5,5,21
1501876874226559,-23,40,9,11,1,-2,-15,-67
1501876874226559,0,-12,1,-3,21,-4,1,15
1501876874247612,-8,-52,1,-17,-17,-2,-1,-13
1501876874247612,-2,15,-26,17,-6,-6,0,-11
1501876874248560,6,-22,-7,-16,22,11,0,-4
1501876874248560,9,37,-8,5,17,0,7,39
1501876874261621,3,-15,17,-11,-20,-5,-7,-14
1501876874261621,-10,54,-10,47,-4,-15,-6,1
1501876874268583,-1,-27,16,-27,-23,9,-1,-9
1501876874268583,-3,9,-6,23,8,-2,1,3
1501876874284589,-10,-33,6,-5,-2,-1,4,4
1501876874284589,9,9,15,-21,23,5,5,5
1501876874286583,0,-8,-18,-14,-16,-11,-12,-16
1501876874286583,10,12,15,50,14,2,13,26
1501876874307617,-6,-17,0,22,-3,6,-8,-36
1501876874307617,-3,-29,14,4,-15,3,-4,6
1501876874308562,2,25,-9,2,39,3,4,-7
1501876874308562,7,-41,6,-18,-22,-1,-1,18
1501876874321595,-5,14,-39,-20,33,-5,2,3
1501876874321595,5,-16,15,14,0,-1,1,24
1501876874328593,1,1,-2,-3,-24,-2,0,16
1501876874328593,-3,2,17,-5,-7,-1,2,-14
1501876874344589,13,68,7,60,16,-3,6,29
1501876874344589,-16,-58,-20,-79,15,3,-4,-71
1501876874346556,0,-1,-8,41,2,-6,-4,-4
1501876874346556,-5,2,5,-8,-16,0,-9,-17
1501876874367617,-5,25,12,-23,-10,4,7,18
1501876874367617,4,-25,-5,10,18,-1,3,36
1501876874368557,3,-5,15,39,-54,-6,1,6
1501876874368557,5,9,1,-28,45,5,4,-8
1501876874381620,-17,-37,-22,22,-21,-8,-14,-15
1501876874381620,15,32,27,8,-10,7,14,55
1501876874388556,-10,-17,-27,-62,-13,-10,-8,-36
1501876874388556,-8,-33,-6,5,8,4,-3,-8
1501876874405565,9,35,0,-7,-55,-12,1,8
1501876874405565,1,1,8,15,29,12,1,-10
1501876874406560,-7,15,4,2,0,-5,1,0
1501876874406560,5,-8,-11,3,8,-4,-1,-3
1501876874427602,-1,-69,17,9,-33,-5,2,35
1501876874427602,-13,2,-33,-52,6,-6,-14,-69
1501876874428560,7,39,30,9,4,7,5,-25
1501876874428560,1,-18,13,26,13,1,-4,13
1501876874441569,-2,-35,-27,-54,22,5,3,7
1501876874441569,1,21,1,18,-44,-16,-11,13
1501876874448592,2,-8,5,-11,51,1,4,11
1501876874448592,-10,22,-7,15,-23,2,-1,-18
1501876874464600,14,2,8,23,29,2,-2,-3
1501876874464600,2,18,7,-13,-3,-1,11,46
1501876874466562,-5,-8,6,-13,-47,1,3,24
1501876874466562,3,22,-24,1,31,1,-1,6
1501876874487579,7,20,3,0,16,0,0,-3
1501876874487579,-2,10,20,1,-14,3,-3,-21
1501876874488563,-4,-21,-21,8,-8,-3,0,24
1501876874488563,-1,-6,-9,-22,-10,-1,2,-9
1501876874502581,6,37,29,21,2,4,6,9
1501876874502581,0,1,-23,-10,40,4,-1,0
1501876874508592,-3,-20,6,-8,-4,-4,-3,4
1501876874508592,0,-21,-8,23,-14,-5,4,40
1501876874524636,-12,0,4,3,-12,-6,-11,-25
1501876874524636,11,50,12,21,-12,3,0,-38
1501876874526575,-8,-65,4,19,20,-8,-3,13
1501876874526575,-8,-21,-28,-74,-9,7,3,-26
1501876874547579,-6,12,-20,-17,-12,-5,-4,14
1501876874547579,-2,-26,3,7,1,-2,-2,9
1501876874548568,6,58,9,24,-26,-3,-2,-4
1501876874548568,2,-12,-10,-34,63,1,5,-8
1501876874560632,-14,-24,-6,-8,-16,-7,1,-14
1501876874560632,-8,0,14,25,-5,-2,-8,-17
1501876874569620,8,20,-18,-34,-1,6,3,18
1501876874569620,-5,-10,30,38,-23,-3,0,-29
1501876874584614,-4,35,11,2,0,-6,-11,-42
1501876874584614,-3,-42,-15,26,16,12,5,-11
1501876874586604,0,-9,0,-18,-2,-1,5,27
1501876874586604,-5,1,-2,-26,-31,-9,-15,-11
1501876874607615,11,37,4,19,70,8,1,2
1501876874607615,-9,-54,-4,26,-23,-7,3,16
1501876874608572,-5,-29,-8,-21,-11,-2,-5,-16
1501876874608572,5,-14,-18,21,1,2,8,3
1501876874620629,-9,-5,14,-12,-30,-4,-11,-52
1501876874620629,8,22,13,-5,16,-1,-3,16
1501876874630572,-5,4,-18,-5,-10,-1,-1,-7
1501876874630572,-2,11,6,-3,-11,-6,-3,2
1501876874644635,-4,-12,-7,2,18,6,4,16
1501876874644635,4,10,9,11,8,2,5,9
1501876874646583,-6,-3,-16,0,2,-5,-8,-23
1501876874646583,3,34,3,23,13,-4,-6,0
1501876874667607,0,-35,-14,-6,-5,0,1,5
1501876874667607,0,5,5,-11,-4,-2,1,25
1501876874668575,9,21,16,37,-7,-2,5,17
1501876874668575,4,-31,-11,-16,23,7,-4,-1
1501876874681594,6,34,7,-6,-22,2,6,-2
1501876874681594,-6,17,12,-3,14,-8,-4,-11
1501876874689575,-2,-28,-35,-4,-18,4,2,-6
1501876874689575,11,30,18,8,18,6,6,26
1501876874704617,-4,10,13,40,1,-4,6,32
1501876874704617,-10,-60,-49,-36,-33,-1,-21,-71
1501876874706577,0,18,26,16,21,-2,-1,-10
1501876874706577,-8,17,14,9,-8,2,4,5
1501876874727616,5,-7,-16,-4,-2,-7,-8,-11
1501876874727616,3,-2,11,7,-9,1,11,31
1501876874728580,1,23,-1,-2,9,-4,0,37
1501876874728580,-5,-17,8,-20,-15,6,1,-31
1501876874741601,7,-3,-9,24,61,2,-2,3
1501876874741601,-2,-19,3,-9,-55,-3,1,-2
1501876874749627,-2,-18,-7,-4,50,1,-4,-7
1501876874749627,3,30,-22,-22,-60,-1,8,18
1501876874764618,2,-16,-1,-24,15,1,-4,36
1501876874764618,-7,6,-6,21,6,0,-6,-40
1501876874766591,-3,13,18,-23,-9,-9,1,6
1501876874766591,-2,-31,-10,2,-7,-5,-7,16
1501876874787620,9,28,-11,-2,-19,0,6,21
1501876874787620,-10,-72,-6,-4,-4,-6,1,16
1501876874788581,1,16,-3,2,-27,-2,-5,-42
1501876874788581,-6,-11,15,18,44,2,3,15
1501876874800582,-4,-1,17,-5,-25,0,-8,-16
1501876874800582,1,21,-21,-33,32,5,0,6
1501876874809625,-1,18,1,21,-10,-4,-1,-19
1501876874809625,-6,-22,-10,-33,-22,-7,-10,0
1501876874824625,1,4,7,26,4,6,8,11
1501876874824625,7,64,17,32,3,-7,4,11
1501876874826594,-10,-62,-34,-24,-1,7,-9,-23
1501876874826594,6,27,13,19,5,-5,-5,-11
1501876874847655,-2,-23,-4,-14,-12,-1,6,28
1501876874847655,-2,-24,1,-12,-12,2,-8,-39
1501876874848627,4,33,13,7,9,4,5,46
1501876874848627,-8,-32,-17,-46,-20,-10,-11,-20
1501876874861630,-4,-5,2,-3,7,-6,-7,-31
1501876874861630,6,35,-14,-1,-2,-2,8,26
1501876874869632,6,-5,13,7,22,6,2,-2
1501876874869632,-3,-8,7,9,-10,-1,2,27
1501876874884655,-5,-14,-13,-10,5,2,2,-34
1501876874884655,-3,22,13,2,-45,-4,1,-21
1501876874886599,2,-9,-6,-38,41,6,-5,-3
1501876874886599,-1,12,2,26,-12,-2,-2,-11
1501876874907631,-1,-7,-14,-12,24,-5,-4,5
1501876874907631,-1,-4,12,22,-7,-2,0,16
1501876874908589,-7,-3,-1,-43,-30,-5,1,-6
1501876874908589,-2,-27,-10,-9,6,3,-2,2
1501876874920654,-4,11,-6,4,-10,0,-3,4
1501876874920654,-4,-5,-6,-2,20,0,-7,-12
1501876874929643,12,44,24,40,13,0,5,27
1501876874929643,-3,-36,-16,2,8,3,2,7
1501876874944655,-10,12,4,-43,-19,-9,-10,-74
1501876874944655,-1,5,2,15,-2,-1,7,27
1501876874946602,-4,-24,-4,24,1,3,-9,-30
1501876874946602,13,93,19,12,19,-3,5,10
1501876874967633,-9,-58,-25,-4,-19,-6,-18,-26
1501876874967633,2,-11,2,-22,-9,-2,-2,11
1501876874968593,-2,-5,2,-1,13,4,3,6
1501876874968593,-6,-1,-10,21,12,-2,-5,-27
1501876874980593,14,29,17,-14,-5,3,10,57
1501876874980593,-13,-12,2,-13,8,-3,-1,-35
1501876874989639,-2,-4,-5,18,-6,-2,3,-2
1501876874989639,6,-2,-15,-40,-33,-7,-1,25
1501876875004636,4,9,-12,24,2,1,10,38
1501876875004636,-5,12,23,-3,7,3,-10,-39
1501876875006605,-1,-13,-10,-2,-34,-11,0,11
1501876875006605,-7,-38,-8,35,69,3,5,28
1501876875027636,7,12,0,-53,-19,5,-5,-14
1501876875027636,-1,-7,-5,6,4,2,2,23
1501876875028632,0,14,3,-2,-18,-10,-4,3
1501876875028632,-7,6,12,6,31,3,-6,-57
1501876875049658,-2,-5,17,-5,-4,3,1,11
1501876875049658,-4,-2,-24,5,25,-2,0,2
1501876875051608,0,5,12,-6,-15,1,1,5
1501876875051608,3,2,3,1,-25,-2,5,-1
1501876875064652,8,16,-1,33,40,4,11,61
1501876875064652,-10,6,6,-8,-26,-3,-16,-84
1501876875066632,2,0,-7,9,28,-1,-5,26
1501876875066632,-6,14,-1,-2,-5,-2,-3,-23
1501876875087664,4,10,-5,-11,-23,1,6,22
1501876875087664,-1,-27,-11,-13,11,0,2,8
1501876875088599,-1,22,-9,-8,-11,1,-1,20
1501876875088599,-5,-5,27,33,-7,-2,-3,-9
1501876875109640,-1,-3,-3,5,-2,-3,0,-17
1501876875109640,10,9,-11,-13,2,2,9,53
1501876875111612,-4,12,13,11,25,5,8,-45
1501876875111612,6,-16,-24,-48,-28,-3,-14,13
1501876875124642,-1,-1,12,16,-3,-4,-3,1
1501876875124642,-5,-16,-29,-17,-15,-6,-4,3
1501876875126612,3,3,-3,-12,-38,-3,5,9
1501876875126612,-2,-7,10,2,7,-2,-3,5
1501876875147668,-11,-17,16,28,9,5,-1,-11
1501876875147668,8,19,-14,-24,-1,2,4,-4
1501876875148602,-8,-19,-16,18,-32,-5,-5,12
1501876875148602,1,-2,-4,13,19,-1,4,32
1501876875169632,0,15,2,-25,-6,3,-7,-67
1501876875169632,-3,-18,24,29,8,-1,-5,8
1501876875169632,-5,5,-2,-8,14,0,-1,-34
1501876875169632,0,-22,5,3,-3,6,0,1
1501876875183673,-3,-5,0,11,3,-1,6,25
1501876875183673,2,21,-5,-16,-8,1,2,16
1501876875191645,-2,-21,-4,-4,1,-5,-7,-3
1501876875191645,1,5,6,6,-20,-1,0,-4
1501876875206674,-5,-22,0,-15,-27,-8,-5,-4
1501876875206674,7,12,4,22,40,3,11,36
1501876875207639,-8,-1,-1,-21,4,1,-15,-66
1501876875207639,-8,-28,-6,-4,-30,-5,2,2
1501876875229620,-6,8,5,-13,-11,-7,-9,-53
1501876875229620,7,15,14,15,-45,-5,0,20
1501876875229620,-2,-30,-12,-15,72,12,7,26
1501876875229620,-1,12,-3,-10,-3,3,-3,-14
1501876875243674,-1,-2,-12,-2,-7,-4,3,-1
1501876875243674,-8,15,7,-10,-25,-8,-6,-9
1501876875251675,15,-18,1,27,-7,-6,6,52
1501876875251675,-9,-1,0,-17,-4,5,-7,-52
1501876875266668,-3,-6,5,-3,7,3,5,25
1501876875266668,-8,-11,-8,6,11,2,-15,-88
1501876875267634,-1,-2,-14,3,-28,-3,1,17
1501876875267634,4,30,23,-10,5,4,8,22
1501876875289630,1,-19,-22,11,-13,-4,-9,-14
1501876875289630,0,-14,25,0,1,0,0,28
1501876875289630,-7,-5,-75,-41,45,-7,-4,-7
1501876875289630,1,8,-8,-19,-8,-4,-1,-20
1501876875303675,-1,9,2,-3,6,9,6,35
1501876875303675,4,-9,8,-2,-38,-6,0,26
1501876875311653,-4,-9,26,38,32,11,1,-12
1501876875311653,-4,15,-10,6,8,0,5,12
1501876875326652,2,16,5,1,5,-5,-6,-12
1501876875326652,2,-8,-9,-10,-7,0,1,-23
1501876875327642,-2,7,22,25,-5,-1,1,-10
1501876875327642,6,28,1,-5,16,-2,-3,-5
1501876875349630,-6,-23,-21,10,-18,-3,-2,37
1501876875349630,-2,-2,-17,-8,24,1,1,12
1501876875349630,-12,-14,16,-6,-34,-8,-15,-76
1501876875349630,-1,-4,-2,24,18,-4,1,4
1501876875363687,7,23,13,-4,3,2,-1,-2
1501876875363687,-8,-4,-30,-29,12,-2,-4,4
1501876875371647,8,18,-7,-25,-20,1,7,37
1501876875371647,-2,-27,9,2,-7,-5,1,-4
1501876875386635,0,3,10,-10,-5,-8,-2,-1
1501876875386635,1,3,-10,18,23,7,8,29
1501876875387632,4,26,17,15,-33,0,-6,-27
1501876875387632,-4,-45,-4,-35,23,-2,-2,21
1501876875409627,0,-10,1,16,6,-2,-2,6
1501876875409627,-5,0,42,3,13,-2,1,-2
1501876875409627,6,41,-32,-17,-11,2,2,6
1501876875409627,-5,1,-6,15,-14,3,0,7
1501876875423681,-7,-28,-11,-13,4,-1,-3,-14
1501876875423681,4,-5,2,6,-1,-1,3,32
1501876875431658,-1,24,8,4,9,2,-3,-19
1501876875431658,0,-3,0,-22,-21,-4,-5,-8
1501876875446658,-6,-4,-10,18,-3,3,0,-3
1501876875446658,5,13,-5,6,4,2,3,0
1501876875447632,-6,-39,15,-5,-11,-5,6,21
1501876875447632,-8,9,-5,6,3,-2,-13,-44
1501876875468658,7,-14,-6,7,11,2,10,38
1501876875468658,-9,-8,-2,4,-24,-7,-15,-43
1501876875476654,1,-6,2,-13,18,1,-2,17
1501876875476654,-1,-19,-2,14,20,6,5,8
1501876875483684,-6,5,-11,-20,-33,-3,-4,-21
1501876875483684,2,12,-4,-15,12,-4,-8,-4
1501876875491622,0,-24,-6,4,-6,-3,1,6
1501876875491622,-6,5,-13,16,-12,-6,-7,5
1501876875506689,9,20,0,-7,11,1,1,-16
1501876875506689,-11,-24,10,0,-10,3,0,-27
1501876875507634,1,-11,-4,5,9,-6,-8,-1
1501876875507634,5,13,-4,-4,-10,5,3,8
1501876875529641,-4,17,5,15,19,1,1,11
1501876875529641,-2,-6,-8,-20,-59,-18,-5,-15
1501876875529641,-1,-8,18,1,54,14,11,16
1501876875529641,-1,12,-2,-5,-33,-4,-8,-5
1501876875543666,-2,-30,8,1,17,2,-1,9
1501876875543666,0,23,-9,13,16,6,6,-1
1501876875551689,0,-11,-9,-3,-32,-5,1,15
1501876875551689,1,1,-8,4,0,-6,-5,-29
1501876875566665,-4,0,19,-7,-12,0,-3,-29
1501876875566665,7,1,-16,-1,-24,-2,0,20
1501876875567659,-6,-15,-14,3,25,-1,-3,-8
1501876875567659,4,39,8,-13,18,0,2,14
1501876875589639,-12,-13,-9,-6,6,-3,-8,-38
1501876875589639,6,4,-3,14,-9,2,6,3
1501876875589639,0,1,3,-19,-37,0,-8,-19
1501876875589639,-4,-18,-8,9,23,1,3,3
1501876875603699,-2,-4,-6,-10,-3,-3,-7,6
1501876875603699,2,24,-2,21,12,-12,-9,-15
1501876875611671,1,-3,6,-36,-18,13,7,20
1501876875611671,3,12,7,-11,-37,-5,1,-2
1501876875626699,4,-43,-38,-1,41,11,12,46
1501876875626699,-13,-28,28,9,-19,-5,-11,-57
1501876875627653,4,12,1,23,29,-6,-3,8
1501876875627653,0,13,10,16,-2,1,3,-8
1501876875649637,-1,-2,-1,6,3,-4,-11,-28
1501876875649637,8,3,-8,-8,-16,1,9,61
1501876875649637,-10,9,13,-11,-18,-2,-15,-73
1501876875649637,-1,8,-20,-9,12,4,0,9
1501876875663670,-6,35,3,16,-6,-9,-3,-36
1501876875663670,-4,-39,-8,-6,-7,3,4,39
1501876875671679,5,18,6,7,20,0,4,3
1501876875671679,-2,-4,-13,-6,-11,-3,-1,12
1501876875686666,8,7,-5,-15,-20,-3,5,32
1501876875686666,4,22,29,8,-20,2,-3,-52
1501876875687634,-8,-31,-15,-25,23,-5,0,48
1501876875687634,0,-9,2,1,0,5,-7,-10
1501876875709645,-2,7,22,25,-2,-3,-2,-3
1501876875709645,-4,-12,-4,-1,0,3,1,9
1501876875709645,0,-23,-2,11,35,-2,2,-2
1501876875709645,2,-4,-5,8,27,5,4,2
1501876875724637,-1,9,-12,-31,-44,-5,-4,10
1501876875724637,-2,2,0,16,42,-2,-6,-7
1501876875731709,0,18,0,-6,-46,6,7,17
1501876875731709,8,-18,25,10,2,-3,5,18
1501876875746700,-8,2,-13,-37,-18,-1,-12,-33
1501876875746700,-2,11,-11,0,43,0,-1,-3
1501876875747673,-4,3,0,19,-30,-12,-2,-5
1501876875747673,-4,47,5,-1,9,3,7,14
1501876875769648,-2,-34,19,9,-9,-1,-3,-15
1501876875769648,-6,-30,-20,-34,-30,-4,-5,-3
1501876875769648,8,40,3,24,39,5,2,3
1501876875769648,-7,-35,18,-14,4,-7,-5,-5
1501876875783711,4,11,-20,-6,-2,2,11,42
1501876875783711,-13,-12,-1,-5,9,-13,-20,-67
1501876875791685,5,16,1,5,20,9,4,11
1501876875791685,-5,-8,-8,10,-17,-5,-4,-30
1501876875806687,5,15,13,3,0,-5,-2,5
1501876875806687,5,-39,-19,-13,16,2,3,41
1501876875807640,-7,-15,3,-8,-51,-11,-4,-4
1501876875807640,-4,-21,-32,10,22,4,0,4
1501876875829653,-3,9,25,-20,11,4,-4,-24
1501876875829653,7,26,-13,-1,14,4,5,21
1501876875829653,1,-6,-5,0,-21,-6,-6,-20
1501876875829653,-3,-14,2,-2,-25,-6,-1,24
1501876875843675,4,-2,2,-5,17,-6,3,30
1501876875843675,-8,12,-1,8,22,15,-1,-92
1501876875850648,7,11,13,-10,13,-1,-2,28
1501876875850648,-4,-35,1,6,-23,-14,-4,-8
1501876875866707,-7,11,-7,-1,33,15,3,-10
1501876875866707,9,-9,9,-7,-5,-6,3,21
1501876875867679,0,-11,-6,10,-8,0,7,22
1501876875867679,0,30,-5,5,-10,3,-9,-9
1501876875889667,-2,-28,9,8,13,-9,-3,-17
1501876875889667,-5,-7,6,-27,-27,-1,-1,4
1501876875889667,-9,-3,-4,14,-4,0,-3,0
1501876875889667,9,21,5,-29,9,-1,4,24
1501876875903687,-6,3,-18,1,-10,-2,-9,-62
1501876875903687,-2,3,7,14,-17,-8,-2,12
1501876875911686,-9,-29,0,-17,-8,7,0,-23
1501876875911686,-1,-1,0,-16,30,0,-2,14
1501876875926696,8,26,7,13,-7,0,5,16
1501876875926696,-8,1,-3,1,-7,-2,-8,-10
1501876875927677,-2,-26,-14,7,-17,-11,-8,0
1501876875927677,-4,-5,-1,0,-6,3,-2,-18
1501876875949666,2,9,7,33,22,1,6,11
1501876875949666,4,10,2,-1,22,8,13,24
1501876875949666,5,20,5,4,-3,-3,-1,24
1501876875949666,0,-14,-11,5,-56,-9,-1,-18
1501876875972664,-5,0,-9,-37,39,6,-8,-17
1501876875972664,6,11,0,1,-1,0,8,44
1501876875973657,-11,-15,-5,6,2,2,-9,-37
1501876875973657,1,-12,10,-9,3,-4,1,-9
1501876875986689,7,23,-22,1,-41,-6,-4,3
1501876875986689,-5,-19,-1,-31,0,-3,-2,23
1501876875987684,-3,-1,3,-11,7,0,-1,19
1501876875987684,-3,7,3,0,-17,-5,-4,-30
1501876876009663,-2,-21,-11,22,21,0,5,27
1501876876009663,-6,16,18,-5,-12,-1,-12,-74
1501876876009663,4,7,-11,8,-7,-7,0,4
1501876876009663,-2,3,14,-3,5,4,1,12
1501876876032691,-3,-10,0,2,-18,-5,2,-22
1501876876032691,5,-4,-9,26,11,5,0,32
1501876876032691,-1,5,3,-14,-3,-2,-1,-19
1501876876032691,3,3,-9,6,14,-2,-2,-8
1501876876046714,5,-15,-2,-18,-14,0,6,34
1501876876046714,0,31,23,17,-9,-1,1,3
1501876876047706,-6,-12,-29,-11,21,0,-8,-17
1501876876047706,3,-14,0,-3,-5,7,5,34
1501876876069666,-5,13,7,9,-51,-13,-6,-17
1501876876069666,-1,0,-10,-13,60,5,5,-2
1501876876069666,3,8,5,11,-15,0,1,2
1501876876069666,-4,5,10,0,-2,-1,-4,-15
1501876876092724,-5,-16,-5,3,-5,1,-2,12
1501876876092724,7,34,-15,20,-1,-2,2,27
1501876876093690,-4,-20,11,-32,23,-1,-2,-69
1501876876093690,-1,-3,-6,10,6,0,-4,5
1501876876106699,-2,-13,5,-2,4,1,0,4
1501876876106699,-5,15,-5,-6,0,-2,-4,-15
1501876876107669,8,-13,12,10,-22,-4,4,15
1501876876107669,-3,-8,-7,1,5,-1,5,25
1501876876129669,-14,-4,-5,-11,-11,-4,-14,-36
1501876876129669,2,-6,-12,-4,6,3,3,22
1501876876129669,-3,0,-27,9,6,-1,-3,-2
1501876876129669,2,23,18,-3,-15,-5,-1,-20
1501876876151720,4,8,-1,-9,31,5,-1,-6
1501876876151720,-4,-27,-4,-17,-15,-7,-2,25
1501876876152672,-5,2,6,3,-27,-7,0,3
1501876876152672,9,33,-7,-1,36,9,-3,-57
1501876876166671,-4,-33,-12,-1,29,-5,0,4
1501876876166671,6,23,22,2,-8,-1,-2,-10
1501876876167672,-8,-64,-1,4,-11,2,10,21
1501876876167672,-2,-1,-11,-17,10,6,1,37
1501876876189675,1,-5,23,12,12,2,-2,-8
1501876876189675,-4,-15,-8,-2,-10,0,1,-15
1501876876189675,6,18,3,0,7,-4,-2,8
1501876876189675,-6,-13,-12,3,-6,-1,1,-6
1501876876212735,5,32,4,-6,-19,-1,-1,26
1501876876212735,0,15,-9,6,-17,-1,4,-2
1501876876212735,-1,-30,-1,6,-2,0,-11,-2
1501876876212735,-1,-18,9,-16,-18,1,-1,-15
1501876876226708,1,17,-36,-7,13,4,4,8
1501876876226708,4,-9,16,4,-17,-9,6,28
1501876876227673,-3,8,-17,-21,0,6,-4,-20
1501876876227673,-3,-10,-8,1,-9,-7,-4,1
1501876876249667,-1,-2,8,12,15,8,3,14
1501876876249667,0,-11,5,-12,-28,-1,0,8
1501876876249667,0,27,4,-2,26,0,1,4
1501876876249667,-10,-20,0,14,-44,-7,-8,-30
1501876876272707,10,34,25,5,20,1,6,11
1501876876272707,-7,-29,-17,-4,-6,-2,-5,-7
1501876876273669,3,25,-8,2,20,-2,1,-1
1501876876273669,3,9,17,-1,-26,-5,0,33
1501876876286712,-8,8,-14,-5,5,-2,1,-45
1501876876286712,-3,-8,16,-4,-1,-1,-10,-34
1501876876287679,6,21,-10,12,-3,7,4,25
1501876876287679,-7,-6,-8,4,17,3,-6,-30
1501876876309685,1,5,0,3,-24,-6,-7,4
1501876876309685,1,-8,-1,-1,32,-2,2,-5
1501876876309685,-7,-3,8,-7,-19,-1,0,14
1501876876309685,4,-7,-6,-5,19,-1,2,2
1501876876332686,-7,-20,7,5,-6,-10,-4,1
1501876876332686,3,10,-5,4,-8,0,-4,0
1501876876332686,3,6,3,10,-11,0,7,12
1501876876332686,4,5,-13,-21,5,3,5,-2
1501876876346671,-5,-25,-14,-4,-19,-8,-4,-26
1501876876346671,-7,-12,-2,0,-3,2,-2,6
1501876876347683,1,-2,11,3,-11,-6,-7,-10
1501876876347683,4,7,12,5,30,17,12,30
1501876876369703,-4,-18,-6,9,-1,-4,-3,12
1501876876369703,-2,-1,-8,-22,-1,-10,-9,-27
1501876876369703,-2,0,2,18,55,2,-3,-1
1501876876369703,-3,-1,-2,8,-18,-2,1,8
1501876876392743,4,6,4,2,-9,8,2,12
1501876876392743,-5,-3,11,5,2,-3,2,-2
1501876876393675,-1,9,-13,-5,-35,4,-1,-17
1501876876393675,0,9,20,-11,12,-6,-3,32
1501876876414745,3,-8,-5,12,6,0,-1,18
1501876876414745,-1,0,-4,-2,-22,5,8,-4
1501876876415686,-9,-15,-4,9,21,-8,-7,-30
1501876876415686,-5,-8,-14,-30,1,2,-5,-25
1501876876429675,8,11,21,-1,-17,-6,5,31
1501876876429675,2,-5,-17,10,26,5,0,17
1501876876429675,-3,-6,4,3,-9,-7,-5,-26
1501876876429675,-2,-25,-20,2,-19,-9,-5,-1
1501876876451743,-12,-9,-1,8,1,8,-2,-14
1501876876451743,10,4,-27,-26,-1,0,4,40
1501876876452692,-4,22,10,12,2,-4,-2,-32
1501876876452692,-4,1,3,-6,1,-3,-2,-15
1501876876466746,1,-1,-7,-18,-27,-8,-3,-4
1501876876466746,-3,1,3,16,8,6,3,10
1501876876467694,3,1,5,0,-2,-7,-2,-3
1501876876467694,-1,-2,-6,14,15,8,-2,-7
1501876876489690,2,20,9,2,5,5,5,-11
1501876876489690,1,-15,3,7,4,1,-1,-5
1501876876489690,-6,-15,7,-15,-11,0,0,18
1501876876489690,2,13,-6,2,-17,-9,4,-3
1501876876511714,1,0,-7,-7,15,6,-4,3
1501876876511714,-3,7,3,2,-3,-8,-5,-22
1501876876512682,8,2,-12,-13,8,2,9,67
1501876876512682,-10,-28,20,48,-9,-13,-6,-56
1501876876526749,3,32,-21,-36,30,7,-3,-30
1501876876526749,-1,-19,8,1,2,4,-3,-10
1501876876527693,-5,-13,-5,-10,-8,-3,-1,-13
1501876876527693,4,13,-3,6,-7,-3,6,43
1501876876549705,-6,-34,3,12,-50,-9,-8,0
1501876876549705,0,10,15,-17,33,0,0,1
1501876876549705,2,4,27,7,-5,2,-9,-5
1501876876549705,1,-5,-46,-19,9,9,1,-13
1501876876571725,-4,9,6,3,-23,-12,-1,-5
1501876876571725,-2,0,-18,-1,10,0,0,11
1501876876572695,1,27,20,8,-30,3,2,7
1501876876572695,5,16,-7,-9,28,-3,-4,-19
1501876876585750,-6,-55,-11,-14,20,2,2,11
1501876876585750,-6,3,-3,17,-13,-9,-4,-19
1501876876594707,9,15,3,15,-31,-6,10,42
1501876876594707,-8,-39,-2,-36,45,13,-15,-72
1501876876609701,0,6,1,5,-3,0,-3,19
1501876876609701,-3,-1,14,-11,-31,-6,-4,3
1501876876609701,-3,-2,-16,-11,20,-3,0,-12
1501876876609701,0,17,13,3,-19,-10,2,45
1501876876631726,1,-3,7,3,-8,0,2,-10
1501876876631726,-4,-18,-18,-4,2,4,-4,-28
1501876876632701,7,22,6,-7,-1,0,-1,-4
1501876876632701,-20,-2,13,26,-5,-5,2,-3
1501876876645757,1,-9,-21,-16,16,3,-6,-2
1501876876645757,4,26,12,16,-16,-6,0,5
1501876876661748,-8,-10,12,-9,6,4,0,-3
1501876876661748,11,5,-20,6,12,10,5,7
1501876876668722,-5,0,15,15,-15,-11,-3,0
1501876876668722,-4,-5,-7,-18,-5,-2,0,12
1501876876669690,0,-15,2,-5,-9,2,-3,-31
1501876876669690,3,13,6,-2,-18,-6,1,21
1501876876691752,-2,12,16,4,1,-2,-1,-8
1501876876691752,1,-25,-8,-4,-9,3,2,1
1501876876699711,-1,-12,-11,18,35,1,-2,-6
1501876876699711,1,6,5,-33,-4,-5,-1,15
1501876876705766,-4,10,-6,7,-1,1,-1,-45
1501876876705766,0,3,1,13,40,3,0,-11
1501876876714711,3,14,-2,-8,-3,1,1,30
1501876876714711,-5,-10,6,10,-19,-5,-1,-11
1501876876729712,-4,-19,-19,-19,-13,-7,-9,-8
1501876876729712,1,17,5,-4,2,-2,-3,1
1501876876729712,0,-2,-18,-4,19,7,-3,-8
1501876876729712,2,13,3,6,-11,2,1,5
1501876876751727,5,7,0,6,-6,-1,7,20
1501876876751727,-3,-12,-21,1,11,-15,-1,8
1501876876752706,-4,-10,0,-5,-15,7,-11,-33
1501876876752706,3,-9,20,-10,5,2,4,27
1501876876765739,2,-3,2,18,29,5,0,-4
1501876876765739,-7,-4,0,-5,-19,-9,-8,-22
1501876876774707,-6,-9,-19,-8,-9,-7,-3,-2
1501876876774707,0,8,0,13,3,-1,-3,11
1501876876789714,-1,-11,5,-16,-46,-12,-1,16
1501876876789714,0,2,-6,-7,49,12,-3,-32
1501876876789714,3,4,8,-3,-6,1,7,34
1501876876789714,-4,-23,-6,11,-26,-4,-4,-30
1501876876811737,-1,8,-10,-16,20,2,3,35
1501876876811737,3,29,-8,-2,-32,-6,1,2
1501876876812709,-10,-25,-10,-4,-39,-12,-10,-45
1501876876812709,2,15,-7,6,42,6,3,23
1501876876825699,1,-9,7,16,11,-3,-3,-17
1501876876825699,-4,-24,3,0,-9,8,2,14
1501876876834717,3,6,-5,-3,0,1,10,6
1501876876834717,0,30,-1,10,-17,-11,-17,2
1501876876848736,-2,-39,6,-4,-15,4,1,-15
1501876876848736,-12,-13,9,-24,43,8,-5,-19
1501876876849736,-2,-8,-15,-6,-5,-1,0,0
1501876876849736,1,2,-4,-6,-2,-4,7,27
1501876876871743,-7,-1,0,-1,-24,-13,-12,-40
1501876876871743,4,2,15,4,-3,0,-2,9
1501876876872713,2,3,11,-3,4,0,2,7
1501876876872713,-6,-2,-8,4,-6,-3,-4,-23
1501876876894742,1,24,3,-1,8,4,2,-3
1501876876894742,4,-1,-1,-2,-14,1,4,15
1501876876895737,-5,4,-8,0,-12,-9,-6,-7
1501876876895737,0,-12,7,-17,-2,-6,-2,3
1501876876908747,4,8,6,2,4,1,4,28
1501876876908747,-3,-17,-6,1,-27,-18,-2,-6
1501876876909736,-1,17,5,1,28,19,5,10
1501876876909736,1,-11,-11,-9,3,4,0,0
1501876876931766,3,1,0,1,3,-4,1,-9
1501876876931766,4,15,2,6,5,6,2,24
1501876876932718,-3,-15,1,-9,-14,-14,-5,-8
1501876876932718,0,15,-1,8,-6,-1,-1,-4
1501876876954756,-2,-25,0,17,33,6,1,-15
1501876876954756,10,43,-1,3,-18,0,8,18
1501876876955740,-6,-1,-13,-19,-1,-6,-12,-44
1501876876955740,0,-20,0,3,4,4,6,19
1501876876969729,-5,18,6,3,-21,-6,-14,-14
1501876876969729,-3,-2,-2,18,23,9,-1,2
1501876876969729,-2,-18,-10,-14,-4,-8,0,-9
1501876876969729,3,14,3,-7,13,7,3,-3
1501876876991778,1,7,14,-9,-21,-6,2,42
1501876876991778,-4,-30,-8,3,1,-9,-3,-27
1501876876992720,1,18,4,5,8,4,1,4
1501876876992720,-2,-12,-2,19,17,8,-2,4
1501876877014768,0,16,-8,-10,-11,1,3,-1
1501876877014768,1,-8,-1,-5,-18,-10,-4,13
1501876877015727,2,14,2,25,-21,-1,1,28
1501876877015727,-7,-11,3,-30,2,-2,-4,-65
1501876877028758,6,1,-27,-7,12,8,8,16
1501876877028758,2,0,-12,5,14,2,-2,0
1501876877029743,0,-4,5,0,-6,-7,-3,0
1501876877029743,-2,-5,16,7,-20,-9,-4,-1
1501876877051784,-5,-4,-6,-6,-2,3,1,14
1501876877051784,4,16,5,-8,-24,-5,1,-5
1501876877052725,-6,-11,-3,13,48,7,-1,0
1501876877052725,3,-17,-12,-4,0,-5,-2,11
1501876877074784,-1,1,-6,-1,7,3,1,-7
1501876877074784,-2,2,7,6,-19,-2,2,23
1501876877075746,-2,-4,0,-15,-15,-3,-2,10
1501876877075746,0,-1,-6,-1,21,0,-4,-20
1501876877089729,-6,1,4,6,-15,-3,-6,-14
1501876877089729,1,25,4,-11,1,-6,-2,-2
1501876877089729,2,11,2,21,6,-2,-2,-10
1501876877089729,1,-20,-24,-20,-2,5,2,21
1501876877111783,-3,-9,8,-1,15,4,8,0
1501876877111783,-2,1,-2,-2,-6,3,-7,-8
1501876877112728,-2,4,15,-2,3,-3,0,1
1501876877112728,5,19,2,2,-19,-9,0,12
1501876877134780,0,-15,-2,17,1,-7,-1,-1
1501876877134780,-7,-13,-6,-12,20,11,1,-13
1501876877135716,1,4,-3,-6,6,-4,0,8
1501876877135716,0,13,-3,10,-16,-3,-5,4
1501876877148718,2,13,4,-13,-2,5,5,12
1501876877148718,-2,-35,-8,3,-1,-2,7,22
1501876877149752,1,8,-2,-12,-4,3,-13,-50
1501876877149752,-4,0,-3,6,-6,-7,-5,-4
1501876877171783,-3,4,13,-4,-3,-4,-5,-22
1501876877171783,0,-27,2,7,-7,0,1,11
1501876877172731,-1,-6,-3,-2,0,-4,3,13
1501876877172731,4,16,-1,-28,-49,-5,2,-11
1501876877194788,-9,-36,4,12,38,3,-2,28
1501876877194788,1,4,0,12,5,2,-3,-1
1501876877195733,-1,-5,3,8,-1,-2,2,-1
1501876877195733,-5,-7,12,-14,-7,-8,-3,-27
1501876877208788,2,18,-20,-10,-22,4,1,4
1501876877208788,2,6,24,2,17,-2,0,-16
1501876877209758,2,-20,-14,3,-13,-9,4,18
1501876877209758,-2,-6,0,19,16,22,5,-8
1501876877231764,3,18,1,-9,6,-6,-3,-10
1501876877231764,-3,-12,-6,-2,-8,-1,-2,1
1501876877232734,-1,-16,-4,-6,-11,3,-5,-5
1501876877232734,-4,-7,-16,-1,16,-7,-2,6
1501876877254764,4,-4,-8,-8,0,-5,-5,0
1501876877254764,-5,17,10,12,-23,-2,-3,-6
1501876877255759,-3,3,-10,-25,-4,-4,0,5
1501876877255759,-3,-24,1,-8,19,2,-1,7
1501876877268792,1,-5,-5,8,6,2,2,6
1501876877268792,-3,11,-1,-6,-14,-6,-2,0
1501876877269758,2,29,14,-5,-3,4,6,19
1501876877269758,-5,-24,10,9,25,1,-9,-32
1501876877291791,0,-4,-14,1,-11,-1,-5,0
1501876877291791,-3,-17,-17,-10,3,-4,-2,-12
1501876877292739,-2,-4,-5,6,2,2,1,1
1501876877292739,2,31,10,21,-34,-8,1,15
1501876877314793,7,0,8,-13,44,13,5,9
1501876877314793,-2,-4,8,0,2,1,-4,-10
1501876877315735,1,-6,4,3,7,3,0,7
1501876877315735,-1,-3,-2,7,-12,-8,-1,0
1501876877328793,1,1,-4,2,-28,-7,-3,11
1501876877328793,2,16,-7,-7,9,-3,-3,-26
1501876877329764,-4,-11,8,-2,-4,3,4,24
1501876877329764,-3,-5,0,-17,-6,-3,-2,-25
1501876877351791,-5,-11,-7,11,2,-2,2,-24
1501876877351791,-1,2,5,5,20,10,-1,1
1501876877352742,4,1,15,18,6,-6,-5,-3
1501876877352742,-1,6,-11,-31,-6,0,-3,12
1501876877374770,2,8,-2,-5,-14,4,6,13
1501876877374770,3,8,-3,-3,0,-1,0,-3
1501876877375731,-5,-21,-11,-6,4,-1,-3,-5
1501876877375731,-2,0,4,14,-7,-8,0,18
1501876877388795,-5,-2,-7,-20,-4,-9,-8,-8
1501876877388795,7,6,-9,3,8,1,5,11
1501876877389766,0,6,14,6,-12,1,-3,2
1501876877389766,-4,-9,-25,-1,8,-1,-2,-6
1501876877411774,-5,6,14,1,-20,-5,-3,-18
1501876877411774,0,7,-17,10,-9,-7,1,12
1501876877412735,1,10,12,-32,-20,5,0,-5
1501876877412735,3,-12,4,3,12,-7,-6,5
1501876877434778,-4,-17,-5,-1,38,12,1,-12
1501876877434778,-1,4,-1,-2,-9,-5,-5,-8
1501876877435737,-1,-12,-16,4,10,4,5,23
1501876877435737,1,9,7,-3,-29,-1,0,-12
1501876877448809,-1,7,-1,4,2,-9,-5,-9
1501876877448809,0,-18,2,1,7,-3,0,28
1501876877449766,1,10,7,6,-3,2,-2,-6
1501876877449766,1,10,2,0,-2,1,4,6
1501876877471797,-1,16,-18,0,-9,-5,-3,6
1501876877471797,-4,-17,10,20,13,2,2,-6
1501876877472748,0,-29,-23,-10,-21,4,0,4
1501876877472748,-2,-11,-1,-4,36,0,0,-18
1501876877494779,1,0,9,-2,-11,-3,0,14
1501876877494779,0,14,8,12,10,7,-3,-6
1501876877495739,-1,7,-16,-1,8,-13,-5,-6
1501876877495739,-2,-31,-6,-4,-2,3,3,12
1501876877508789,0,-1,8,8,-4,0,-1,0
1501876877508789,-3,3,3,11,-7,-5,-6,-13
1501876877516807,-6,-8,-1,-7,10,-1,3,-29
1501876877516807,-2,12,7,3,-6,1,-5,27
