timestamp,emg1,emg2,emg3,emg4,emg5,emg6,emg7,emg8
1501874877597946,-6,-24,-34,41,2,-2,14,-10
1501874877597946,27,1,-16,-21,-2,2,5,99
1501874877598918,11,49,80,100,23,3,10,-86
1501874877598918,17,29,-31,-83,-9,-10,-22,65
1501874877599941,-33,-55,-19,-23,12,5,-1,-62
1501874877599941,-7,-8,18,29,-11,-1,-2,-47
1501874877599941,21,10,-1,60,14,9,4,117
1501874877599941,3,17,10,3,-4,-8,-4,-22
1501874877604948,13,-21,-3,-35,-28,-7,-4,41
1501874877604948,-44,2,2,89,51,5,4,-67
1501874877612907,46,20,-15,-80,-20,3,1,74
1501874877612907,-75,-101,-5,-50,14,-3,-6,-79
1501874877625961,13,37,-14,-43,-1,5,6,78
1501874877625961,12,-5,55,-24,6,8,1,-56
1501874877637912,-29,-31,4,45,-47,-17,-25,-58
1501874877637912,40,46,-43,-90,-20,-3,22,56
1501874877640951,10,-34,-6,34,-4,-4,-2,21
1501874877640951,-10,-5,25,18,14,2,3,-22
1501874877664955,-14,-7,-59,-57,-23,-10,-12,1
1501874877664955,0,10,0,23,-14,7,1,-1
1501874877703930,-6,-95,-23,34,24,5,-1,2
1501874877703930,12,25,-28,1,-25,6,-1,-14
1501874877704921,5,-47,-23,-94,-16,1,16,88
1501874877704921,7,18,47,29,33,0,-1,-13
1501874877705930,-19,13,18,88,-17,1,-4,0
1501874877705930,22,7,-12,-37,-34,-9,-7,-4
1501874877708975,-4,-35,-52,26,-1,-1,-6,-16
1501874877708975,0,9,-6,-51,-2,2,7,2
1501874877715979,26,60,36,-2,-6,-4,5,33
1501874877715979,3,-15,-21,57,22,1,-2,17
1501874877722982,11,-34,47,49,-20,-2,-2,-35
1501874877722982,-13,-11,-31,-53,3,0,-5,-56
1501874877731916,-17,-29,-25,16,4,-3,-7,-4
1501874877731916,-2,33,54,-91,-6,-10,2,-2
1501874877746936,4,25,73,108,-4,-3,-3,30
1501874877746936,3,-23,-42,-78,-17,-4,-6,-13
1501874877760977,-6,91,28,-52,-12,0,11,51
1501874877760977,-3,-90,-32,-1,3,3,7,-8
1501874877767961,-15,15,24,-16,11,-1,-1,-10
1501874877767961,27,73,35,119,29,7,4,52
1501874877776929,10,-84,-48,17,-23,-5,-6,44
1501874877776929,-35,14,16,-53,-4,-6,-5,-17
1501874877791965,5,36,-11,3,-25,-2,8,42
1501874877791965,-26,-37,14,42,21,9,-7,-61
1501874877793918,23,35,-44,-84,13,1,-2,36
1501874877793918,-6,-22,-6,61,17,-4,-7,-39
1501874877814965,-9,-27,17,-33,6,-3,-6,0
1501874877814965,21,17,6,-55,-26,-11,-7,18
1501874877815921,-21,2,42,89,-3,-9,-7,-62
1501874877815921,25,-9,-50,7,-35,-2,5,68
1501874877827964,-17,44,-43,-16,22,-2,-8,-45
1501874877827964,7,13,28,43,9,-2,9,26
1501874877836931,-9,-43,1,-59,18,18,5,-18
1501874877836931,-15,-6,14,4,-30,-12,-13,-26
1501874877851988,18,30,25,1,28,6,6,0
1501874877851988,-7,-51,-20,5,-9,-2,-8,7
1501874877853941,5,16,-52,36,9,1,6,-13
1501874877853941,-4,61,46,-26,29,8,-1,-6
1501874877874989,-19,-42,-83,-26,-18,-4,-9,55
1501874877874989,2,-34,22,40,-10,2,8,11
1501874877875923,-7,-9,27,21,-4,-10,-10,-5
1501874877875923,-9,-11,-44,-37,-2,0,-8,-56
1501874877887958,13,28,27,6,-6,-6,3,-29
1501874877887958,-7,-17,-42,36,-14,-4,5,41
1501874877896945,1,20,17,49,34,11,-2,-43
1501874877896945,7,16,31,-62,-2,-4,1,40
1501874877911965,5,10,18,-3,8,4,0,-70
1501874877911965,-3,-14,3,27,-7,-9,-6,19
1501874877913957,-5,17,-17,-78,-39,-5,-3,-51
1501874877913957,3,-9,-25,-7,18,1,-1,34
1501874877934998,-6,-4,-35,-18,-7,2,-4,-40
1501874877934998,-17,5,-26,-42,-41,-2,4,-42
1501874877935926,24,44,14,20,27,-11,-4,88
1501874877935926,-12,-21,-2,73,15,2,7,-25
1501874877947992,1,-15,34,-46,22,6,-3,7
1501874877947992,-15,-21,-41,-49,-5,-1,-11,-34
1501874877956948,-6,5,-3,70,-22,-5,-3,-21
1501874877956948,3,13,53,11,-11,-1,8,-2
1501874877971992,-27,-48,-30,-1,23,3,-3,10
1501874877971992,24,64,56,64,-13,-5,1,16
1501874877973928,-19,-31,8,-108,-10,1,1,-59
1501874877973928,-3,5,18,60,11,-4,-6,-5
1501874877994993,2,33,2,30,9,4,3,28
1501874877994993,11,-9,-54,-54,-1,1,-9,0
1501874877995930,-5,-30,-26,2,-20,-8,7,66
1501874877995930,4,2,29,38,-4,1,8,-12
1501874878007970,-6,3,11,-31,2,3,-7,-21
1501874878007970,-8,17,6,-1,12,2,-7,-6
1501874878016946,4,3,17,21,6,6,-4,-8
1501874878016946,-10,-17,-9,-19,-23,-9,-2,3
1501874878031952,22,12,3,83,-19,-6,5,2
1501874878031952,1,2,-32,-65,-3,-3,1,30
1501874878037996,-4,-15,10,-22,6,3,-2,-30
1501874878037996,0,-8,-62,8,14,8,1,9
1501874878054979,-5,5,-51,-5,-41,-17,-10,-18
1501874878054979,-5,-16,25,-1,9,8,2,-15
1501874878055933,11,9,-10,-20,15,-2,0,7
1501874878055933,7,22,38,10,3,3,6,9
1501874878077000,-11,-31,-82,-18,-12,-6,-5,-15
1501874878077000,-14,-29,-11,-24,-4,-5,-2,-2
1501874878078934,6,32,36,-11,-1,3,5,30
1501874878078934,1,-8,-2,48,1,2,1,9
1501874878091974,-1,-12,-7,21,-5,-4,-2,1
1501874878091974,-10,-1,38,17,43,7,8,-17
1501874878093952,-9,2,-11,-5,-18,-3,-1,-31
1501874878093952,22,12,52,7,10,1,0,52
1501874878115000,-12,-7,7,-11,-8,-1,0,-14
1501874878115000,2,12,-17,38,1,3,8,2
1501874878115936,7,4,-8,-27,-6,-3,-2,-21
1501874878115936,-21,0,-36,23,-6,-6,-8,-3
1501874878136983,-12,-22,58,-1,1,0,-1,-27
1501874878136983,10,9,-2,-8,-13,-11,-3,14
1501874878138976,-3,14,6,-37,15,13,6,1
1501874878138976,-12,-69,-7,2,-2,3,-12,-39
1501874878152003,6,10,-18,-22,-11,-4,1,34
1501874878152003,-3,10,-4,-66,0,-1,-2,12
1501874878153938,9,-16,24,10,-41,-6,4,14
1501874878153938,-3,17,-10,65,49,5,-2,-21
1501874878174991,5,12,19,-29,-4,3,-1,1
1501874878174991,7,-8,-22,9,4,-3,-4,8
1501874878175943,-8,16,14,-4,-2,-4,-4,11
1501874878175943,-9,-6,26,-8,-7,1,2,-6
1501874878196982,-6,-33,-58,-7,-17,-3,-4,-15
1501874878196982,9,59,47,13,2,3,5,8
1501874878198942,-2,-78,-58,-37,-4,-5,0,18
1501874878198942,-9,14,33,-45,-7,-6,-8,-15
1501874878211962,14,4,43,56,-2,-10,-1,9
1501874878211962,-9,-8,15,-1,-15,8,-1,-11
1501874878218009,16,33,8,-25,13,5,3,3
1501874878218009,-7,-32,-11,75,12,-2,0,-3
1501874878234979,3,28,-4,-53,-20,-4,-3,7
1501874878234979,-8,6,52,63,-3,-1,2,-14
1501874878235946,0,-49,-3,-20,-5,-5,-4,5
1501874878235946,1,9,-21,-22,-15,3,0,-15
1501874878257008,7,26,-3,30,10,7,6,12
1501874878257008,-8,-20,-19,14,19,-4,-6,5
1501874878258977,-12,10,10,49,5,0,-1,-36
1501874878258977,5,15,16,-128,-16,-3,6,2
1501874878271976,7,3,9,31,15,1,-3,14
1501874878271976,-10,-20,-20,-10,-6,-1,-1,8
1501874878277980,6,36,-30,44,-5,-6,-6,-4
1501874878277980,-1,-36,8,-13,-14,-2,-3,12
1501874878295002,-5,17,7,8,32,6,0,-23
1501874878295002,10,-18,-39,5,-4,1,0,33
1501874878295948,-16,-22,16,-24,-12,-5,-1,-8
1501874878295948,6,26,30,-6,11,2,3,-9
1501874878316993,4,-17,-12,-56,4,-5,-23,15
1501874878316993,0,25,22,54,-12,-3,21,-11
1501874878318949,6,-7,-9,22,-5,5,6,-4
1501874878318949,-3,1,-16,-8,0,-2,-4,11
1501874878331987,-6,-19,41,-9,0,-4,-4,-7
1501874878331987,-3,-5,-37,-60,-36,-8,-10,-5
1501874878338023,-5,1,-6,20,46,9,-7,-20
1501874878338023,4,9,-40,-26,-6,2,-7,-3
1501874878354950,4,5,70,36,8,1,11,5
1501874878354950,-4,-19,-33,-10,2,-1,6,-1
1501874878355960,1,17,-1,25,-4,4,4,-5
1501874878355960,-5,-18,10,-11,-38,-10,-2,5
1501874878376951,7,12,-31,18,21,2,-6,12
1501874878376951,2,-3,-8,-1,1,1,-6,-24
1501874878378961,-1,12,45,29,6,-2,-4,19
1501874878378961,0,-16,-93,-39,8,-1,-4,12
1501874878390984,3,12,30,-29,-29,-3,21,-5
1501874878390984,-6,17,-9,22,12,8,-3,-23
1501874878397993,2,-34,13,-79,-20,-4,-10,11
1501874878397993,7,12,0,12,4,-2,-9,8
1501874878415019,-2,2,-18,7,7,7,10,-4
1501874878415019,3,11,14,-15,19,2,29,3
1501874878415956,-4,-4,-27,39,-2,3,-13,-8
1501874878415956,4,9,9,10,7,-13,1,2
1501874878436959,-7,-8,-83,-56,-80,-15,-27,-3
1501874878436959,2,-6,70,22,66,9,-14,-3
1501874878438988,-15,-1,15,37,-6,-6,35,-12
1501874878438988,0,-40,-33,-53,4,6,31,3
1501874878451028,1,10,-11,-14,25,10,-3,6
1501874878451028,2,-6,-5,-27,-10,-9,-16,-2
1501874878458001,5,17,1,12,-8,-7,-19,0
1501874878458001,-3,12,34,33,-79,-2,-10,-4
1501874878474957,-5,-8,-34,17,87,4,-3,-10
1501874878474957,-5,-17,-6,-34,-43,-7,0,9
1501874878475958,1,8,20,-43,21,-2,-15,-8
1501874878475958,8,21,-24,22,0,4,17,9
1501874878496957,-17,-20,16,-11,-17,-9,-2,-25
1501874878496957,-3,-3,22,19,-13,-11,-11,-16
1501874878498957,1,10,-53,-12,-2,7,-4,16
1501874878498957,-5,-14,20,22,11,-2,-14,-32
1501874878511960,7,-6,6,-24,-7,2,20,42
1501874878511960,6,-11,-39,-6,-3,0,4,12
1501874878518025,-9,21,51,13,-8,-2,-6,-36
1501874878518025,7,-3,-21,10,37,7,4,33
1501874878535031,0,-10,-6,25,-2,-3,-4,-17
1501874878535031,-1,1,18,-54,-37,-1,-7,4
1501874878535962,4,0,3,62,43,-7,-5,-15
1501874878535962,-6,12,-26,-88,-7,0,-4,3
1501874878557002,0,18,7,58,-13,-1,10,-6
1501874878557002,-8,-31,-7,4,-15,-2,-3,-6
1501874878558962,-3,4,-4,-32,-6,-1,2,4
1501874878558962,-5,-14,5,27,18,0,-5,-4
1501874878571024,9,9,5,3,0,1,6,18
1501874878571024,-16,-24,22,34,-32,-2,-4,-32
1501874878579987,-4,-25,-27,20,-60,-8,-5,-7
1501874878579987,-1,20,32,-13,80,3,3,15
1501874878595018,3,-15,-6,5,-21,-3,-12,3
1501874878595018,3,25,-4,35,17,-1,2,7
1501874878595966,-4,-21,-12,-36,13,4,6,-15
1501874878595966,5,11,25,21,-30,-3,-2,-2
1501874878617033,-11,19,31,1,-10,5,-1,-20
1501874878617033,7,-6,-49,-2,36,4,5,23
1501874878618998,1,20,24,0,-26,-8,0,8
1501874878618998,-10,-18,-6,18,18,1,4,-11
1501874878631014,-1,-4,-21,-88,5,-1,-16,4
1501874878631014,-5,2,2,28,-20,-6,-4,-11
1501874878640000,-4,7,6,28,-2,-8,4,1
1501874878640000,2,-5,-22,9,-61,-9,-13,3
1501874878655034,5,-3,3,4,34,20,17,5
1501874878655034,3,4,-5,-45,29,1,-5,8
1501874878655968,-11,-5,0,21,29,3,5,11
1501874878655968,0,38,8,56,-22,-7,-7,-32
1501874878676035,-4,-35,19,-53,-30,-9,-4,-12
1501874878676035,9,12,-29,-31,-5,-1,-1,40
1501874878684980,4,0,5,9,-59,-2,3,-48
1501874878684980,21,5,46,-37,49,6,-5,59
1501874878700025,-33,8,8,42,25,3,1,-32
1501874878700025,9,15,-10,0,30,1,-2,18
1501874878700976,3,-40,-37,-39,-25,-3,2,50
1501874878700976,-39,-13,11,-6,-32,-7,-8,-47
1501874878722032,18,4,-7,71,33,4,12,16
1501874878722032,-8,-10,42,-36,-37,-5,-9,-18
1501874878723972,4,6,-22,-12,17,4,0,-39
1501874878723972,13,15,-7,-7,19,-3,-4,37
1501874878736987,-1,-20,-14,11,0,-2,-12,-13
1501874878736987,-1,18,22,32,4,-1,5,-13
1501874878743035,-1,-18,-24,-77,-63,-4,-4,5
1501874878743035,1,-13,-8,-22,52,5,9,4
1501874878760021,9,30,-17,50,-14,-9,-6,3
1501874878760021,-5,-10,33,-3,-19,-2,-2,-11
1501874878760974,1,-5,34,-7,29,0,5,14
1501874878760974,-2,19,-51,-32,-24,-2,-2,-15
1501874878782041,-8,-5,-6,-16,-16,-6,-3,0
1501874878782041,-2,-1,-15,20,18,7,6,-31
1501874878784010,2,3,-8,-13,-26,-4,-7,31
1501874878784010,-6,-18,34,48,45,12,6,-12
1501874878796997,15,17,6,23,-23,-10,-2,1
1501874878796997,3,-2,-34,-8,5,4,-2,2
1501874878803041,-16,-5,11,14,23,0,-4,-5
1501874878803041,-1,-7,-69,-10,-41,-5,9,-7
1501874878820010,-2,-1,17,-36,-2,-6,-16,-2
1501874878820010,0,-3,13,4,-11,0,11,-1
1501874878820995,-3,-16,-15,0,25,-4,-13,-24
1501874878820995,7,-10,13,-7,-15,-2,4,31
1501874878842046,-7,-6,-6,4,1,6,1,-10
1501874878842046,-2,21,19,-51,-15,-12,-12,12
1501874878843979,2,-15,-10,30,29,2,2,22
1501874878843979,0,5,6,-6,4,-1,0,-30
1501874878857018,3,-7,-27,-5,-12,-2,5,6
1501874878857018,12,36,28,4,42,5,1,38
1501874878863012,-14,-6,-11,17,-38,1,-1,-34
1501874878863012,-1,1,0,-18,-25,-3,-3,11
1501874878880016,-5,-8,-26,-12,7,1,-1,-18
1501874878880016,-8,-20,-6,22,7,0,-4,-3
1501874878880982,6,16,19,-10,12,-3,4,0
1501874878880982,1,-7,-1,35,5,1,-5,1
1501874878902020,0,11,9,-12,-9,-3,3,-3
1501874878902020,-8,-14,-24,22,-13,-5,-3,-12
1501874878903992,0,8,-8,-17,-2,-1,-1,-8
1501874878903992,-3,5,-12,-18,-8,-1,-4,-7
1501874878916039,4,-28,50,5,19,4,8,17
1501874878916039,-12,-7,-21,25,-16,-9,-8,-35
1501874878923057,13,15,-26,-19,30,7,5,23
1501874878923057,-2,7,26,6,-19,0,0,18
1501874878939985,-9,-6,-1,-1,-21,6,-2,-31
1501874878939985,8,-1,-11,-16,56,-5,-6,-15
1501874878940985,-7,-13,-1,2,-9,-1,-1,-15
1501874878940985,1,9,-43,3,-8,-1,3,-6
1501874878962052,2,-3,24,-12,-8,-5,-1,24
1501874878962052,-4,0,-13,-4,-11,-4,-4,-4
1501874878964018,9,9,-15,-13,7,-4,-1,16
1501874878964018,-5,5,40,37,-12,1,2,-6
1501874878977013,1,5,0,-54,1,0,-2,-3
1501874878977013,3,12,4,-13,-22,-2,-2,14
1501874878983025,-7,-37,-63,29,27,0,-2,-5
1501874878983025,-1,-14,8,-57,-7,-2,1,-1
1501874878999998,1,13,58,28,-5,-3,1,9
1501874878999998,-4,6,-36,16,-21,-5,-5,-12
1501874879000988,4,3,17,-12,27,7,0,-2
1501874879000988,-7,4,48,14,-4,-3,-2,0
1501874879022035,-7,-11,-41,-1,2,0,6,15
1501874879022035,-2,-8,20,-5,-17,-2,1,-6
1501874879023990,-6,21,13,35,12,-3,-6,-14
1501874879023990,5,-17,-5,-21,-13,0,-2,-7
1501874879036060,-1,0,-11,-3,24,1,-1,2
1501874879036060,0,25,11,-16,-12,9,8,-19
1501874879045027,19,13,-19,-22,-28,-6,-2,56
1501874879045027,0,-9,-22,38,40,-4,-2,-1
1501874879059992,-2,3,47,21,17,3,-3,-5
1501874879059992,-1,-1,-44,-17,-12,3,3,-15
1501874879060990,-7,-1,42,23,26,0,0,-3
1501874879060990,6,11,17,1,-14,-1,1,2
1501874879082007,-3,-10,-70,-47,-53,-2,1,-5
1501874879082007,-5,-8,39,42,66,7,0,-3
1501874879083992,3,13,33,-4,-21,-3,0,19
1501874879083992,-4,-2,-30,3,-5,-4,-12,-5
1501874879096052,4,-9,37,20,-2,0,-1,-3
1501874879096052,2,1,5,-15,-3,-2,0,6
1501874879105011,-10,-20,-8,-10,-7,0,1,-7
1501874879105011,-1,0,-15,10,6,3,2,-26
1501874879120020,-3,-5,14,-4,1,-6,-5,19
1501874879120020,-6,-21,-25,3,-33,-6,-7,-8
1501874879120997,4,26,19,45,8,3,3,-20
1501874879120997,0,12,35,-3,14,2,1,17
1501874879142035,3,-19,-34,-13,-3,-6,-4,-3
1501874879142035,-9,-33,-9,-16,1,-2,0,18
1501874879143996,-3,14,-15,1,-15,1,2,-5
1501874879143996,5,-4,10,-24,3,-2,0,5
1501874879156036,3,24,16,88,9,1,0,-10
1501874879156036,-1,-8,-32,-48,-4,-5,-5,6
1501874879165009,-3,-10,32,-40,8,1,-3,-15
1501874879165009,-9,-12,-32,15,-40,-11,-4,-5
1501874879179998,2,10,39,12,47,1,-1,19
1501874879179998,0,4,27,22,-17,0,4,-2
1501874879181018,0,-4,-21,-19,-15,-3,-10,-8
1501874879181018,3,-5,-4,-9,7,0,-2,-1
1501874879202041,-8,12,15,-3,-13,-3,-3,-19
1501874879202041,3,11,9,32,18,2,-1,7
1501874879204001,-3,-2,-19,-67,-27,-10,-2,17
1501874879204001,-1,7,12,29,26,6,4,-11
1501874879216072,-8,-27,-67,-46,-17,-5,-5,15
1501874879216072,7,23,63,16,-6,-1,-2,-12
1501874879225016,-1,-16,-28,23,37,0,0,3
1501874879225016,0,10,-29,-37,-11,-2,-2,-12
1501874879240012,1,18,3,10,-6,0,3,1
1501874879240012,-4,-21,-8,-43,-15,-2,1,13
1501874879241004,-3,-20,-20,-3,-8,-6,-4,-12
1501874879241004,6,11,7,-6,7,5,2,9
1501874879262048,-15,-2,-14,-17,-12,-1,-1,-32
1501874879262048,0,-19,-63,-30,1,-9,-8,-1
1501874879264002,1,-6,-6,14,-16,2,7,13
1501874879264002,2,4,13,5,5,0,-2,4
1501874879276040,1,-8,10,22,13,2,5,12
1501874879276040,-1,4,-39,-19,12,3,-1,0
1501874879285004,0,25,-2,23,-10,-2,0,1
1501874879285004,3,-24,-7,-10,-4,1,4,7
1501874879300021,-3,-15,-8,-28,-8,-5,-3,-22
1501874879300021,-3,-6,7,34,0,-1,-3,-4
1501874879301006,-3,6,-25,-18,-4,-4,-8,-5
1501874879301006,-2,7,-6,9,-6,-1,-1,-8
1501874879322069,-1,-15,-14,-20,-15,-5,-4,-4
1501874879322069,2,17,7,21,-17,1,6,15
1501874879324042,5,-8,39,-18,23,2,2,-3
1501874879324042,-4,-2,2,-12,-4,-1,2,23
1501874879336032,-1,30,-5,13,6,1,-6,-41
1501874879336032,-4,-41,11,-18,-3,-1,0,4
1501874879345020,-9,1,31,11,-8,2,1,7
1501874879345020,-10,-17,-55,11,-7,-6,-6,-18
1501874879360026,8,30,-45,-38,19,8,6,27
1501874879360026,6,9,43,12,-25,-5,-4,-6
1501874879361011,-6,-15,-7,7,-2,-3,-3,-6
1501874879361011,0,-4,-2,-7,15,-1,-1,0
1501874879382052,-2,-9,-18,-33,-4,0,0,-3
1501874879382052,1,18,0,-4,4,1,0,7
1501874879384022,4,1,30,44,-31,-1,0,1
1501874879384022,-7,-3,-40,-51,15,0,3,-7
1501874879396044,7,4,45,23,-27,-6,-2,7
1501874879396044,-9,-6,-9,18,56,7,0,14
1501874879405033,-6,11,12,-10,-1,5,2,-58
1501874879405033,17,33,5,39,-7,-3,-5,20
1501874879420024,-5,-37,4,3,-2,-3,-4,1
1501874879420024,7,0,34,-2,-15,-1,3,8
1501874879421012,-9,10,-6,-22,16,0,-2,-8
1501874879421012,-6,3,8,41,-4,-3,0,2
1501874879442053,7,9,6,-12,-4,-3,-3,1
1501874879442053,2,20,-22,21,-19,-1,0,-4
1501874879444013,8,-5,6,-3,19,2,-2,8
1501874879444013,-14,-8,12,-29,-18,-3,-4,-14
1501874879465045,-2,-13,17,-4,19,0,1,23
1501874879465045,-3,5,-74,-6,29,5,0,-26
1501874879466016,-1,1,4,3,-12,-5,-2,7
1501874879466016,-2,-13,17,5,0,0,0,-4
1501874879480045,4,23,36,25,0,-3,-1,0
1501874879480045,-4,-8,0,1,-5,-2,-1,-3
1501874879481016,11,3,-22,-21,-14,-1,3,16
1501874879481016,-10,-19,-41,9,-10,-6,-7,-8
1501874879502083,-4,-2,-13,13,21,-2,-4,-21
1501874879502083,1,-4,42,-6,-5,1,-1,7
1501874879504040,-1,-7,-3,1,10,-1,-2,6
1501874879504040,1,4,-2,-5,-7,-1,0,-14
1501874879525032,4,-1,-13,-27,-44,-7,2,17
1501874879525032,1,7,-11,-25,37,14,5,7
1501874879526020,-6,0,3,45,-4,-5,-4,-5
1501874879526020,-4,-25,17,-27,-3,0,1,-2
1501874879540041,-2,11,10,26,0,-3,-3,-10
1501874879540041,-4,-25,-12,-22,-15,-8,-4,-6
1501874879541021,7,1,-23,-13,4,0,1,9
1501874879541021,2,12,-5,17,-20,-3,-1,-1
1501874879562084,-2,-12,10,16,38,9,2,-1
1501874879562084,0,-1,-20,14,-12,-4,-1,12
1501874879564020,7,18,-12,-18,23,5,3,-6
1501874879564020,-4,-12,60,14,-2,-1,-3,-5
1501874879585040,5,3,-32,-12,3,1,-2,-1
1501874879585040,-9,-9,5,28,-25,-8,-5,-9
1501874879586023,0,0,5,-37,10,1,2,9
1501874879586023,10,0,9,33,9,0,5,26
1501874879600038,-8,-3,41,-1,5,0,-2,-4
1501874879600038,2,0,-12,-6,3,-4,-3,-30
1501874879601024,-5,-7,-58,5,-6,1,-1,-2
1501874879601024,0,6,39,3,2,-1,-4,0
1501874879622087,-3,-15,-27,-39,-21,-6,-2,6
1501874879622087,-5,-6,35,35,12,-1,0,9
1501874879624048,1,17,-10,-14,-13,-2,3,3
1501874879624048,-1,-33,-29,-8,14,0,-4,-8
1501874879645040,-4,7,22,25,-14,2,-3,-7
1501874879645040,-2,-14,32,7,-3,-5,-3,1
1501874879646027,-2,-1,-22,-27,-6,-3,-2,3
1501874879646027,5,9,25,0,-1,-2,3,5
1501874879659074,-2,1,-48,3,7,2,2,3
1501874879659074,3,-2,3,1,1,-5,-3,5
1501874879666069,0,2,50,42,11,2,2,-3
1501874879666069,-2,13,-24,-35,-9,1,-1,-4
1501874879682090,-3,-12,-19,-24,-1,-1,1,1
1501874879682090,3,27,-2,14,-3,2,0,3
1501874879684040,3,2,18,-8,-15,0,1,-1
1501874879684040,-9,3,23,3,11,-3,-3,-4
1501874879705046,1,-4,-11,14,2,-1,-2,7
1501874879705046,10,28,-1,-5,-4,3,4,-5
1501874879706029,-19,-37,-9,-25,-1,-6,-7,-6
1501874879706029,-3,3,-16,-7,-10,3,-2,-18
1501874879719100,8,14,2,15,14,1,4,2
1501874879719100,-7,-8,11,7,-1,-1,-1,-12
1501874879726100,6,13,0,-4,-13,-3,-3,18
1501874879726100,4,-3,-15,-13,14,-4,0,7
1501874879742078,-9,-18,31,19,1,2,-1,-9
1501874879742078,-7,-6,-12,2,8,-3,-3,-16
1501874879744030,10,-2,22,-9,-14,0,2,1
1501874879744030,-3,15,-1,14,5,-1,1,6
1501874879765049,5,6,12,-6,-26,-4,1,5
1501874879765049,-10,-19,-11,6,5,2,-1,2
1501874879766034,-6,-21,-1,8,1,2,0,-3
1501874879766034,-3,-5,-14,-3,-7,-6,-4,-5
1501874879779073,2,17,18,33,22,0,0,-8
1501874879779073,2,-8,36,3,-5,4,2,10
1501874879786082,-9,-3,-2,-42,-15,-9,-5,-2
1501874879786082,2,-9,-10,1,5,4,-1,0
1501874879802073,-4,-3,-19,-6,-8,-8,-6,-5
1501874879802073,6,-9,-2,0,11,-4,1,21
1501874879804034,-3,2,-35,-18,4,3,-4,-7
1501874879804034,-2,6,40,6,2,3,3,-18
1501874879825047,-6,-5,-34,-17,-14,-3,-4,-10
1501874879825047,4,0,3,8,-16,-2,2,13
1501874879826044,0,3,-12,9,-2,5,4,13
1501874879826044,-1,5,-7,-5,15,-1,-7,-15
1501874879839069,5,8,0,-20,-8,-1,-1,10
1501874879839069,-1,-11,-42,-6,1,-1,-3,-10
1501874879846075,-6,-15,11,30,3,3,0,0
1501874879846075,-3,-17,-77,-40,-14,-6,-2,3
1501874879862092,-4,8,44,8,10,-2,-2,-2
1501874879862092,1,2,6,-18,-4,4,0,-1
1501874879864066,5,22,42,29,18,-1,2,-4
1501874879864066,-7,-38,-69,24,1,1,-1,1
1501874879885040,3,9,-1,-15,-15,-1,-2,0
1501874879885040,-1,-15,28,-18,-11,-3,1,2
1501874879886059,6,2,-26,27,5,-6,-5,-2
1501874879886059,-3,4,62,-4,-20,0,1,6
1501874879899048,-6,-16,-25,0,6,2,0,5
1501874879899048,0,29,-19,-9,32,4,0,-8
1501874879906047,-1,-10,-18,-18,-3,-4,-2,0
1501874879906047,-8,1,22,14,-6,-1,0,-1
1501874879922069,4,1,11,16,-22,-5,4,13
1501874879922069,-7,12,-10,-37,21,3,-2,-1
1501874879924042,2,-1,7,4,8,-3,-2,-4
1501874879924042,-4,12,2,-17,-14,-4,-3,0
1501874879945042,0,-13,10,24,18,8,2,1
1501874879945042,0,6,26,-14,-29,-11,-7,-10
1501874879946050,-6,-10,-27,7,-1,-3,-3,-3
1501874879946050,3,22,-4,-15,10,2,-3,-5
1501874879958045,2,-17,-4,-9,-4,-2,-1,0
1501874879958045,3,2,-9,20,8,4,3,9
1501874879967045,-10,-9,-28,-28,-13,-8,-8,-15
1501874879967045,8,7,31,8,-22,-2,0,16
1501874879982047,-3,0,3,-8,5,-3,-2,-14
1501874879982047,1,-1,-12,0,-2,1,2,-1
1501874879984045,-3,7,29,9,3,1,1,-2
1501874879984045,5,-3,-35,-10,7,1,1,-2
1501874880005046,-4,13,-9,-3,-16,-2,-3,-8
1501874880005046,-5,-33,8,-13,-2,-1,-3,-5
1501874880006048,-3,-11,2,-7,-10,-5,0,-4
1501874880006048,1,-22,23,2,3,0,1,8
1501874880018100,3,2,-30,-7,-1,2,1,10
1501874880018100,3,28,31,13,-1,-4,-2,-11
1501874880027058,-2,3,1,3,-8,3,2,11
1501874880027058,-5,-8,-16,-6,-8,-5,-2,-2
1501874880042113,1,1,11,-6,8,0,-3,-16
1501874880042113,3,4,20,7,-17,-4,-4,5
1501874880044058,7,9,15,3,-3,0,6,27
1501874880044058,-5,6,-17,7,23,8,-1,-42
1501874880065078,-6,-19,-29,-12,2,1,1,8
1501874880065078,10,14,-3,-1,-2,0,-1,-2
1501874880066082,-1,-17,33,5,-5,-1,-4,-7
1501874880066082,-8,-5,-19,1,-14,-7,2,16
1501874880078114,5,29,25,-6,17,2,3,-3
1501874880078114,-8,-48,-59,3,-4,-1,-2,0
1501874880087058,0,19,11,0,1,-1,-2,-8
1501874880087058,3,4,20,9,7,-1,0,5
1501874880102117,-6,-9,-23,-11,-4,0,-1,-2
1501874880102117,2,30,30,11,-7,-4,0,-3
1501874880104062,-3,10,-39,-31,5,2,5,7
1501874880104062,-1,-23,-20,30,-1,-3,-6,-2
1501874880125053,-8,3,34,8,2,-1,-5,-6
1501874880125053,-6,-2,-34,-7,-10,-2,-3,-5
1501874880126063,-1,19,13,-2,8,-1,-2,-11
1501874880126063,11,-20,-21,-26,0,2,7,24
1501874880138094,5,3,0,18,7,5,4,2
1501874880138094,-11,-17,-66,-26,-22,-6,-7,-36
1501874880147055,-11,-29,22,-1,14,-2,-3,-10
1501874880147055,3,21,8,11,-2,-1,1,5
1501874880162116,0,7,8,8,14,-1,-1,-8
1501874880162116,0,-5,5,2,-6,-2,0,21
1501874880164077,7,6,-25,-1,-10,0,-3,-5
1501874880164077,-6,14,-6,13,3,-2,-3,-10
1501874880185073,-3,-26,23,4,-9,-3,4,2
1501874880185073,-3,-3,18,-29,-17,-6,-9,-5
1501874880186057,-2,-18,-17,9,-17,-6,-1,-1
1501874880186057,3,7,25,6,34,7,0,20
1501874880198124,-3,2,-45,-22,-12,-3,-4,-28
1501874880198124,-1,3,2,10,16,3,2,4
1501874880207068,6,10,24,11,-1,3,1,2
1501874880207068,1,10,22,-6,-13,-7,-4,-4
1501874880222104,-2,-22,-19,8,-7,-1,1,9
1501874880222104,-2,-9,10,2,17,2,3,6
1501874880224059,1,15,-1,-6,-3,-1,-5,-12
1501874880224059,2,2,3,-15,-7,-2,-1,-5
1501874880245070,-5,2,19,-4,-2,-2,-1,12
1501874880245070,-5,-7,12,28,-5,-1,0,-10
1501874880246097,0,-2,21,-11,9,3,2,6
1501874880246097,-2,-15,-11,-5,4,4,5,20
1501874880258122,1,9,0,8,-15,-10,-7,-5
1501874880258122,-1,11,-3,-30,10,5,2,5
1501874880267101,-8,-37,20,1,-4,-4,-2,-7
1501874880267101,-2,4,-8,-15,-13,-3,-2,-13
1501874880282095,-1,-6,-3,0,2,1,0,11
1501874880282095,8,20,7,20,-7,1,1,5
1501874880288066,-2,-6,4,15,-5,-3,-4,-3
1501874880288066,-4,-5,-6,-13,-12,-2,-3,-9
1501874880305097,-2,10,-13,-2,11,6,7,14
1501874880305097,3,10,8,-2,-23,-11,-7,4
1501874880306063,-6,-9,-34,0,23,4,-3,-34
1501874880306063,0,1,-10,11,5,5,1,-4
1501874880318080,-2,3,10,-9,-5,-3,-3,-8
1501874880318080,5,15,-37,-18,3,1,1,6
1501874880327079,6,12,5,7,-12,-4,3,15
1501874880327079,-6,-23,5,15,-4,-6,-7,-11
1501874880342121,1,-6,-12,-9,9,3,1,3
1501874880342121,-6,-11,-1,7,8,1,2,-10
1501874880344071,2,13,6,-8,-5,0,-1,3
1501874880344071,-4,1,11,1,-3,-3,-2,-8
1501874880365091,-1,-10,-21,-5,-14,0,-3,2
1501874880365091,0,9,21,-25,6,-1,1,3
1501874880366075,1,3,-64,20,-16,-7,-5,-5
1501874880366075,-10,-32,11,-10,4,6,0,-11
1501874880378111,-5,-9,19,36,0,4,-1,-1
1501874880378111,-5,10,-23,-53,6,-5,-1,4
1501874880387079,8,-6,-3,-21,-1,6,6,18
1501874880387079,0,6,8,15,-11,-7,-8,-15
1501874880402073,4,2,-11,-1,20,-1,0,-5
1501874880402073,1,7,14,24,-12,-2,-1,1
1501874880404104,-9,-3,11,-12,1,0,1,8
1501874880404104,1,7,-19,-3,7,2,2,3
1501874880425081,0,8,8,-6,-8,-2,-1,-3
1501874880425081,-1,-15,29,13,5,0,-3,-5
1501874880426070,2,1,-8,-3,9,-1,3,8
1501874880426070,-3,9,-3,-3,0,2,-1,-3
1501874880447135,2,4,-7,-10,-6,-4,-4,-1
1501874880447135,-4,-23,-3,-1,-3,0,-2,-9
1501874880449072,0,-6,-5,3,-5,-1,-2,-3
1501874880449072,1,13,9,7,13,-1,2,5
1501874880462139,0,2,1,-21,-12,2,0,-1
1501874880462139,-2,17,-10,9,-21,-5,-3,-4
1501874880464084,-4,-38,-1,3,32,2,-3,0
1501874880464084,3,19,15,-16,8,-5,-2,4
1501874880485075,-2,-13,17,1,-6,-1,0,0
1501874880485075,-3,-2,-3,16,-3,-2,-1,1
1501874880486106,-8,-14,-9,4,-14,-4,-5,-12
1501874880486106,1,6,-33,-6,-7,-4,1,5
1501874880507139,5,-6,25,-16,-4,-3,-1,-1
1501874880507139,-9,-11,1,-13,1,3,-3,2
1501874880509076,4,18,13,37,-2,-3,1,7
1501874880509076,0,3,4,3,-1,0,-1,-10
1501874880522116,-2,2,-13,-10,0,1,1,2
1501874880522116,4,-3,-4,5,3,-2,-1,-7
1501874880524089,-4,-2,-1,-15,0,1,-3,0
1501874880524089,-2,1,-5,-2,-7,-1,1,3
1501874880545099,0,0,3,2,0,-4,-2,0
1501874880545099,0,-10,-5,2,3,0,2,3
1501874880546088,1,10,12,-3,-3,3,2,1
1501874880546088,-1,15,14,-1,-1,0,0,-9
1501874880567119,1,-8,-4,-5,-1,-4,-5,1
1501874880567119,-2,-12,-19,15,-3,-1,-3,1
1501874880569096,-3,-23,14,-6,-7,-4,-3,-4
1501874880569096,-1,-8,-10,-9,10,3,2,6
1501874880582143,-4,8,-15,18,-5,-7,-5,-5
1501874880582143,-1,-6,3,-9,5,1,0,-5
1501874880584094,2,29,-11,20,-28,-7,-4,-1
1501874880584094,3,-18,-22,-25,16,7,7,21
1501874880605103,-6,-7,13,-22,4,-1,-3,-17
1501874880605103,5,10,4,-4,-5,4,-1,1
1501874880606113,-10,0,-25,-10,-12,-7,-5,-7
1501874880606113,6,-3,14,3,-8,-4,-1,3
1501874880627120,-7,-22,-30,2,3,2,1,0
1501874880627120,0,15,2,3,-1,-1,-2,-1
1501874880629117,1,-2,23,-14,11,1,1,10
1501874880629117,0,-8,-10,6,-23,-6,-2,-5
1501874880641084,-1,12,0,9,19,-1,-3,-9
1501874880641084,-5,-31,-18,-12,-6,-1,-1,-7
1501874880648085,-1,13,-13,2,11,0,-2,-7
1501874880648085,-6,-6,26,-11,-9,2,-1,4
1501874880665107,4,-3,-11,8,-3,0,2,3
1501874880665107,4,31,12,15,-15,-3,-2,-1
1501874880666084,9,-15,-3,-12,28,4,4,9
1501874880666084,-12,-14,45,12,-4,-4,-6,-6
1501874880687126,-6,-17,-57,-20,-4,1,-1,5
1501874880687126,0,-2,-16,-13,9,2,0,-4
1501874880689117,0,7,28,23,-17,-3,-2,-7
1501874880689117,6,29,-9,-27,1,-4,0,1
1501874880701130,-8,-7,11,4,1,-3,-8,-12
1501874880701130,-8,-18,-18,-2,-15,-5,-2,5
1501874880708161,6,17,-9,-12,-1,0,1,-7
1501874880708161,4,-8,-5,13,5,1,-2,21
1501874880725112,1,33,28,-5,-25,-7,-2,-22
1501874880725112,-3,-21,-10,-8,27,7,2,-1
1501874880726097,-1,-11,-39,-1,-8,-2,1,3
1501874880726097,-5,5,17,-5,-16,-4,-4,-10
1501874880747150,3,3,1,-13,4,-5,-2,10
1501874880747150,-3,-3,24,46,10,0,0,2
1501874880749089,-6,-5,10,-4,11,3,0,-14
1501874880749089,2,1,-11,-15,-20,-6,0,3
1501874880761155,2,6,7,17,20,6,1,8
1501874880761155,1,-1,0,-24,-4,-5,-1,-8
1501874880768095,-1,-11,3,27,3,-4,2,10
1501874880768095,-3,-1,-44,-6,-5,3,-5,-14
1501874880785107,3,8,19,0,-4,-3,-1,11
1501874880785107,1,-4,15,5,8,0,2,12
1501874880786091,-10,-4,-32,-29,-4,-1,-6,-20
1501874880786091,-1,15,20,42,12,0,-3,2
1501874880807151,3,-13,17,-11,-7,-1,3,15
1501874880807151,-2,-11,-10,-6,-3,-3,0,-10
1501874880809093,-2,8,6,-19,-9,-4,-4,0
1501874880809093,1,25,-2,16,6,-1,1,-13
1501874880821159,-5,-53,-34,5,-3,1,2,10
1501874880821159,4,21,37,-9,-4,0,3,15
1501874880828093,0,-8,-15,0,7,2,-5,-24
1501874880828093,-3,-8,-4,7,-4,-2,-2,3
1501874880845113,3,16,1,2,6,-2,2,4
1501874880845113,-1,-2,-7,-13,-18,-5,-5,-1
1501874880846094,-4,-3,24,-6,16,6,2,8
1501874880846094,0,-9,-2,-1,6,1,2,0
1501874880867146,3,19,19,9,-11,0,3,-5
1501874880867146,-4,-14,-19,19,3,-5,-7,-8
1501874880869096,1,12,27,-3,-2,-3,-1,7
1501874880869096,0,-7,-28,-1,1,-3,-1,4
1501874880881116,-5,4,23,10,1,-1,-2,-11
1501874880881116,0,-9,-24,-11,-6,4,-2,1
1501874880888137,3,-1,-19,-26,-23,-3,1,8
1501874880888137,-7,-13,33,8,17,-2,-1,1
1501874880904160,5,44,4,-3,9,3,3,0
1501874880904160,-4,-26,2,12,-9,-1,0,-7
1501874880906108,-11,-34,-33,-2,-14,-5,-3,3
1501874880906108,3,8,10,0,11,3,0,-9
1501874880927170,1,9,-4,-1,0,-1,2,8
1501874880927170,2,13,1,-6,4,0,-1,2
1501874880929099,-2,6,33,4,-11,-1,1,-29
1501874880929099,-2,-12,-43,-6,-6,-3,-3,-1
1501874880941106,-5,-10,-8,-13,-5,-8,-6,-4
1501874880941106,2,3,18,6,5,1,4,5
1501874880950115,2,13,-21,5,8,2,-4,-1
1501874880950115,-2,-16,15,7,3,-3,-1,-1
1501874880965121,2,-15,-23,-1,-15,0,-3,-8
1501874880965121,1,18,-2,-20,-14,-6,0,9
1501874880966111,-4,-1,50,22,14,4,6,9
1501874880966111,-4,-2,-2,8,4,0,-8,-30
1501874880987119,-4,-13,-29,-29,-19,-4,-3,-1
1501874880987119,0,14,3,9,18,1,0,-2
1501874880989114,5,-6,9,-16,-7,-1,1,9
1501874880989114,-4,-6,-43,0,-12,-6,-3,-7
1501874881001103,1,-5,26,-5,3,-1,2,1
1501874881001103,0,14,-10,-13,-8,-2,-2,-8
1501874881010117,-5,-18,-10,0,5,-4,-7,-4
1501874881010117,3,8,5,-24,-4,4,4,14
1501874881024137,-4,-23,6,28,5,1,-5,-5
1501874881024137,1,9,-16,-6,-23,-4,-1,8
1501874881026104,4,21,-4,15,22,2,2,17
1501874881026104,-7,-16,-2,-1,-8,1,3,-9
1501874881047176,3,12,-9,-7,2,-1,-2,-1
1501874881047176,-5,-6,14,-16,2,1,-2,-11
1501874881049107,3,3,-9,41,-17,-6,-4,2
1501874881049107,2,-13,5,-25,10,0,-1,7
1501874881069108,-4,0,-8,-16,-1,1,5,3
1501874881069108,-1,17,22,27,7,-2,2,10
1501874881070109,0,-13,-12,-24,-9,-1,-6,-22
1501874881070109,3,17,15,13,-2,1,2,7
1501874881084172,2,-2,-31,-5,7,1,-1,2
1501874881084172,-3,-12,9,20,-2,-2,-1,-3
1501874881085109,2,16,-8,-27,4,1,3,4
1501874881085109,-1,-10,7,-12,-15,-5,-2,-5
1501874881106152,1,-4,17,-4,15,4,-1,1
1501874881106152,-3,-9,-22,-13,8,0,-1,-3
1501874881107110,2,17,29,3,0,1,2,0
1501874881107110,-6,3,-8,30,-3,-3,-3,-1
1501874881129160,4,16,1,-11,-10,1,3,2
1501874881129160,-1,-15,8,-7,4,-1,3,2
1501874881130110,0,-11,-5,-7,-1,-3,-1,7
1501874881130110,-4,-7,10,-1,-8,-2,-6,-9
1501874881144150,-3,0,-8,26,16,4,1,-1
1501874881144150,-2,1,-4,13,-5,-3,-4,-9
1501874881145112,0,12,25,-3,-1,-2,3,4
1501874881145112,2,-12,-29,-19,4,1,3,10
1501874881166158,-2,1,-4,22,-2,-2,-3,-4
1501874881166158,-4,-20,3,-15,1,0,0,-1
1501874881167126,-6,-10,-7,21,-4,-2,-7,-11
1501874881167126,-2,3,5,-26,-3,-1,-3,-3
1501874881189160,-2,9,-10,-8,-2,-5,-2,-4
1501874881189160,0,-5,-11,-5,-5,1,1,13
1501874881190116,5,13,8,-6,0,0,2,5
1501874881190116,-6,-7,-13,4,9,2,-2,-14
1501874881204180,0,-11,26,11,-6,-2,0,1
1501874881204180,1,5,-8,-3,-17,-5,-5,-7
1501874881205117,-4,-4,-30,3,21,5,1,5
1501874881205117,4,20,23,15,-2,0,1,4
1501874881226159,1,-11,25,-33,-16,-2,-1,2
1501874881226159,-4,1,-53,-5,11,2,1,-10
1501874881227127,-4,-43,-15,8,-31,-9,-9,-5
1501874881227127,-3,1,2,6,4,0,1,7
1501874881249183,3,13,2,21,-1,0,-1,-4
1501874881249183,-6,-14,19,-4,1,0,-8,-16
1501874881250118,0,8,10,23,-14,-2,1,-2
1501874881250118,-3,-15,-3,-1,1,-5,-1,-1
1501874881264157,-1,4,-5,7,-12,1,3,8
1501874881264157,2,6,21,24,11,-4,-5,-3
1501874881265119,-1,10,-51,-45,-1,2,-1,-2
1501874881265119,3,9,33,44,9,3,0,0
1501874881286168,-3,-2,0,-4,3,-2,-2,-3
1501874881286168,5,7,-7,10,1,2,2,0
1501874881287120,-6,-14,47,-18,-6,-2,-4,0
1501874881287120,2,1,-69,-36,-7,-4,-1,7
1501874881309189,-2,2,-9,-8,0,-1,-1,0
1501874881309189,-2,-4,17,6,-8,-1,-1,-1
1501874881310121,-1,4,7,5,-5,-1,0,0
1501874881310121,2,-8,-6,-9,4,1,2,8
1501874881324163,3,3,30,39,21,-1,-5,-14
1501874881324163,-4,-24,5,2,-8,-3,-2,8
1501874881325123,-6,11,-1,-9,3,2,1,-12
1501874881325123,-2,-11,-4,12,-15,-4,-8,-9
1501874881346184,-2,-7,-37,-51,-10,-2,-2,-2
1501874881346184,1,13,7,-6,1,-1,0,0
1501874881347130,3,1,13,-3,0,-3,-1,10
1501874881347130,0,-3,3,3,9,4,3,-1
1501874881369188,-5,5,1,18,1,-2,-1,-7
1501874881369188,3,16,15,-24,-9,3,2,10
1501874881369188,-6,-28,-44,8,-1,-5,-4,-5
1501874881369188,1,7,31,17,1,1,-1,-3
1501874881384144,-1,-6,-19,-26,5,-1,0,-1
1501874881384144,1,11,-5,-19,-15,2,1,-6
1501874881385127,-3,-8,7,8,15,3,1,3
1501874881385127,2,11,10,-10,-6,-2,-2,1
1501874881406165,-2,-10,-5,3,2,1,0,2
1501874881406165,-7,-3,13,-15,10,0,1,-1
1501874881407160,3,4,-27,21,-5,0,2,-1
1501874881407160,-2,4,27,41,-12,-4,1,5
1501874881429192,1,-3,-9,-77,-5,-3,-3,-8
1501874881429192,-1,13,-16,-1,13,2,1,-1
1501874881430128,0,-8,-12,-16,4,5,1,-2
1501874881430128,-2,8,5,-30,-4,-3,1,1
1501874881444162,-4,-14,-4,60,2,-1,-1,10
1501874881444162,1,16,13,5,1,-2,-4,-6
1501874881445130,-1,6,-9,-21,-6,-3,0,1
1501874881445130,2,-18,-13,-12,-13,-4,0,2
1501874881466151,1,8,15,6,0,3,4,5
1501874881466151,-4,-18,-20,4,3,-3,-12,-10
1501874881467163,0,12,-2,3,-3,-3,0,-5
1501874881467163,1,2,-2,7,10,0,-6,-5
1501874881489208,-4,1,-29,-64,-12,3,1,-1
1501874881489208,-4,-13,2,19,22,0,2,-1
1501874881490132,0,-4,18,1,-13,-2,-2,-2
1501874881490132,0,11,5,-7,5,1,0,5
1501874881504198,-1,-6,18,17,4,1,0,-5
1501874881504198,-4,9,-38,-23,-21,-7,-4,-1
1501874881505133,5,26,16,2,10,-1,1,-1
1501874881505133,-4,-27,-31,-50,-11,-5,0,-3
1501874881526174,-3,8,28,9,3,-2,-2,1
1501874881526174,-2,-8,-3,-20,-10,-3,0,-1
1501874881527145,-2,-13,-15,1,1,1,-3,-2
1501874881527145,2,20,7,4,1,2,2,1
1501874881549176,0,10,-12,19,-9,-5,-1,4
1501874881549176,-2,-31,6,-19,7,0,-8,-15
1501874881550138,-6,-6,1,52,-3,-2,-1,1
1501874881550138,-1,-13,4,-13,2,0,-1,-2
1501874881564207,2,1,-8,7,-3,-2,-1,3
1501874881564207,4,10,12,39,2,0,3,6
1501874881564207,-2,-10,21,0,-11,-3,-2,-2
1501874881564207,-2,-9,-9,-10,-1,-2,-3,-2
1501874881586171,0,-9,-8,-41,2,1,0,-2
1501874881586171,-3,-1,-6,-19,-6,-2,2,1
1501874881587138,-2,12,-9,6,10,1,1,-1
1501874881587138,0,-4,13,17,-2,-2,2,7
1501874881609205,1,6,-3,-11,-29,-6,-9,1
1501874881609205,-2,-8,-18,16,2,1,3,1
1501874881610139,-6,-5,6,3,16,0,-7,-4
1501874881610139,-4,-3,-1,7,-2,-1,1,-5
1501874881624205,4,20,-3,13,11,1,0,-2
1501874881624205,2,7,-1,17,-20,-3,0,6
1501874881624205,2,-7,9,-60,-9,-2,1,3
1501874881624205,0,13,-14,-8,8,1,-2,-5
1501874881646185,-6,-15,-5,8,-13,-3,0,-4
1501874881646185,5,8,42,15,11,1,0,5
1501874881647174,-2,-33,-61,-13,-1,1,1,0
1501874881647174,0,32,13,-1,-3,0,-1,-3
1501874881669182,-5,-29,-17,-2,4,1,2,-4
1501874881669182,-2,2,16,9,1,0,1,1
1501874881670150,3,24,-6,13,13,0,-2,-2
1501874881670150,1,-5,9,10,-7,1,0,4
1501874881684211,-6,-9,-13,8,10,-2,-3,6
1501874881684211,1,10,2,-22,-11,0,-5,-19
1501874881685149,2,4,21,13,-24,-5,-3,-5
1501874881685149,-3,3,-5,-16,29,2,2,1
1501874881706208,-1,-4,24,21,4,0,-4,-3
1501874881706208,1,-29,15,17,12,1,2,7
1501874881707154,-1,17,7,11,-2,-3,-2,-4
1501874881707154,-3,-18,-37,-9,-21,-3,-4,7
1501874881729184,-3,7,24,12,3,1,1,-11
1501874881729184,2,9,-13,3,8,0,1,1
1501874881729184,-2,-19,3,2,-7,-1,-1,1
1501874881729184,4,10,11,12,-9,-1,-3,-3
1501874881744185,0,4,-15,-17,10,-1,0,7
1501874881744185,-5,0,-17,-46,-13,-3,-4,-12
1501874881745147,0,5,18,-4,1,1,1,1
1501874881745147,-4,14,10,42,6,1,0,-2
1501874881766216,3,-8,-20,-19,-15,1,-2,-5
1501874881766216,-3,-9,1,5,11,-3,-1,2
1501874881767159,-3,-34,-2,13,11,0,0,-1
1501874881767159,-8,0,15,13,-7,-3,-1,-5
1501874881789148,4,6,-20,15,-2,-2,0,4
1501874881789148,0,22,3,3,-10,-1,-1,5
1501874881789148,-7,-33,-13,-2,4,1,-1,1
1501874881789148,3,-7,4,-2,3,-2,-2,-1
1501874881804213,-4,8,12,5,-18,-3,-2,-15
1501874881804213,-3,-16,-22,-16,28,0,3,11
1501874881805163,4,28,15,25,22,1,2,-5
1501874881805163,2,11,-5,-10,-20,2,2,-2
1501874881826215,-6,-16,17,22,-3,-6,-5,0
1501874881826215,6,5,-36,-70,-1,2,0,6
1501874881827184,1,-8,21,5,-8,-1,-1,-5
1501874881827184,-1,-3,-5,-32,5,0,0,-4
1501874881849186,3,5,12,16,4,1,1,1
1501874881849186,-3,17,30,35,-3,-3,-1,1
1501874881849186,-5,-20,-19,-16,-14,-2,1,0
1501874881849186,3,5,5,1,-7,-4,-5,2
1501874881864195,-3,-17,0,8,18,3,-1,-6
1501874881864195,6,27,3,18,5,-1,-1,-4
1501874881865154,0,-19,-4,-35,-2,2,1,3
1501874881865154,-2,-17,17,53,6,2,3,2
1501874881886220,5,93,-30,-95,-24,-3,1,3
1501874881886220,-1,-92,9,30,17,-1,-5,-16
1501874881887188,-7,-7,-16,-23,-15,-3,-5,4
1501874881887188,-3,-10,-15,-6,-9,-4,-2,1
1501874881909171,-3,6,18,20,9,2,0,-4
1501874881909171,4,29,3,-7,-25,-2,2,4
1501874881909171,3,23,1,0,-4,-2,0,-1
1501874881909171,-2,-6,-1,7,9,-1,-1,-2
1501874881924244,3,-15,-9,-3,1,-1,1,13
1501874881924244,-11,-8,-8,-4,-6,-1,-10,-21
1501874881924244,3,9,6,18,1,-3,-2,-3
1501874881924244,-1,11,28,23,4,1,-3,-2
1501874881946222,4,10,-23,-74,-11,-4,2,5
1501874881946222,-8,-29,-25,33,0,-3,-1,-2
1501874881947198,-5,-10,-7,-2,24,3,1,1
1501874881947198,4,32,-15,-46,-1,-2,0,1
1501874881969203,-2,-59,31,47,-6,1,-3,-1
1501874881969203,-1,36,16,-13,-1,-1,2,0
1501874881970161,4,-13,-13,-19,-12,-2,1,1
1501874881970161,-3,10,-13,8,6,-3,-4,-2
1501874881983232,-3,23,20,20,0,0,-3,-8
1501874881983232,-6,-62,-18,21,-10,-4,-3,-1
1501874881991205,5,36,-4,-22,0,-1,-1,-1
1501874881991205,-2,6,-1,-34,-9,-1,0,0
1501874882006203,-1,-21,-12,40,-12,-4,-1,-1
1501874882006203,2,0,12,13,21,2,1,4
1501874882007163,-6,1,0,3,7,0,-3,-4
1501874882007163,1,6,-5,-25,6,2,-1,-2
1501874882029228,6,-4,-5,13,6,2,1,1
1501874882029228,-1,60,41,-3,-15,0,-3,-7
1501874882030163,-2,-30,-60,-17,-10,-3,0,5
1501874882030163,-2,1,-8,12,13,-3,-2,1
1501874882043210,0,9,14,-28,-10,-5,-6,-4
1501874882043210,-3,-46,-15,-8,-4,-2,3,8
1501874882051173,1,38,19,-3,-20,-2,-6,-19
1501874882051173,3,10,2,9,6,0,-2,4
1501874882066231,-6,-21,-10,11,28,5,2,-1
1501874882066231,0,18,-10,-2,-5,-2,0,5
1501874882067165,7,5,10,-17,4,4,3,5
1501874882067165,-3,-20,-2,-11,-15,-5,-2,-5
1501874882089200,10,30,26,24,-3,-2,3,-1
1501874882089200,-20,-28,-36,-5,0,-4,-9,-8
1501874882089200,0,-14,17,13,5,-2,-2,3
1501874882089200,-1,-19,-22,28,0,2,0,-8
1501874882103237,-4,22,20,5,0,0,0,5
1501874882103237,10,21,-25,-7,-8,1,0,4
1501874882111202,-6,5,7,14,-10,-1,1,1
1501874882111202,6,64,-4,-13,4,-3,-1,3
1501874882126237,-14,-115,-3,-6,7,2,-2,-7
1501874882126237,3,24,3,8,-8,-1,0,1
1501874882127185,-3,-26,-2,2,14,-1,-1,0
1501874882127185,1,-6,-8,-12,-19,0,0,-3
1501874882149215,2,19,1,28,-7,-2,2,9
1501874882149215,-2,-8,-4,5,2,-3,-1,-2
1501874882150171,5,20,-7,-53,-8,0,-1,1
1501874882150171,2,-20,7,-22,-21,0,1,-7
1501874882163171,-16,-22,-23,-13,-3,-11,-13,-8
1501874882163171,9,42,22,-7,20,4,5,14
1501874882171212,1,-21,12,32,3,-2,2,3
1501874882171212,-3,-25,-7,-6,4,0,-1,0
1501874882186235,-12,-19,-26,-16,-10,0,1,-6
1501874882186235,-5,0,4,-12,-5,-2,-2,-7
1501874882187183,4,51,18,36,5,2,1,1
1501874882187183,-3,-50,17,-3,1,-2,-1,-2
1501874882209214,7,44,-40,-29,-21,-3,-1,-2
1501874882209214,-3,0,3,-7,7,4,2,2
1501874882209214,-2,-12,-9,21,0,-2,-2,-5
1501874882209214,-5,-4,12,3,-6,-2,0,5
1501874882223178,17,82,26,20,0,-1,4,6
1501874882223178,-7,-88,-17,-31,16,4,-5,-12
1501874882231236,-8,-14,-3,-11,5,1,-1,-3
1501874882231236,-2,18,19,55,0,-1,-1,-4
1501874882246221,3,-15,-3,-4,11,0,1,2
1501874882246221,6,40,-1,-1,-42,-7,-1,8
1501874882247208,-3,-3,3,4,30,-3,-2,-6
1501874882247208,-8,-21,-11,-17,9,1,-1,-3
1501874882269223,-2,-5,1,26,-1,-2,-3,-5
1501874882269223,1,7,14,-62,-16,-2,0,-3
1501874882269223,-5,-6,-23,-19,-11,-2,-2,0
1501874882269223,3,19,-8,12,2,0,2,16
1501874882292251,-5,-27,16,-8,19,1,-3,-13
1501874882292251,6,9,-5,6,-3,3,-1,-3
1501874882293210,-3,7,-22,1,-1,-4,-3,-1
1501874882293210,3,-1,15,6,2,-2,-1,-2
1501874882306249,0,-7,-4,-12,-8,-1,-1,5
1501874882306249,-10,-26,12,22,7,1,1,-1
1501874882307212,-1,12,13,-2,-5,-4,0,-4
1501874882307212,-1,-7,-2,-1,-2,0,-3,-7
1501874882329220,-1,15,-2,-5,3,2,1,2
1501874882329220,5,8,-8,8,0,-4,0,4
1501874882330181,-1,0,5,3,-9,-3,-2,-1
1501874882330181,-5,-31,-6,-11,-7,-4,-1,2
1501874882352256,-5,-12,-5,-11,1,0,-3,-9
1501874882352256,3,20,-1,-3,6,-2,0,0
1501874882353186,-2,7,5,6,-17,1,1,1
1501874882353186,6,3,3,2,20,2,2,3
1501874882366229,-9,-28,-7,10,-14,-6,-3,-1
1501874882366229,-3,-1,-13,4,3,-1,-5,-14
1501874882367215,1,8,11,-13,-5,2,0,1
1501874882367215,-3,-15,26,-15,-3,-4,-3,-8
1501874882389229,4,11,-57,6,-14,-2,1,4
1501874882389229,-2,-21,2,-3,7,-3,-1,2
1501874882389229,-3,-1,9,8,-3,-4,-2,-1
1501874882389229,2,4,-7,25,8,2,-3,-3
1501874882412226,2,-2,23,-38,4,2,1,2
1501874882412226,0,7,-9,-10,-15,-1,1,2
1501874882413199,2,-7,-3,10,-5,0,-2,2
1501874882413199,-4,4,-10,7,8,1,2,4
1501874882426226,-2,-15,12,7,1,-1,-1,0
1501874882426226,1,10,-10,0,-13,-3,-5,-12
1501874882427222,-2,-4,11,-5,3,-4,-3,2
1501874882427222,-3,10,-5,-11,10,2,-1,-6
1501874882449256,1,0,-3,5,0,0,-2,-2
1501874882449256,3,0,0,-12,5,-1,1,6
1501874882449256,-5,-4,-14,1,-10,2,1,-2
1501874882449256,-2,2,-1,3,-11,-4,-1,-2
1501874882472253,0,14,11,-1,19,4,3,1
1501874882472253,-4,-17,4,18,-6,-4,-4,-7
1501874882473189,5,13,-5,-11,6,2,-1,-2
1501874882473189,-2,-9,-22,-22,-11,-3,0,-1
1501874882486229,-3,-1,11,-7,-1,-1,-2,0
1501874882486229,0,5,3,8,0,0,1,4
1501874882487222,0,21,-7,6,-1,-1,-1,-1
1501874882487222,-7,-38,-15,-18,-15,-5,-3,-1
1501874882509214,0,-3,0,-12,5,-1,0,3
1501874882509214,-1,2,11,31,13,2,0,-5
1501874882509214,3,10,-5,-31,-12,-2,2,1
1501874882509214,0,-4,0,3,7,3,-1,-7
1501874882532252,-4,-9,-5,2,-9,-5,-6,-8
1501874882532252,-4,0,-2,-8,5,2,3,1
1501874882533192,0,8,14,12,3,-1,0,3
1501874882533192,-2,-10,-19,-9,-8,-1,-1,0
1501874882546236,-3,4,14,0,-12,0,0,0
1501874882546236,-2,5,-16,-7,8,-1,-1,4
1501874882547226,-5,-3,-2,-2,2,-1,-5,-15
1501874882547226,-3,6,5,8,-2,-1,-2,-3
1501874882569238,-3,-27,-2,11,-3,0,-1,-3
1501874882569238,-2,-2,0,-4,-4,-3,0,3
1501874882569238,1,2,-8,-1,2,2,1,2
1501874882569238,1,4,-1,-14,1,1,-1,-1
1501874882592262,-7,1,7,-4,-4,-1,-1,0
1501874882592262,3,-1,-9,-2,-9,-5,-3,-6
1501874882593232,0,-11,23,-4,1,-2,-2,-1
1501874882593232,-2,13,-25,14,-12,-3,-1,-2
1501874882606261,5,0,-1,-24,5,-1,1,3
1501874882606261,-2,-13,-14,-5,-10,-2,0,2
1501874882607229,-3,-4,6,12,19,2,2,-2
1501874882607229,2,9,13,12,-7,0,-1,0
1501874882629265,-2,-5,14,-3,6,0,-1,-2
1501874882629265,1,10,2,12,-1,1,1,6
1501874882629265,-1,-5,-3,15,-7,-5,-5,-5
1501874882629265,-6,-16,4,-9,-3,-4,-2,2
1501874882652260,3,13,-11,-1,12,1,-1,-3
1501874882652260,2,3,16,-8,3,5,1,1
1501874882653215,-2,-4,-8,-1,-8,-1,2,3
1501874882653215,-1,4,-5,-3,0,-2,0,4
1501874882666266,2,8,8,7,-10,-4,-5,-10
1501874882666266,-3,2,-3,7,6,1,-1,-10
1501874882667233,-1,-2,0,1,-2,-2,-1,1
1501874882667233,-1,1,3,-11,3,1,0,-1
1501874882689202,-2,2,-7,11,-4,1,1,4
1501874882689202,0,-2,7,2,-7,-3,-1,1
1501874882689202,-3,-3,-6,-9,-1,-1,-3,-1
1501874882689202,2,1,8,1,-4,-5,-2,-4
1501874882712203,-1,-5,-6,0,1,-2,0,3
1501874882712203,-2,-4,-8,-4,2,0,0,0
1501874882713217,0,-2,2,0,-1,2,0,1
1501874882713217,-1,8,0,-3,-4,1,-1,-2
1501874882726266,0,-2,4,10,-10,-3,0,-1
1501874882726266,1,8,0,-7,12,1,-3,2
1501874882727235,-4,-2,-8,7,-29,-7,-1,-2
1501874882727235,2,-3,-6,-16,24,3,-1,-5
1501874882749275,1,-15,-17,-7,0,2,2,0
1501874882749275,-3,-5,10,3,-7,0,2,2
1501874882749275,1,-5,14,-2,-3,-1,-1,-1
1501874882749275,-3,8,-13,5,-9,-3,-1,1
1501874882773245,-1,6,3,5,0,-2,-5,-8
1501874882773245,2,3,1,-8,-2,-2,-3,2
1501874882774244,-1,-2,-12,3,-6,-1,-1,-1
1501874882774244,0,-11,5,0,1,0,-1,0
1501874882786272,-3,-13,-8,-1,14,2,1,2
1501874882786272,1,0,11,6,-2,-2,-2,-2
1501874882787240,-4,-18,-15,-11,-11,-4,-2,-1
1501874882787240,-2,8,-6,3,4,-1,-1,-3
1501874882809208,1,9,-7,-16,3,4,1,1
1501874882809208,-3,6,-3,-9,0,-2,-2,-2
1501874882809208,-1,-13,-7,4,8,1,1,0
1501874882809208,1,-2,17,-1,-24,-3,-2,-3
1501874882832210,-1,-6,-4,4,11,-3,-3,0
1501874882832210,-3,16,-1,3,-5,-2,0,-2
1501874882833223,4,15,8,-7,3,0,1,0
1501874882833223,-2,-17,2,6,6,-1,-1,-1
1501874882846271,-5,8,-22,1,-7,-3,-5,0
1501874882846271,2,-14,3,14,-3,0,3,7
1501874882847222,4,3,-8,2,2,2,0,5
1501874882847222,-4,12,7,-6,-4,-3,-4,-13
1501874882869254,-3,1,-5,-12,1,-2,1,-2
1501874882869254,-2,-9,-3,-17,-10,-3,-2,-2
1501874882869254,-2,5,-2,5,9,1,0,0
1501874882869254,0,-13,-4,-6,-2,0,1,4
1501874882892284,0,8,7,3,-4,-3,0,-1
1501874882892284,-1,3,-3,8,-6,0,0,-1
1501874882893213,2,2,11,-2,15,2,-2,0
1501874882893213,1,-4,-11,-11,10,3,0,1
1501874882914248,2,3,6,14,-9,-2,-1,1
1501874882914248,-3,-4,-6,0,-4,-1,1,-1
1501874882915213,-2,0,6,1,-1,-1,-1,-1
1501874882915213,0,-2,-5,-10,-1,-1,-2,1
1501874882929246,0,1,8,1,-3,-2,1,0
1501874882929246,-1,2,-2,-2,1,-3,-2,-3
1501874882929246,-2,-11,7,-4,0,-1,-2,-3
1501874882929246,2,6,-1,11,4,1,2,1
1501874882952250,-3,-4,-3,-5,-3,1,0,0
1501874882952250,-2,-7,-27,-1,7,2,-1,-3
1501874882953217,1,-2,1,-3,-3,-1,-1,-2
1501874882953217,6,5,-7,4,-5,-1,0,3
1501874882966236,-1,0,26,-6,1,1,1,0
1501874882966236,3,-9,-6,34,-6,-2,-4,-1
1501874882974287,-12,-8,-14,-13,-2,-3,1,-8
1501874882974287,-1,4,3,1,-3,0,0,5
