timestamp,emg1,emg2,emg3,emg4,emg5,emg6,emg7,emg8
1501874377394170,-28,-39,-23,12,-24,-16,-16,-25
1501874377394170,-12,-83,23,81,2,3,0,37
1501874377395169,1,-4,37,-103,-12,-11,-18,50
1501874377395169,17,14,-63,5,-9,-8,-5,-25
1501874377395169,-2,42,39,-65,-78,-13,6,33
1501874377395169,17,76,-12,-31,77,20,14,-44
1501874377399211,-29,-20,-18,-38,66,19,2,-23
1501874377399211,8,34,105,-53,7,-3,-1,8
1501874377400189,7,45,67,48,2,2,10,23
1501874377400189,-27,-32,-34,39,-39,-13,-25,-78
1501874377413237,49,34,-5,11,2,6,16,17
1501874377413237,-23,-52,33,-38,36,1,-2,-23
1501874377420212,10,-5,-43,-26,18,4,21,93
1501874377420212,-28,15,24,-93,-51,-8,-19,-42
1501874377432209,-14,28,-76,127,84,6,-16,-70
1501874377432209,3,72,26,-9,-60,-16,16,41
1501874377444191,12,-54,69,100,-7,12,-16,-5
1501874377444191,1,-1,-70,-81,8,-8,0,28
1501874377459212,8,-22,-33,-118,-58,0,1,2
1501874377459212,7,45,-128,105,16,14,1,-60
1501874377506181,13,45,-38,-32,-42,-13,5,71
1501874377506181,22,89,-29,-34,50,8,0,15
1501874377507213,-9,43,20,38,2,7,7,9
1501874377507213,13,-41,-15,36,28,4,13,28
1501874377508215,4,5,22,-22,-41,-8,-10,3
1501874377508215,-1,14,-5,20,6,-4,4,17
1501874377511195,0,22,47,3,-28,-14,-16,-80
1501874377511195,15,-14,-5,16,10,5,-9,-11
1501874377513177,6,100,-38,81,64,15,14,1
1501874377513177,-32,-91,30,-95,-50,-8,1,8
1501874377518179,1,-16,-89,-27,-6,4,2,9
1501874377518179,-18,-44,5,47,-10,-13,-5,9
1501874377527178,-2,-16,50,-52,-36,-20,-10,-18
1501874377527178,-6,1,16,102,8,17,-6,-49
1501874377540223,21,13,24,-49,-18,-2,24,82
1501874377540223,-4,80,3,28,-25,-14,-26,-99
1501874377549179,-15,-50,-7,4,-19,17,0,-28
1501874377549179,18,68,27,-49,10,1,8,-10
1501874377573215,-9,-92,-54,-24,18,11,8,81
1501874377573215,0,-1,-20,-39,-8,-10,-11,-45
1501874377574183,-9,-79,119,41,12,10,8,15
1501874377574183,-13,-90,-62,-14,-12,-10,-20,-49
1501874377586247,18,60,5,65,-14,-8,-4,-27
1501874377586247,-17,-6,41,-76,-26,5,13,66
1501874377593184,-11,-17,-17,38,-6,3,-3,-6
1501874377593184,17,28,-21,92,21,-7,0,32
1501874377609228,-3,-4,-14,-27,20,5,8,-16
1501874377609228,5,36,-70,34,1,3,9,16
1501874377611185,19,-45,42,-44,37,-3,-2,-4
1501874377611185,-40,-51,-105,-128,-101,-17,-9,-20
1501874377631250,17,80,116,127,42,-13,-3,-9
1501874377631250,-6,-92,-36,23,38,12,-4,38
1501874377633187,-15,11,-47,24,38,2,0,-43
1501874377633187,33,48,15,32,17,4,1,2
1501874377646245,-35,-47,54,-7,-50,3,-4,-5
1501874377646245,-4,-30,-39,-76,26,-7,5,3
1501874377653197,-12,-6,-25,-39,-14,-7,-2,36
1501874377653197,-6,-8,46,73,-3,-7,-6,-27
1501874377669232,-2,30,-95,6,-77,-8,-12,-31
1501874377669232,8,45,44,12,19,17,19,26
1501874377671199,6,18,-25,-16,7,-2,-13,-2
1501874377671199,-11,-12,68,-7,24,4,-10,-23
1501874377692228,10,-31,-16,-16,-30,1,-1,12
1501874377692228,-9,7,-11,-87,-19,-3,4,-1
1501874377693190,15,45,-25,62,16,-4,-3,11
1501874377693190,-5,-15,32,6,-38,-6,12,22
1501874377706194,1,-30,12,-38,99,10,-10,-21
1501874377706194,5,47,49,-38,-52,-8,-5,-17
1501874377713201,22,37,36,24,38,2,5,-6
1501874377713201,-9,-86,64,11,-1,-8,-2,19
1501874377729232,17,60,-18,5,-29,0,10,32
1501874377729232,-32,-25,2,61,67,0,-17,-42
1501874377731194,-18,-54,-12,10,0,0,-3,-4
1501874377731194,17,54,-41,-10,25,12,9,18
1501874377751262,-11,-14,-17,5,7,-10,-3,7
1501874377751262,12,40,63,29,-32,-13,-3,22
1501874377753192,2,37,-38,-98,-2,-1,3,18
1501874377753192,11,-7,-15,45,6,3,11,29
1501874377766234,-36,-75,-1,-11,19,0,-24,-93
1501874377766234,16,44,-40,4,6,1,-7,-4
1501874377773212,-26,-39,15,44,-5,-12,-7,-28
1501874377773212,6,-40,-19,-33,-22,4,5,9
1501874377789236,2,10,43,-22,-26,-8,-4,14
1501874377789236,3,30,20,79,37,9,-3,1
1501874377791194,-7,-63,-41,-77,-35,-6,-5,-8
1501874377791194,-3,62,11,-29,4,3,0,5
1501874377811236,-14,-31,16,-21,-30,-23,-12,10
1501874377811236,-8,-55,-26,90,-23,-12,5,-6
1501874377813207,12,-4,-37,2,55,29,13,-16
1501874377813207,-23,-26,10,55,6,5,-3,27
1501874377826241,1,21,-33,-110,-18,-11,-3,0
1501874377826241,20,53,36,22,-13,-3,-3,13
1501874377833208,-10,-48,-15,17,-35,-6,4,-25
1501874377833208,18,20,71,29,-31,-10,1,28
1501874377849240,5,20,-15,56,81,21,7,0
1501874377849240,-3,19,22,-29,-25,3,3,41
1501874377851199,23,55,32,-52,-3,-2,3,-27
1501874377851199,-24,-19,-42,24,17,-2,-6,-11
1501874377872238,-4,-9,-38,13,32,1,-3,-42
1501874377872238,-12,-5,5,-69,-6,5,6,-2
1501874377873208,-6,-25,-19,-10,-46,-1,-9,14
1501874377873208,-2,2,-1,35,1,-5,1,-14
1501874377886264,19,-33,11,-9,-7,1,10,50
1501874377886264,-16,-37,-67,-62,35,-1,-15,-69
1501874377893200,-9,12,-1,77,7,-3,1,45
1501874377893200,2,12,-38,-69,-17,-2,-3,-26
1501874377909247,-15,-14,23,127,47,1,0,-10
1501874377909247,21,22,7,-112,-26,-6,1,43
1501874377911203,-6,9,22,-40,-26,2,-6,-28
1501874377911203,-6,-38,15,43,16,-7,-15,1
1501874377931246,-4,23,-47,-47,5,10,6,-1
1501874377931246,10,28,21,35,-22,0,8,-14
1501874377933204,-5,-50,-19,25,17,-4,-3,19
1501874377933204,15,-5,-7,-9,4,3,4,-8
1501874377945248,-14,-16,-8,-91,-26,2,-2,3
1501874377945248,-14,-5,36,45,5,-7,-5,-46
1501874377954204,3,37,-34,-4,-74,-2,-1,-2
1501874377954204,-10,12,-21,-64,44,-4,-2,-7
1501874377969256,1,-55,-36,44,12,6,4,37
1501874377969256,10,31,40,22,-8,5,1,-29
1501874377971206,-14,-13,-15,11,35,1,1,-15
1501874377971206,-12,-53,-94,-34,-53,-15,-10,27
1501874377991270,16,59,3,-47,12,2,-6,-26
1501874377991270,2,-10,-8,-41,-11,7,8,31
1501874377993207,-7,30,59,19,-22,-17,-11,-48
1501874377993207,24,4,55,56,28,13,15,23
1501874378005277,-5,-17,-49,15,-34,-7,-14,-8
1501874378005277,-30,-55,7,-13,1,2,-5,-6
1501874378014246,17,60,-55,-31,-51,-6,1,20
1501874378014246,8,77,52,18,44,-2,-9,-34
1501874378029249,-22,15,70,49,0,0,8,34
1501874378029249,4,-83,0,-17,1,5,5,-7
1501874378031218,4,-4,-17,19,-2,5,-4,-15
1501874378031218,16,35,-24,-15,1,-3,2,23
1501874378059251,-9,-4,-20,7,-33,-11,-12,-57
1501874378059251,2,34,47,54,21,1,12,50
1501874378061214,9,10,-24,-104,6,-10,-13,-21
1501874378061214,-10,6,-18,95,-8,0,1,-4
1501874378065253,21,41,0,-8,-17,-4,-1,-16
1501874378065253,-13,-67,-41,-48,19,-4,-15,17
1501874378074227,-11,-10,40,33,37,4,5,-20
1501874378074227,3,0,-73,9,-35,-7,-3,-11
1501874378089255,9,-3,3,10,6,6,9,19
1501874378089255,-5,-4,24,110,-20,-6,-2,-13
1501874378090226,19,8,0,-53,-22,13,11,26
1501874378090226,-33,-3,-10,-77,16,-12,-13,-20
1501874378111252,25,16,49,24,-14,4,15,35
1501874378111252,-7,-39,-128,6,72,3,-12,-57
1501874378113223,-18,-15,-6,-3,11,-7,-3,2
1501874378113223,-7,-14,64,71,-42,5,-1,-23
1501874378125274,14,71,37,-34,-6,4,3,3
1501874378125274,16,114,65,-18,-7,-5,9,27
1501874378134217,-8,-93,-27,4,-47,-6,-9,25
1501874378134217,-19,-9,19,-36,71,6,-4,-69
1501874378149305,5,34,59,62,37,5,-2,9
1501874378149305,-1,-64,20,-2,-46,-3,1,-18
1501874378150217,-2,-11,5,62,23,-5,-2,29
1501874378150217,24,41,47,-30,-46,1,3,19
1501874378171287,-8,-49,10,6,18,-5,-2,1
1501874378171287,-4,11,0,42,14,6,8,17
1501874378173229,-12,-78,-62,-72,-12,0,1,9
1501874378173229,3,21,25,24,-23,-5,-1,19
1501874378185257,-11,-25,2,-41,-75,-8,-15,-25
1501874378185257,21,76,13,-6,68,12,4,23
1501874378194224,-16,12,-4,87,-15,-13,-9,-31
1501874378194224,-3,-56,-52,-104,18,10,9,28
1501874378209248,-9,1,-4,26,-37,-9,5,-18
1501874378209248,12,119,6,52,-11,-3,-5,9
1501874378211220,2,-28,-5,-65,19,11,8,22
1501874378211220,-8,-23,38,18,13,3,1,9
1501874378231260,9,5,44,30,30,-2,1,-2
1501874378231260,-2,-51,-37,-73,-109,-16,-12,-14
1501874378233231,18,87,2,11,120,16,14,7
1501874378233231,-14,-73,-39,14,-43,2,11,49
1501874378245280,12,18,-57,-23,81,1,-3,5
1501874378245280,-21,-88,-11,65,-38,-9,-15,-14
1501874378254222,4,57,72,-17,-8,0,-1,-32
1501874378254222,-12,86,-30,-37,-27,-8,-6,-18
1501874378269262,-18,-34,24,22,30,-4,-2,31
1501874378269262,-10,-59,-41,6,-26,-9,2,6
1501874378271235,33,93,74,86,51,4,-1,-4
1501874378271235,-22,-61,-70,-77,9,5,5,-4
1501874378291234,-9,52,-2,45,3,-7,-4,-1
1501874378291234,0,46,-17,-106,-34,-12,-2,12
1501874378293224,-11,-8,3,73,1,3,-4,-12
1501874378293224,26,77,-8,-71,21,6,-1,-23
1501874378305227,-1,-82,9,23,-1,-8,-3,-5
1501874378305227,-2,-18,-34,9,13,10,6,6
1501874378314225,7,64,-13,-2,-30,-15,-7,-12
1501874378314225,2,2,5,41,7,12,5,12
1501874378329237,-25,-8,-33,-27,-24,3,-14,-64
1501874378329237,1,-13,-57,-77,13,-3,-1,11
1501874378331225,13,47,-1,-30,25,-7,4,20
1501874378331225,-6,8,16,108,22,-2,-4,-10
1501874378351273,1,-75,48,-48,-13,-1,7,25
1501874378351273,16,86,-26,1,-30,-9,-6,-8
1501874378353260,-18,-37,-7,-39,-34,2,-4,-26
1501874378353260,2,37,33,28,6,-11,-10,-11
1501874378365266,-4,-14,-49,3,8,10,12,16
1501874378365266,14,-8,-2,-80,-13,-3,2,23
1501874378374260,-11,-52,72,0,-8,1,2,30
1501874378374260,25,48,-10,-6,1,-6,0,-10
1501874378389270,-5,-15,-125,-52,-9,4,1,0
1501874378389270,-5,13,111,93,16,-1,-4,-32
1501874378390230,7,-62,-25,82,30,-4,3,22
1501874378390230,-40,-101,5,-106,-38,8,3,2
1501874378411270,5,53,-3,-82,-39,-7,-5,-11
1501874378411270,17,68,24,50,24,6,9,14
1501874378413241,10,100,26,-2,33,2,-2,-12
1501874378413241,2,-2,-27,-47,-14,-8,-8,10
1501874378434247,0,70,59,-2,20,5,0,-31
1501874378434247,-30,-58,-29,11,9,4,1,-12
1501874378440272,39,100,26,41,-50,-9,-2,-2
1501874378440272,-10,-76,-5,36,22,-5,6,50
1501874378448300,26,69,-6,5,36,12,1,10
1501874378448300,-57,-40,-3,-45,-45,-1,-6,-24
1501874378455251,-34,10,9,29,24,-2,4,12
1501874378455251,13,28,-38,28,-18,-5,-2,-33
1501874378470277,16,57,95,40,20,5,-6,-3
1501874378470277,14,-69,-84,-77,30,5,-1,-22
1501874378479246,-5,-73,42,13,-76,-5,-3,22
1501874378479246,17,6,45,62,66,12,-3,-29
1501874378494267,-33,-99,16,16,-27,-12,-5,-1
1501874378494267,25,37,3,7,2,2,1,13
1501874378495245,-16,-19,-25,-13,0,-6,-9,-57
1501874378495245,5,-21,10,-37,-62,-4,0,-2
1501874378516304,2,68,26,13,21,-6,-3,-6
1501874378516304,-9,-2,-39,10,52,7,10,16
1501874378523248,19,65,35,54,-54,3,6,10
1501874378523248,8,61,-72,-59,76,12,19,22
1501874378530278,34,67,18,13,17,1,-14,-25
1501874378530278,-3,44,0,47,-31,-12,-11,-8
1501874378539275,-70,-78,-32,-44,-48,6,0,-32
1501874378539275,-30,40,49,90,4,-9,-22,-49
1501874378554283,22,29,25,-48,-31,-3,18,56
1501874378554283,2,-26,50,52,36,5,-1,23
1501874378555242,17,15,-88,-114,8,6,8,44
1501874378555242,-12,0,59,104,-33,-3,-12,-33
1501874378576278,-24,6,-32,-78,-34,-17,-4,-10
1501874378576278,30,-81,48,13,5,8,10,15
1501874378578252,-1,-36,35,-83,-14,-6,1,-6
1501874378578252,21,38,-77,-45,-5,1,-4,12
1501874378590309,10,29,-6,-5,10,15,5,-4
1501874378590309,23,33,37,58,-45,-8,4,21
1501874378599257,2,-51,-55,27,34,4,1,-12
1501874378599257,-37,-80,-15,-23,-29,-17,-12,-26
1501874378614280,-6,-28,16,-17,-17,2,1,6
1501874378614280,12,50,12,-42,-18,-3,1,-3
1501874378615252,-32,66,12,20,25,4,-5,20
1501874378615252,23,-19,-19,-11,-16,-4,-3,-13
1501874378636283,21,29,29,87,-6,-7,13,51
1501874378636283,-60,-76,-69,-84,27,5,-2,-13
1501874378638281,10,127,55,33,40,-1,-16,-71
1501874378638281,-19,-69,-92,-89,26,-2,-3,-4
1501874378650316,-33,-5,-9,49,1,-3,1,-17
1501874378650316,21,32,26,61,-17,-6,-3,14
1501874378659249,30,-25,-77,33,-22,-6,6,68
1501874378659249,6,-5,97,-54,3,2,9,29
1501874378674288,6,33,-18,-30,-36,-12,-7,-1
1501874378674288,-14,39,34,36,57,14,-2,-85
1501874378675247,-1,11,-104,-85,62,3,2,14
1501874378675247,8,53,60,92,-53,-13,-18,-53
1501874378696289,-18,-25,-68,-9,8,5,-1,-9
1501874378696289,18,-14,-17,-5,25,7,5,15
1501874378698284,-24,-1,60,-14,-33,-4,-2,14
1501874378698284,30,65,20,2,14,3,10,23
1501874378710260,-1,-17,-11,33,-62,-19,-12,-31
1501874378710260,-1,9,45,-13,47,6,3,56
1501874378719250,20,33,-25,-47,-12,2,-4,-25
1501874378719250,-21,-74,-9,48,9,3,9,21
1501874378734323,9,-65,-23,-12,-34,-4,-3,9
1501874378734323,-15,5,-61,2,-41,-15,-12,-30
1501874378735250,0,-36,28,-57,46,2,-4,12
1501874378735250,3,55,-1,41,-4,1,-4,-10
1501874378756314,0,-48,20,16,42,11,9,-1
1501874378756314,-4,-9,-14,-24,-68,-14,-6,-1
1501874378758251,-15,-63,-12,-41,30,3,0,-9
1501874378758251,9,92,74,43,29,10,6,-1
1501874378770302,-11,-72,-93,-62,-22,-7,-7,25
1501874378770302,8,-3,41,10,1,-4,2,22
1501874378779252,-5,-27,-50,11,-57,-10,-5,-27
1501874378779252,-3,11,65,24,11,6,11,45
1501874378801295,-17,10,3,-55,14,6,-9,-43
1501874378801295,-2,47,25,9,-21,-9,-8,4
1501874378803267,19,8,24,-6,16,6,5,5
1501874378803267,12,74,-44,-56,-27,-13,-3,14
1501874378816312,0,11,28,59,45,3,-2,1
1501874378816312,-15,29,-12,-55,-34,1,-4,-26
1501874378818254,-12,-27,6,69,29,-2,0,-9
1501874378818254,13,6,-15,42,26,-2,0,16
1501874378830256,-5,-13,-76,-53,-14,-2,-6,-15
1501874378830256,4,7,-39,3,47,7,2,39
1501874378839257,-20,-30,45,44,-20,-8,-10,-52
1501874378839257,8,-62,-98,-43,-30,3,6,9
1501874378854295,-7,-2,66,74,8,0,3,-7
1501874378854295,-2,-1,30,-55,0,0,-4,-7
1501874378855266,17,24,49,28,-30,-6,0,5
1501874378855266,-16,-62,-24,15,24,5,1,10
1501874378876301,-6,-1,-22,-72,-42,-5,-1,-28
1501874378876301,12,4,30,86,30,-5,0,2
1501874378878260,-18,7,-31,-39,25,4,3,25
1501874378878260,11,37,-72,-41,-25,-9,-9,-20
1501874378899301,-13,-12,51,42,19,9,5,32
1501874378899301,9,9,-24,101,37,3,-1,-24
1501874378900260,-1,-51,-35,-100,-36,-6,-8,3
1501874378900260,10,39,36,32,-18,-6,-1,-15
1501874378914330,-8,-26,29,11,15,2,-10,17
1501874378914330,5,13,-73,-96,-26,2,5,-10
1501874378915260,1,29,62,127,1,0,0,-1
1501874378915260,-27,-41,-48,-128,-5,-4,-1,-16
1501874378936302,8,-9,42,107,3,2,2,-7
1501874378936302,-7,-18,18,-71,-23,-4,4,18
1501874378938274,18,35,29,40,-10,-4,-7,4
1501874378938274,-5,-21,38,-21,59,5,-4,-13
1501874378959323,23,42,20,-62,-5,-2,1,15
1501874378959323,-11,-52,-26,16,-24,1,-3,-16
1501874378960265,1,-1,1,7,14,6,5,27
1501874378960265,0,1,42,14,-31,0,8,16
1501874378974307,-19,-15,-28,22,5,-6,-12,-31
1501874378974307,3,5,-21,-29,18,1,0,4
1501874378975277,12,39,40,32,-49,-9,1,-21
1501874378975277,-6,-10,-3,10,59,5,1,25
1501874378996311,8,-35,20,-6,26,6,-3,14
1501874378996311,-10,13,21,16,-11,-5,-6,-29
1501874378998264,-1,-2,33,39,6,4,4,21
1501874378998264,-4,3,-49,-35,-55,-6,-11,-22
1501874379019330,10,44,-14,-72,-6,-7,5,-6
1501874379019330,-18,-6,-39,-26,59,4,-5,-8
1501874379020304,5,50,-25,-23,-24,-3,-5,-15
1501874379020304,-4,-3,44,41,34,4,-2,3
1501874379033310,5,-49,-29,-31,-56,-1,10,10
1501874379033310,1,-21,28,61,52,-10,-12,-5
1501874379040334,-13,-44,-49,-53,-22,1,3,11
1501874379040334,7,23,-2,-47,-10,4,-2,-3
1501874379056332,-3,29,4,77,18,6,6,20
1501874379056332,-1,-28,6,50,-29,-2,3,-2
1501874379058270,-5,-38,-26,-48,-14,-6,-6,-28
1501874379058270,10,93,-8,35,9,-10,-8,-18
1501874379079312,5,75,5,-4,57,9,13,23
1501874379079312,-11,-61,37,-32,-20,5,-5,1
1501874379080272,-9,-41,-24,45,-17,-6,-1,17
1501874379080272,4,-42,-45,24,-52,-10,-5,24
1501874379093271,-2,20,-3,-29,5,7,-2,-24
1501874379093271,2,35,8,11,1,-3,4,8
1501874379100309,5,28,10,-26,25,3,-8,-12
1501874379100309,-18,-47,10,46,-61,-13,-2,-15
1501874379116301,16,13,-45,-7,53,12,4,15
1501874379116301,-6,-40,32,-24,-40,-4,-5,-2
1501874379118285,-6,4,56,36,-3,-8,-2,-3
1501874379118285,7,-15,6,-10,42,10,6,0
1501874379139314,-5,-8,24,0,-55,-16,-4,18
1501874379139314,-10,-13,-11,21,9,11,12,-7
1501874379140274,9,7,14,-35,-11,9,-3,6
1501874379140274,12,10,103,5,8,2,-4,-2
1501874379153344,-10,-11,-13,43,21,-4,-5,-13
1501874379153344,-1,19,-26,8,-11,-5,-2,4
1501874379160276,2,-25,-17,-46,-11,-4,5,2
1501874379160276,-4,23,-7,22,71,8,3,22
1501874379176343,-17,-53,6,2,-14,-8,-5,-26
1501874379176343,18,12,-36,-45,-50,-10,-13,-4
1501874379178277,-12,-29,-11,42,21,2,1,-13
1501874379178277,7,14,16,-36,-9,-2,-5,-6
1501874379199317,8,49,17,48,-20,-10,1,12
1501874379199317,-15,-35,-22,-1,60,15,9,10
1501874379200313,16,9,12,-24,-11,-4,-2,-14
1501874379200313,-13,-29,9,-15,-23,-5,-2,2
1501874379213318,-2,-1,-18,24,-32,-5,-7,-11
1501874379213318,10,46,28,-34,10,2,5,20
1501874379220320,-8,-32,-48,-25,21,-5,-5,-13
1501874379220320,-3,36,36,89,-23,1,6,-12
1501874379236320,4,-7,-66,-72,21,7,1,15
1501874379236320,-9,-16,-8,-90,-36,-9,-14,-26
1501874379238280,2,13,-1,64,-8,6,9,10
1501874379238280,-4,24,-13,-49,33,3,-1,-17
1501874379259344,12,-15,0,15,9,4,10,24
1501874379259344,2,11,28,-20,31,6,-4,-10
1501874379260281,-15,-13,-36,1,-17,-5,-5,6
1501874379260281,7,39,54,52,-40,-8,-1,30
1501874379273304,-18,-26,9,8,-7,-3,-8,-36
1501874379273304,12,46,6,72,7,-2,0,21
1501874379280322,-3,-39,0,-86,23,2,4,9
1501874379280322,-11,-7,-65,-39,-31,-2,-5,-22
1501874379296329,-3,-22,20,2,5,-8,-5,21
1501874379296329,9,46,70,84,-26,2,0,-26
1501874379298286,-7,-24,-22,21,-16,0,-3,4
1501874379298286,-6,-31,-26,-19,75,6,0,3
1501874379319325,-5,16,28,-42,-20,-1,2,-1
1501874379319325,8,-19,14,5,-19,-8,-3,15
1501874379320283,-4,-5,12,39,3,2,-1,-3
1501874379320283,6,-35,23,-1,-8,-5,-3,-4
1501874379333354,-12,17,-43,1,-1,2,1,-6
1501874379333354,-5,-37,-11,63,30,-1,-2,-3
1501874379340323,9,21,25,-103,6,0,-6,-11
1501874379340323,-12,-21,8,22,-21,-7,-6,-44
1501874379356333,7,19,-12,43,-86,-12,-5,-3
1501874379356333,-10,14,12,-81,71,14,9,12
1501874379358322,6,29,18,44,15,-2,2,5
1501874379358322,3,-31,-69,-43,3,5,0,13
1501874379379331,3,-5,-7,-6,-7,0,3,-5
1501874379379331,7,32,-3,-8,-35,-6,-2,-12
1501874379380325,1,2,-12,71,-7,-2,4,26
1501874379380325,3,43,28,-49,18,-1,-1,8
1501874379393292,-5,-53,-70,29,32,3,0,-8
1501874379393292,4,32,-19,-22,6,-4,-8,-15
1501874379402290,-17,-51,-20,-7,-4,1,4,16
1501874379402290,-9,-14,-18,2,-7,-6,-6,-15
1501874379416308,3,28,26,-17,19,-4,-3,-15
1501874379416308,1,-7,5,21,-23,-2,3,9
1501874379418291,8,20,-30,0,-7,4,3,28
1501874379418291,-2,-1,0,44,-11,0,5,0
1501874379439332,0,27,-23,-48,-9,-11,-9,-26
1501874379439332,-27,-62,25,10,12,2,-1,-9
1501874379440316,12,31,-25,17,54,-5,-3,23
1501874379440316,1,-23,-8,-39,15,11,9,18
1501874379452361,5,16,44,11,-12,-6,-4,19
1501874379452361,1,8,-56,-10,-51,-10,-1,-12
1501874379461334,-12,-5,54,52,16,2,-11,-90
1501874379461334,4,18,-41,0,-23,-2,3,23
1501874379476334,1,1,46,44,19,3,-12,-2
1501874379476334,7,4,-83,-82,-31,-7,1,34
1501874379478302,-10,5,4,-7,-59,-10,-5,-21
1501874379478302,17,6,-13,-20,25,8,5,-7
1501874379499332,-16,-64,15,24,-11,0,2,23
1501874379499332,4,14,9,24,22,11,8,-3
1501874379500295,-4,-12,-55,-44,28,-12,-7,4
1501874379500295,2,9,37,45,-29,-6,-2,-2
1501874379513336,-1,-11,12,-13,5,9,6,13
1501874379513336,1,20,20,2,-39,-16,-9,-8
1501874379521342,-1,-9,2,-3,32,11,-1,-13
1501874379521342,-3,-20,74,27,-1,2,6,25
1501874379536338,12,6,-68,-57,6,1,-11,-23
1501874379536338,-27,-51,-38,41,45,-1,-1,4
1501874379538300,-5,6,33,-5,-85,-9,-3,11
1501874379538300,3,-16,-35,-11,69,2,0,-17
1501874379559343,4,22,81,-5,-17,-3,-3,18
1501874379559343,9,5,-32,37,-12,-5,-3,-9
1501874379560299,0,-3,-19,-37,16,6,6,22
1501874379560299,-2,7,30,27,-16,5,3,22
1501874379572343,12,23,-68,-1,7,-3,5,-25
1501874379572343,-1,41,63,-17,-21,-6,-7,-10
1501874379589299,3,7,29,6,47,6,6,7
1501874379589299,-1,-43,15,-12,-46,-11,-6,6
1501874379596342,-12,-15,24,4,30,5,2,5
1501874379596342,6,-1,16,12,-47,-5,1,11
1501874379598299,7,-1,11,52,54,7,3,-21
1501874379598299,-7,-1,-1,-22,-3,-7,-8,-11
1501874379619365,-8,-23,-10,29,11,0,-7,-18
1501874379619365,-1,7,14,-81,28,3,4,2
1501874379620302,2,-9,-47,-1,-20,-1,5,29
1501874379620302,14,20,31,22,-19,-13,-7,-1
1501874379632343,3,18,-28,-23,24,9,2,0
1501874379632343,-7,-8,7,21,-3,2,2,-21
1501874379641349,11,53,20,-24,9,8,9,-2
1501874379641349,-21,-32,14,45,7,-5,-9,-12
1501874379656346,-4,-6,-45,-22,-50,-9,-4,-1
1501874379656346,-1,6,46,1,12,5,2,15
1501874379658315,6,-37,-67,-9,1,-6,-1,5
1501874379658315,-7,-5,-26,-19,-66,-2,-1,4
1501874379679341,-8,10,13,-2,40,1,2,-3
1501874379679341,12,30,8,-24,-50,-6,-3,6
1501874379680307,-5,-10,2,-50,4,-9,-12,-30
1501874379680307,-5,10,9,49,-3,-1,-1,-5
1501874379692350,-7,-3,16,3,16,11,6,3
1501874379692350,8,4,-17,23,19,0,3,7
1501874379701320,-8,15,38,-9,-10,-1,-6,-19
1501874379701320,10,16,-57,-13,-20,1,2,14
1501874379716305,-6,5,-66,10,11,-8,-1,-11
1501874379716305,8,-11,13,16,19,5,2,5
1501874379718308,-12,-29,0,20,-32,-8,-5,-1
1501874379718308,2,29,-14,-25,69,11,6,-1
1501874379739318,-1,-50,-12,-35,-56,-14,-5,1
1501874379739318,-3,8,2,24,25,9,5,13
1501874379740322,-1,-4,-36,-40,-6,-7,-16,-35
1501874379740322,21,51,-17,-8,-3,5,1,2
1501874379752316,7,41,106,47,27,7,4,-14
1501874379752316,-19,-75,-65,-8,-37,-8,-1,30
1501874379761333,-9,-19,17,21,7,-4,-3,-37
1501874379761333,-12,-4,-18,-49,-13,-4,-5,-11
1501874379776315,14,10,17,-18,15,4,6,8
1501874379776315,-2,5,21,21,-7,-1,-6,-16
1501874379778310,4,19,19,22,-11,1,1,13
1501874379778310,3,0,31,14,-15,1,3,-7
1501874379799312,-8,-26,-68,-26,-29,-7,-4,8
1501874379799312,0,-1,-3,32,14,-1,-2,-27
1501874379800312,5,11,27,-50,16,5,1,20
1501874379800312,-16,-13,39,57,5,0,-6,-43
1501874379813312,10,-22,-6,-6,-32,-4,5,0
1501874379813312,-9,-19,24,-15,21,-6,-4,4
1501874379821320,-1,17,-4,41,4,3,-1,-12
1501874379821320,-9,-30,-8,-47,-14,-8,-3,6
1501874379836345,-7,30,12,1,9,-2,-2,6
1501874379836345,0,13,-50,-33,1,1,0,3
1501874379838315,3,-14,43,58,3,-2,3,-24
1501874379838315,2,-16,3,-23,-18,-4,-1,13
1501874379859321,-8,-15,-31,-9,-6,-10,-9,3
1501874379859321,2,7,-7,-19,25,7,-2,-27
1501874379860326,3,8,-8,26,-21,-3,5,51
1501874379860326,0,12,11,3,6,3,1,-27
1501874379881357,-2,-10,10,-3,-3,-2,-2,-21
1501874379881357,4,4,36,-15,5,-5,-5,11
1501874379883315,-9,-18,-54,47,-14,-5,0,17
1501874379883315,4,24,5,51,12,1,1,1
1501874379896362,-5,6,-11,-10,11,2,1,5
1501874379896362,8,49,36,3,-7,5,7,12
1501874379898328,-1,-13,-28,-33,-8,-5,-6,-28
1501874379898328,3,6,-3,7,9,-6,-2,1
1501874379919373,-4,-9,17,-7,-6,1,-2,-7
1501874379919373,-3,-3,-15,-4,4,3,6,18
1501874379920356,10,4,17,10,0,3,6,21
1501874379920356,-1,-8,21,-32,2,-1,-8,-22
1501874379941380,-5,15,6,26,13,0,1,0
1501874379941380,1,-16,4,30,-17,-8,-7,-23
1501874379943320,-1,-9,-25,-61,4,2,4,19
1501874379943320,-9,2,9,-45,-21,-9,-5,17
1501874379956361,5,-29,-20,-1,43,3,-5,-19
1501874379956361,-5,-4,-41,1,-6,3,-3,-5
1501874379958320,0,7,30,45,-31,-12,-6,-2
1501874379958320,-1,5,18,55,38,13,6,18
1501874379979367,13,59,29,-74,-12,-6,5,16
1501874379979367,0,-85,-36,14,-20,0,5,25
1501874379980359,-12,-24,19,3,65,6,-3,-26
1501874379980359,-4,-18,-34,-27,-23,0,5,12
1501874380001371,-3,-1,65,19,25,1,-8,-5
1501874380001371,-1,0,-18,24,9,-2,-5,-17
1501874380003324,0,19,-6,-52,-39,-5,2,35
1501874380003324,-4,-35,-17,19,0,-3,0,-14
1501874380016362,-8,-10,-55,-5,11,-1,2,-2
1501874380016362,9,13,32,23,-13,-10,-2,18
1501874380022362,-2,-5,37,23,-10,6,1,13
1501874380022362,8,42,-28,36,44,10,3,-6
1501874380039370,-6,0,-11,-51,-27,0,8,27
1501874380039370,-15,-33,43,14,9,-5,-18,-47
1501874380040363,1,4,-22,-38,-10,0,-1,-9
1501874380040363,-11,-6,-28,-11,-24,-7,-4,-5
1501874380061369,8,22,34,28,44,-3,0,1
1501874380061369,1,-2,-2,-30,-5,9,5,2
1501874380063325,-11,-33,18,56,-10,-8,-9,-12
1501874380063325,7,-14,19,-17,5,2,4,24
1501874380076360,0,-9,-21,13,-21,-7,-6,-25
1501874380076360,-5,20,-19,1,9,-2,5,15
1501874380082343,6,7,-1,-32,26,6,3,14
1501874380082343,0,6,-16,15,-10,-6,0,7
1501874380099373,0,-14,17,6,-33,0,-5,-1
1501874380099373,5,14,-6,-11,-4,-1,-2,-21
1501874380100358,0,10,-33,-23,-21,-6,4,30
1501874380100358,3,11,-29,-36,3,0,-9,-17
1501874380121376,-12,-11,10,63,18,1,1,-1
1501874380121376,-4,35,18,-22,-11,1,-5,-24
1501874380123343,-1,-11,-14,18,4,-7,5,23
1501874380123343,10,12,-17,-14,0,2,0,3
1501874380136388,-3,-22,6,11,-17,-2,-3,8
1501874380136388,-2,-30,-7,-14,12,0,-1,-1
1501874380142369,12,43,44,3,-28,2,7,11
1501874380142369,-14,-45,-17,-11,43,1,-3,4
1501874380159377,-4,-1,23,8,-5,0,-3,6
1501874380159377,11,22,-3,8,-23,-3,3,31
1501874380160364,-8,4,12,3,29,-7,-5,-45
1501874380160364,0,-11,14,-19,-1,4,-3,-13
1501874380181395,1,10,-4,15,8,1,-1,-5
1501874380181395,0,-4,-7,7,-5,-2,1,3
1501874380183332,-7,-16,-9,-11,-9,-4,-3,4
1501874380183332,-11,6,9,-2,-38,-4,-1,-9
1501874380196361,13,21,22,24,-17,-6,0,9
1501874380196361,-5,-24,-20,-24,22,0,-5,-5
1501874380202366,-7,8,-16,1,4,10,2,2
1501874380202366,-1,-46,8,-22,-12,-6,-1,-11
1501874380219376,-4,-9,18,13,-15,-1,0,-7
1501874380219376,0,22,5,-8,-3,-4,1,-15
1501874380220363,3,-15,-53,-11,-6,-1,12,54
1501874380220363,-8,1,-20,9,31,-8,-24,-57
1501874380241380,7,9,-23,-30,0,7,-2,6
1501874380241380,-4,31,23,4,-17,-4,-4,-6
1501874380243338,3,-23,31,32,-7,7,6,-14
1501874380243338,-4,-23,11,-42,23,-3,-2,26
1501874380256369,1,10,-26,-2,-45,-3,0,-5
1501874380256369,-2,-5,-31,11,62,6,-1,-6
1501874380262378,5,-16,10,-36,-37,-1,-2,-5
1501874380262378,6,10,28,-5,-3,-7,5,31
1501874380279378,-17,-19,-27,-24,17,-1,-7,-29
1501874380279378,0,6,13,6,-30,-4,2,9
1501874380280363,-3,40,-64,-40,25,3,-6,-17
1501874380280363,11,-27,-6,31,5,4,4,-7
1501874380301379,0,-7,2,4,1,1,-1,-2
1501874380301379,3,8,9,-17,-8,-4,4,15
1501874380303338,1,25,24,18,-18,-5,-1,6
1501874380303338,-1,20,-13,-59,-22,-3,-3,-6
1501874380316356,-4,-31,-8,4,8,-2,-4,1
1501874380316356,-9,-9,10,-11,-52,-2,-3,-11
1501874380322382,2,-30,-16,-16,73,5,-6,-11
1501874380322382,-2,23,-10,40,-21,-5,2,4
1501874380339403,4,1,18,-15,-14,-2,4,9
1501874380339403,-6,0,16,12,15,0,1,7
1501874380340363,4,28,8,-6,-11,-7,-5,-4
1501874380340363,-8,-47,-20,-19,-15,0,4,6
1501874380361409,-2,14,-11,5,15,0,-2,-14
1501874380361409,7,-2,5,31,-3,-5,-6,-8
1501874380363343,-5,38,1,-44,7,1,-1,-8
1501874380363343,10,8,29,57,-10,1,10,35
1501874380375388,-4,-17,-29,-40,-15,-10,-8,-11
1501874380375388,-6,-26,-3,-14,24,2,-7,-20
1501874380384357,4,1,-24,20,-8,-1,-6,-15
1501874380384357,-3,21,-5,-17,-7,5,4,8
1501874380399391,3,9,36,9,-2,-2,3,1
1501874380399391,-3,3,-10,-14,-43,-9,-2,-9
1501874380400367,10,-13,4,36,53,13,12,46
1501874380400367,-6,-2,22,-47,5,-1,-7,-21
1501874380421401,-1,-2,-7,50,-7,0,4,22
1501874380421401,-11,-37,-27,2,14,-7,-6,-27
1501874380423346,-5,11,20,40,-21,-6,-2,-24
1501874380423346,2,14,-28,-24,-2,3,0,5
1501874380435346,3,-7,37,11,-1,-1,0,-15
1501874380435346,-4,13,-36,-27,7,5,5,13
1501874380444348,-3,-13,20,-5,-37,-7,-10,-28
1501874380444348,2,-13,12,31,30,5,2,21
1501874380466394,3,25,11,-6,-5,-3,-3,4
1501874380466394,0,-5,22,2,5,1,3,7
1501874380468348,-6,-4,-52,-21,-2,-1,2,3
1501874380468348,2,41,37,48,14,2,-1,-14
1501874380481394,-3,-2,-2,-64,8,3,1,1
1501874380481394,-3,-14,2,35,-8,-5,-2,9
1501874380483350,5,6,19,-33,-63,-5,1,19
1501874380483350,-7,-14,-24,3,33,-1,-3,-33
1501874380495414,4,25,-22,12,-16,4,6,14
1501874380495414,11,39,-3,-11,18,7,1,0
1501874380504350,-15,-49,-31,11,11,-3,-8,-7
1501874380504350,3,18,-2,0,-18,-3,-1,8
1501874380519418,1,11,15,-3,-14,-6,1,5
1501874380519418,4,11,22,14,16,7,6,10
1501874380520364,-1,5,15,42,10,-2,-6,-14
1501874380520364,2,35,24,-1,-1,4,11,33
1501874380541400,-11,-47,-43,-11,3,-6,-14,-33
1501874380541400,7,-7,-19,-23,-29,-11,-3,-11
1501874380543354,1,-2,41,10,54,13,7,1
1501874380543354,-3,3,-33,-9,-13,-3,-3,1
1501874380555425,2,-16,0,6,-5,1,6,24
1501874380555425,-4,11,10,25,-23,-7,-8,-9
1501874380564356,-8,-12,4,-24,5,1,3,-6
1501874380564356,8,-15,-7,19,1,0,0,-7
1501874380578396,0,10,57,-27,12,-1,-4,1
1501874380578396,4,-12,-75,-57,-1,1,0,11
1501874380585398,4,14,26,60,-21,-7,-3,3
1501874380585398,-8,-1,-12,-20,-9,-1,-1,11
1501874380601417,-4,-1,-15,27,16,5,2,-10
1501874380601417,-9,-22,19,7,12,-4,1,5
1501874380603356,4,19,8,-24,-26,-6,-6,-15
1501874380603356,5,-9,6,-1,-11,2,3,-15
1501874380615423,-1,-1,-13,1,16,2,0,-4
1501874380615423,3,24,-5,38,-2,-2,-2,5
1501874380624358,-15,-35,-17,-72,9,1,-2,-6
1501874380624358,-7,-13,-13,32,-2,-7,-5,-4
1501874380639365,-2,1,-16,-8,-3,0,3,4
1501874380639365,2,19,33,21,6,0,-1,-2
1501874380640365,-3,1,1,-12,-3,-1,-3,-13
1501874380640365,-4,-8,-50,-18,-21,-8,-6,3
1501874380661378,1,6,25,1,-42,-4,3,18
1501874380661378,-5,-2,-12,0,62,9,0,-19
1501874380663360,6,-20,-30,-30,2,2,-1,7
1501874380663360,-10,16,34,6,-5,0,-2,-15
1501874380675360,3,-12,-21,40,-6,-6,-1,5
1501874380675360,-7,-23,10,-36,-25,-3,-4,-15
1501874380684362,7,12,-4,28,19,-2,1,-4
1501874380684362,1,1,10,-37,-3,-5,0,-7
1501874380699362,-9,10,2,25,-1,-2,-6,2
1501874380699362,3,-1,-20,13,-25,-6,-5,8
1501874380700361,-8,-6,12,2,34,3,1,-4
1501874380700361,9,-11,3,5,7,2,6,28
1501874380721362,-3,22,10,-41,-33,-3,-7,-43
1501874380721362,-5,-12,5,12,36,7,0,-1
1501874380723364,3,0,46,10,-22,-3,4,13
1501874380723364,-7,8,-45,4,-5,-5,-5,-8
1501874380744405,6,-16,-29,-3,5,2,3,14
1501874380744405,4,-7,27,30,-4,-3,2,11
1501874380745370,8,43,41,-64,-17,0,-4,-7
1501874380745370,-4,-21,13,26,-4,-4,-4,-3
1501874380759430,-5,-9,-15,-4,19,2,-1,-11
1501874380759430,4,17,-2,-16,-11,1,4,6
1501874380760367,-3,-17,-18,39,-3,-9,1,9
1501874380760367,-4,-13,3,-2,-3,-8,-7,-15
1501874380781406,-2,9,3,-13,46,7,-1,-15
1501874380781406,1,3,-7,4,5,1,1,8
1501874380783367,-2,-24,-22,1,-7,3,1,-2
1501874380783367,1,-5,-5,0,-14,-4,0,3
1501874380804418,-1,12,17,-1,-12,-7,-1,7
1501874380804418,1,-13,23,11,-7,-2,1,10
1501874380805368,3,13,29,-52,24,-2,-4,-15
1501874380805368,-1,14,-71,-11,-7,-4,-5,-7
1501874380818412,0,-11,18,32,23,6,4,12
1501874380818412,-8,-38,-5,-9,-16,3,0,-6
1501874380825408,-1,7,-24,26,-30,-10,-6,-9
1501874380825408,7,11,63,-14,7,6,8,24
1501874380841433,8,-2,-22,-15,28,3,6,8
1501874380841433,-17,-9,-36,-12,-7,-3,-18,-65
1501874380843371,-7,-12,-30,11,-1,-1,-6,10
1501874380843371,-8,2,53,4,-30,-6,-5,-19
1501874380864400,4,6,-63,-16,27,0,3,17
1501874380864400,-1,-12,14,-7,-5,0,3,9
1501874380865375,-5,4,7,13,-20,-5,-4,-16
1501874380865375,12,8,2,36,20,4,4,21
1501874380879426,-2,19,-14,-62,-12,-1,-3,4
1501874380879426,5,30,16,19,-12,-1,4,-2
1501874380880375,-12,-3,-15,16,14,3,0,-6
1501874380880375,0,-42,12,-24,-17,1,1,8
1501874380901415,-6,-18,9,39,-13,-6,-2,-3
1501874380901415,5,16,31,-17,20,-2,-6,-14
1501874380903375,0,-17,-35,-6,-24,-3,1,25
1501874380903375,-1,17,-26,19,17,1,-2,-23
1501874380924419,-1,-15,41,19,-24,-6,-1,4
1501874380924419,-5,6,-4,-17,-12,-2,-4,-12
1501874380925380,2,15,8,23,34,6,3,-7
1501874380925380,-7,-31,2,9,-8,0,-3,6
1501874380938420,0,-14,-18,-52,10,-3,-3,-2
1501874380938420,-12,-5,-6,21,3,-4,-2,-31
1501874380945438,8,12,-22,-20,7,-2,-4,12
1501874380945438,-3,14,-25,10,-17,0,-2,-7
1501874380961397,2,18,38,27,4,4,2,0
1501874380961397,1,4,-11,8,9,-5,1,26
1501874380963377,-10,-32,-18,-23,9,6,-8,-43
1501874380963377,-3,-8,2,-1,-20,-5,-3,5
1501874380984427,0,-7,37,6,-35,3,0,-6
1501874380984427,10,26,-34,-16,27,3,0,27
1501874380985384,-3,-10,27,10,-19,-6,8,18
1501874380985384,0,10,26,-3,16,1,-3,-13
1501874380998420,-16,-41,-44,-20,5,3,-5,-17
1501874380998420,12,33,14,6,-2,3,4,15
1501874381005446,13,18,30,-39,-5,-3,1,-3
1501874381005446,-6,-32,-11,-23,-15,-5,0,5
1501874381021426,3,8,21,51,-15,-7,-5,1
1501874381021426,-5,-14,2,-27,26,2,3,7
1501874381023438,2,5,0,32,-4,-4,1,19
1501874381023438,2,17,-1,-20,20,1,0,-17
1501874381044400,0,5,-15,-9,-6,1,-5,-11
1501874381044400,-3,-28,-9,0,-4,-3,0,11
1501874381045385,-2,24,21,8,-12,0,-3,9
1501874381045385,0,-2,-2,-8,5,2,0,-7
1501874381058399,-4,-9,-30,9,5,-9,-3,5
1501874381058399,-1,-5,-13,-13,-18,2,2,-5
1501874381065400,-2,15,5,-2,-11,-4,6,26
1501874381065400,-9,-14,-2,-6,32,-5,-17,-71
1501874381081411,-5,-11,-43,-32,2,3,-2,-1
1501874381081411,-5,10,26,19,-14,0,-4,-3
1501874381083396,2,-13,-29,12,22,2,2,3
1501874381083396,2,33,17,24,-31,-3,8,46
1501874381104459,6,-3,16,-13,9,-2,-5,-35
1501874381104459,-8,-10,-10,-38,0,-2,-1,3
1501874381105392,-4,-8,-38,16,-7,1,-3,-14
1501874381105392,3,-6,-4,5,12,3,1,6
1501874381118434,1,6,1,-11,-14,-4,3,10
1501874381118434,2,4,0,-2,-19,-7,-2,9
1501874381125425,-1,-3,16,-4,13,1,-4,-16
1501874381125425,-2,-10,-13,-6,-8,1,4,9
1501874381141475,2,19,5,17,-1,0,2,18
1501874381141475,2,-7,33,14,14,5,3,-11
1501874381143387,2,-10,-10,-5,6,-4,0,-5
1501874381143387,-11,13,-18,-18,-25,-8,-8,-9
1501874381164422,4,3,25,23,26,8,2,11
1501874381164422,0,-9,15,-1,-40,-8,-6,-10
1501874381165392,-10,-37,1,1,38,0,-2,-8
1501874381165392,8,-1,4,-11,3,5,3,21
1501874381178460,6,16,-19,-21,-6,-3,4,3
1501874381178460,1,10,13,21,-3,-1,2,10
1501874381185408,1,31,11,4,-31,-5,-2,-9
1501874381185408,-1,-42,-16,-3,46,7,14,49
1501874381201438,-4,-5,-45,-8,-27,-3,-9,-64
1501874381201438,2,-33,-17,-18,22,4,0,8
1501874381203391,-13,-12,2,12,-32,-5,-9,-16
1501874381203391,-4,11,-16,22,24,-1,-7,-13
1501874381224440,0,-3,21,-39,-6,0,5,20
1501874381224440,-3,2,-33,-17,-8,-7,-2,-1
1501874381225398,5,10,6,-4,-20,2,-1,1
1501874381225398,1,5,11,5,-19,-4,0,-4
1501874381238418,2,11,17,1,24,8,3,3
1501874381238418,-2,8,-15,-15,-10,0,1,-3
1501874381245452,-1,3,19,17,4,4,0,0
1501874381245452,3,2,2,12,16,1,0,4
1501874381261465,1,-2,-10,-19,-22,-7,-5,-4
1501874381261465,-5,-14,-13,-10,5,-3,-4,-1
1501874381263394,-3,7,5,9,-2,-1,-1,-3
1501874381263394,1,8,24,-18,-28,-2,-2,-10
1501874381284446,-7,-28,-14,20,-13,-7,-5,4
1501874381284446,1,20,-6,12,0,5,4,3
1501874381285403,0,-29,1,9,54,1,6,25
1501874381285403,-4,-10,-24,-4,-28,-2,-5,-25
1501874381298436,-8,5,4,-57,-13,-9,-12,-18
1501874381298436,4,-1,-1,8,-8,1,-4,-3
1501874381306407,2,-5,14,-33,11,-1,-2,-5
1501874381306407,-4,-4,-30,11,-7,0,3,-8
1501874381321445,-12,-27,35,15,4,-3,0,38
1501874381321445,-3,1,-62,-11,-14,-5,-5,-16
1501874381323398,7,19,-9,-7,-11,0,-1,1
1501874381323398,0,-11,6,1,16,4,0,-2
1501874381344440,3,7,10,12,-4,-1,2,-7
1501874381344440,-2,-3,39,7,11,-5,-4,2
1501874381345401,0,1,-20,-7,-19,-2,0,12
1501874381345401,-5,-20,5,-39,3,-3,0,6
1501874381357440,1,18,-7,56,-9,-2,-5,-23
1501874381357440,-2,-11,23,23,18,-2,-2,1
1501874381366411,1,5,-30,0,-6,4,1,-9
1501874381366411,-3,23,21,0,16,-5,3,13
1501874381381447,1,-24,8,-30,16,0,-5,-17
1501874381381447,-7,-12,-12,-3,0,0,-1,0
1501874381383427,-1,2,13,-8,-43,-10,-5,-11
1501874381383427,5,7,1,0,34,2,-2,-11
1501874381404429,1,18,9,30,14,4,8,24
1501874381404429,-3,-21,-25,-5,25,-2,-1,-9
1501874381405401,-2,-21,-33,-1,-15,1,-2,-7
1501874381405401,5,1,39,10,-18,1,1,4
1501874381417470,-2,-5,-4,-1,-12,-3,1,0
1501874381417470,-3,16,-3,-11,2,6,1,-4
1501874381426415,-2,-3,0,-7,6,-3,0,11
1501874381426415,1,8,5,39,-23,-7,-3,-1
1501874381441452,2,17,53,-9,23,6,-2,10
1501874381441452,-11,-60,-8,-4,-25,-8,-6,-25
1501874381443407,-2,-7,-2,6,-11,-2,0,-11
1501874381443407,3,28,0,-21,28,3,-2,-9
1501874381464450,-3,-16,-26,23,-13,-3,8,10
1501874381464450,2,25,16,11,-2,2,-2,13
1501874381465417,2,-11,-15,-15,15,1,-4,2
1501874381465417,-1,-3,-12,8,-8,-3,-2,-8
1501874381477448,-2,5,-7,-5,-8,-1,-4,-11
1501874381477448,5,34,11,-6,-5,-1,3,15
1501874381486419,-9,-19,-16,-10,14,2,1,-27
1501874381486419,7,23,-2,0,-17,-2,2,14
1501874381501456,-4,-33,-19,1,-13,-4,-2,-3
1501874381501456,3,0,46,-6,22,2,2,7
1501874381503408,0,12,-7,3,-21,-5,-3,10
1501874381503408,-6,-13,-8,-12,23,3,-2,-5
1501874381524451,4,31,-13,7,-11,-2,0,11
1501874381524451,0,-38,-8,6,15,1,1,-9
1501874381525420,-5,0,-4,13,-16,-4,1,19
1501874381525420,-6,-19,0,-8,-2,-4,-4,-15
1501874381537476,-2,0,-17,-14,18,4,-2,-22
1501874381537476,2,23,-24,8,-4,0,-1,14
1501874381546416,1,3,19,11,10,3,4,4
1501874381546416,-5,7,-9,-38,-29,-4,-8,-8
1501874381561480,-2,-30,11,6,2,-2,-1,12
1501874381561480,0,10,-2,3,-12,-4,-1,-11
1501874381563412,1,-6,-11,19,4,1,0,-6
1501874381563412,1,34,14,9,-3,1,2,6
1501874381584477,-4,-12,-2,-10,2,-1,2,-15
1501874381584477,1,4,12,1,17,2,1,10
1501874381585415,1,-6,19,-6,-9,-5,-1,30
1501874381585415,-8,-18,-24,-31,5,0,-7,-40
1501874381597454,-4,5,-7,28,-19,-7,-3,2
1501874381597454,1,-6,10,6,-14,-3,-1,-9
1501874381606424,0,15,28,5,22,4,0,-5
1501874381606424,0,-6,11,-17,1,3,3,22
1501874381621462,4,12,0,6,18,5,5,16
1501874381621462,-9,-22,-21,-15,-30,-6,-7,-15
1501874381623415,2,35,15,-1,10,-5,-8,-9
1501874381623415,2,-17,-10,7,-10,-1,-1,1
1501874381644456,-4,-22,-20,-17,-6,-5,-3,3
1501874381644456,3,20,-15,-2,5,0,1,7
1501874381645443,-1,6,33,-10,-12,-1,-1,-11
1501874381645443,1,4,-12,40,19,2,1,-7
1501874381657484,1,13,55,1,-12,0,2,15
1501874381657484,-6,-12,-61,-26,-9,-6,-2,29
1501874381666430,-4,-8,4,1,15,4,-4,-44
1501874381666430,1,3,-8,18,-3,-3,-3,4
1501874381680463,5,15,-5,-12,5,4,3,-2
1501874381680463,-1,4,5,-3,-11,-5,-1,-1
1501874381681422,3,8,17,5,5,-2,1,12
1501874381681422,-1,-8,-13,-6,-26,-6,0,21
1501874381703488,-2,3,-20,1,40,5,-3,-18
1501874381703488,0,-1,-3,-9,-17,-4,-4,-11
1501874381704440,-9,-33,-15,6,22,2,-1,1
1501874381704440,2,0,-17,-15,-8,-2,0,0
1501874381725477,2,5,-2,-6,-25,-4,-2,8
1501874381725477,-3,-4,42,11,26,1,0,3
1501874381726420,2,11,-5,-6,-24,-5,-3,6
1501874381726420,-3,-3,33,-7,20,6,3,11
1501874381749494,-2,3,-56,39,5,-6,-4,-7
1501874381749494,-1,-19,-20,-21,-27,0,1,-16
1501874381749494,-5,-4,-2,5,21,-4,-5,10
1501874381749494,-2,-2,18,11,4,4,3,-21
1501874381763471,4,38,-1,-27,8,2,-3,-29
1501874381763471,-1,-18,-5,16,-8,-5,-3,4
1501874381764466,-4,-16,-29,-52,-10,-5,-2,-2
1501874381764466,-6,-7,9,47,-6,-6,-6,-4
1501874381786447,10,12,2,-13,-9,0,3,17
1501874381786447,-1,8,8,-7,3,-3,-1,-8
1501874381786447,2,1,-18,-3,-2,2,0,33
1501874381786447,-1,7,-12,-26,-5,2,2,5
1501874381800472,-8,-28,-3,7,-7,-6,-8,-28
1501874381800472,-4,-8,4,6,16,5,-1,-1
1501874381801429,10,10,-10,4,-7,0,0,-6
1501874381801429,-13,-16,-8,-7,3,0,0,-6
1501874381823473,-1,-5,12,8,-14,-5,0,23
1501874381823473,3,18,23,-2,0,3,2,12
1501874381824472,0,11,15,3,3,-2,-2,-31
1501874381824472,3,-31,-27,-5,-22,-2,-2,19
1501874381845489,-2,21,10,1,20,-1,-1,-18
1501874381845489,-3,4,12,10,-20,-2,-7,-2
1501874381853427,2,1,-7,11,17,6,5,6
1501874381853427,-1,-17,11,4,-2,-1,0,5
1501874381860466,-5,-6,-27,-8,5,-2,1,9
1501874381860466,1,2,25,5,15,4,-2,-22
1501874381861432,-2,1,-11,-9,-24,-6,-3,4
1501874381861432,-1,10,23,2,21,3,-3,-30
1501874381883468,2,2,-1,-3,-26,-1,1,16
1501874381883468,-2,6,13,7,2,0,3,10
1501874381884446,-1,12,-45,-12,-16,-3,-4,-19
1501874381884446,5,2,14,-10,12,1,3,19
1501874381905493,1,-26,-9,-13,-7,1,-3,4
1501874381905493,-3,17,27,12,4,-2,-4,-19
1501874381906458,2,0,41,30,15,4,2,10
1501874381906458,-3,-11,-32,-1,-18,-7,-3,0
1501874381920475,0,-3,-4,-21,8,5,3,4
1501874381920475,-1,-2,-26,-18,-2,-3,-3,-9
1501874381921458,-5,-10,16,3,-3,2,1,3
1501874381921458,5,14,-5,9,-16,-4,-3,-2
1501874381943434,-5,-12,20,19,25,-1,1,-20
1501874381943434,8,30,44,5,-25,-7,1,19
1501874381944442,-8,-42,-22,-24,13,-2,-4,0
1501874381944442,-3,-8,5,-15,-9,-1,-3,-10
1501874381965482,-1,6,-6,3,-3,-2,-1,10
1501874381965482,-1,-9,-30,-11,3,-1,0,-1
1501874381966434,-3,-10,10,3,-6,-2,-2,9
1501874381966434,2,7,30,10,1,0,1,14
1501874381980484,-8,-14,-54,-21,-8,-1,1,-22
1501874381980484,6,-6,-20,0,4,-1,-1,24
1501874381981435,-4,29,-12,-11,-10,-3,-4,-33
1501874381981435,-9,-23,28,10,15,5,-2,-16
1501874382003526,5,22,22,24,1,0,5,27
1501874382003526,-7,-13,-13,-28,-6,-2,-7,-27
1501874382004478,6,-1,-1,8,3,2,1,10
1501874382004478,-3,6,-17,3,-35,-6,-4,-9
1501874382025480,-1,0,30,-3,49,5,-4,-6
1501874382025480,-1,1,1,8,-9,2,3,12
1501874382026438,-1,-30,-12,-6,9,2,3,0
1501874382026438,2,19,-2,-1,-24,-4,0,4
1501874382049498,0,-15,-21,-3,-11,-3,-6,8
1501874382049498,-2,-4,-4,-11,27,2,1,4
1501874382049498,6,36,39,9,-4,2,3,25
1501874382049498,-4,-1,-22,-6,8,0,-2,-31
1501874382063489,-6,-24,-8,-4,-15,-3,-5,-13
1501874382063489,-2,-7,-21,-3,-2,-3,-1,-11
1501874382064478,0,11,-35,1,0,-2,2,13
1501874382064478,3,9,13,-1,8,-1,0,-2
1501874382085487,0,11,26,-12,-1,3,2,19
1501874382085487,1,-30,-12,34,-13,2,-1,-24
1501874382086441,-4,-5,14,-4,6,-4,-4,-3
1501874382086441,2,-9,-24,-11,-2,-4,-1,10
1501874382101469,-1,0,9,-3,-17,-3,-4,-12
1501874382101469,3,17,15,-8,-20,-4,2,12
1501874382102442,1,3,-3,8,19,3,3,-16
1501874382102442,-5,-5,-9,-6,8,3,-3,20
1501874382123485,-1,8,5,3,-11,-5,-1,1
1501874382123485,2,4,6,3,5,2,2,6
1501874382131457,-2,-10,-18,13,-23,-7,-4,-11
1501874382131457,3,22,2,8,30,6,4,-2
1501874382145502,-1,-30,9,-2,-14,-1,2,5
1501874382145502,-4,4,18,-3,20,4,-3,-5
1501874382146449,0,-21,-14,1,-4,-1,-2,5
1501874382146449,-2,3,2,-4,-12,-2,-4,-9
1501874382160450,-1,12,7,8,1,0,2,12
1501874382160450,2,9,2,-5,-2,0,3,-1
1501874382161446,-6,-8,1,-15,-19,-3,-9,-18
1501874382161446,-2,-12,-10,-1,10,-2,-3,3
1501874382183450,-3,-2,-10,-9,-1,-4,-5,-14
1501874382183450,-3,-2,-19,8,3,-2,2,7
1501874382184452,0,7,27,-11,-7,0,1,9
1501874382184452,4,-9,-1,-1,1,1,0,-2
1501874382205512,-5,6,-21,2,9,3,1,0
1501874382205512,-3,-23,-26,-6,-1,-2,-6,-8
1501874382206453,-9,-11,7,-15,-8,-3,-3,-5
1501874382206453,3,12,34,0,3,-3,-1,-1
1501874382220491,2,17,22,8,-15,-3,1,7
1501874382220491,1,-2,-16,-5,5,2,3,0
1501874382228512,-5,-19,-14,8,-12,-5,-6,-17
1501874382228512,2,2,-24,-10,0,1,0,11
1501874382243472,-1,-3,22,2,17,2,-1,0
1501874382243472,0,15,-11,3,-10,-7,0,19
1501874382244460,-3,12,24,-7,3,4,0,-11
1501874382244460,0,-3,-9,-7,0,-2,0,-10
1501874382265485,5,-9,-20,3,-21,-1,-2,-2
1501874382265485,0,23,46,9,8,0,0,2
1501874382266455,-2,-31,-31,-10,3,-2,5,25
1501874382266455,-6,-3,8,9,-3,-2,-10,-15
1501874382280521,-3,-2,-14,-14,-1,-2,-3,-10
1501874382280521,-2,-9,-9,-12,-9,1,-1,0
1501874382288478,2,14,34,9,7,2,1,-5
1501874382288478,-3,-12,-16,4,-7,-2,2,18
1501874382303473,-2,8,8,-11,-23,-5,-2,-27
1501874382303473,-2,-11,-14,3,22,2,-2,-8
1501874382304454,4,16,11,14,13,0,3,12
1501874382304454,-2,8,-35,-8,-7,-3,-1,-12
1501874382325496,0,-10,30,5,14,0,0,5
1501874382325496,-3,0,-9,-15,-15,-2,-1,-1
1501874382326459,-2,14,16,23,-7,-3,-2,-3
1501874382326459,6,6,-1,6,-1,5,2,-7
1501874382340465,-7,-24,-38,-7,14,-3,-2,6
1501874382340465,0,-7,3,-21,-7,-2,-1,-4
1501874382348456,-1,4,-2,-12,-3,-3,-5,-7
1501874382348456,-1,-9,5,4,0,-4,3,11
1501874382363478,2,14,7,6,-4,7,0,1
1501874382363478,-5,3,1,7,5,-1,-4,-4
1501874382364477,4,-14,-21,-8,-6,-3,0,-1
1501874382364477,-6,8,6,-14,-4,-4,-2,17
1501874382385459,-6,-2,-4,5,3,-1,-4,-46
1501874382385459,5,1,-24,-16,-12,-1,1,7
1501874382386460,-1,9,13,7,7,0,-1,-6
1501874382386460,-2,2,2,-3,-5,1,1,2
1501874382400460,4,-10,-6,-3,9,0,2,24
1501874382400460,-4,-2,-6,9,0,-3,-1,-18
1501874382408460,0,2,-3,3,-5,1,-4,-25
1501874382408460,0,-3,8,-6,-13,-7,-4,-1
1501874382423465,-1,14,-5,2,27,8,2,9
1501874382423465,1,3,26,4,-7,-2,-1,-2
1501874382424460,-3,-15,-11,-18,4,2,3,16
1501874382424460,-1,7,3,9,-11,-2,-3,-9
1501874382445503,-1,-18,-21,-11,-12,-5,-6,-9
1501874382445503,-1,11,18,2,4,0,0,9
1501874382446471,5,24,11,2,15,1,-2,-15
1501874382446471,-9,-27,-25,-11,-14,-5,-3,4
1501874382460473,-5,2,-6,7,0,-3,4,2
1501874382460473,-1,-7,-7,26,-35,-5,-2,0
1501874382468526,0,5,36,-3,37,11,5,8
1501874382468526,4,18,-16,-2,13,0,1,-2
1501874382483532,0,-10,-6,-10,-2,0,2,18
1501874382483532,-2,-9,5,-5,-11,-2,-1,-3
1501874382484507,-1,6,-30,1,-15,-7,-2,2
1501874382484507,6,7,22,8,13,2,0,-1
1501874382505480,-5,-7,24,-10,3,-1,1,10
1501874382505480,0,-3,-17,-5,2,-2,-2,0
1501874382506465,-5,-21,-33,8,-23,-6,-4,-2
1501874382506465,-2,-2,22,-13,17,2,-3,-2
1501874382520535,3,31,-4,5,-16,-6,-3,-19
1501874382520535,-1,-11,16,9,17,2,3,8
1501874382528534,-7,-29,-29,-10,-2,-4,-1,5
1501874382528534,-1,4,25,-1,-24,-5,-2,-23
1501874382543469,-3,-7,-1,19,27,4,2,-3
1501874382543469,4,17,4,-20,-11,0,-4,-1
1501874382544477,-1,-4,-32,1,18,1,0,5
1501874382544477,4,11,7,7,-11,-4,-2,0
1501874382565517,1,-12,32,4,-28,1,2,18
1501874382565517,-3,0,-33,-5,47,7,7,12
1501874382566473,-7,-15,17,8,-45,-13,-15,-25
1501874382566473,5,11,9,-8,39,4,5,11
1501874382580536,-5,-20,-15,-13,-25,-6,-10,-23
1501874382580536,-5,-23,-9,-2,11,0,-1,11
1501874382588514,1,7,1,-1,-8,0,2,7
1501874382588514,-6,-25,-12,3,-7,-2,0,0
1501874382603512,1,8,-33,-5,4,1,0,2
1501874382603512,0,13,19,-11,-22,-3,-2,-7
1501874382604516,3,1,-22,5,8,-3,1,1
1501874382604516,-1,1,6,-4,8,2,-3,-4
1501874382625533,-3,-17,2,8,1,1,1,3
1501874382625533,-5,-8,1,0,-13,-2,-2,-1
1501874382626472,5,21,22,11,32,14,7,-24
1501874382626472,-1,-7,-17,-7,-8,-2,0,17
1501874382640515,5,40,18,6,-6,-6,-3,-2
1501874382640515,-5,-12,2,15,-10,-6,-5,-35
1501874382648514,-1,-13,-6,-1,-2,3,1,-2
1501874382648514,-3,-1,-19,-3,10,5,-1,-9
1501874382663518,-1,-13,-14,-5,3,-2,1,4
1501874382663518,2,-2,17,-16,-13,-4,-2,7
1501874382664513,-1,13,19,1,-22,-4,-1,8
1501874382664513,-3,-8,-28,0,19,-4,1,-5
1501874382685520,-3,-9,-7,3,-3,1,-9,-7
1501874382685520,4,-2,-36,-5,9,-4,-3,7
1501874382686475,-1,13,40,-2,-16,-1,0,0
1501874382686475,1,5,-20,-2,1,-3,1,5
1501874382709483,-6,-5,24,0,8,2,2,-2
1501874382709483,2,5,-2,5,6,-1,-2,-7
1501874382709483,-1,-15,-3,-6,-4,-5,0,10
1501874382709483,-6,1,-22,2,-14,0,-6,-19
1501874382723542,-1,5,-5,16,6,-2,-1,0
1501874382723542,2,20,22,-6,20,7,2,-5
1501874382724522,-3,15,-33,-15,6,3,2,4
1501874382724522,-4,-46,18,0,-16,-4,1,14
1501874382745524,5,4,-6,-8,-25,-9,-3,-15
1501874382745524,-8,-20,-15,-21,13,3,0,4
1501874382746503,1,5,4,8,5,-1,-2,8
1501874382746503,-2,6,36,2,3,1,-1,-19
1501874382769486,0,-10,-24,-9,-8,-2,1,11
1501874382769486,3,4,7,10,-6,-4,-1,-8
1501874382769486,0,-9,-13,-12,-3,-1,-1,-4
1501874382769486,-1,16,-6,-7,-32,-5,-3,4
1501874382783512,1,-8,-6,9,39,3,1,13
1501874382783512,-6,-8,11,1,-2,2,-3,-16
1501874382784512,-2,-12,-24,-1,7,-1,2,7
1501874382784512,-1,7,-2,-3,-19,-3,-4,-17
1501874382805513,3,34,13,-10,-9,-5,-5,-12
1501874382805513,-7,-63,-37,10,-1,-3,0,11
1501874382813517,-3,-4,17,-17,-7,3,1,4
1501874382813517,1,-4,6,4,8,-1,-1,4
1501874382829487,-2,18,-3,-7,-11,-2,-1,-4
1501874382829487,3,3,9,5,11,1,-2,0
1501874382829487,-2,-5,12,-4,-14,-6,-2,-4
1501874382829487,-4,-5,-32,2,20,3,1,10
1501874382843485,0,-13,10,7,-8,-2,-2,-2
1501874382843485,2,18,59,10,-9,-2,0,8
1501874382844495,-4,-6,-39,-2,-14,-4,-6,-19
1501874382844495,-2,0,-1,-6,20,8,3,0
1501874382865553,0,7,7,-14,-22,-5,-2,4
1501874382865553,0,-6,2,12,16,0,0,9
1501874382866489,2,10,3,0,1,-3,-5,0
1501874382866489,-1,-4,5,-10,-5,-1,0,0
1501874382889498,0,3,-4,-9,8,4,1,-1
1501874382889498,0,-7,-28,-10,-23,-6,-4,-7
1501874382889498,-3,6,14,8,18,1,2,5
1501874382889498,0,8,9,10,-18,-6,-1,-2
1501874382903531,-5,-7,-1,6,6,-1,-1,-11
1501874382903531,2,22,5,-10,-6,-1,-2,-1
1501874382904527,-2,-25,-11,-5,-20,-5,-4,0
1501874382904527,4,-5,-27,0,27,1,-3,4
1501874382925553,-3,3,-16,-3,2,-1,4,3
1501874382925553,2,5,17,5,-4,0,-1,3
1501874382926490,-2,8,36,1,0,-3,0,-15
1501874382926490,0,3,1,-4,-7,4,0,-7
1501874382949503,-4,-17,-20,1,13,-1,-3,6
1501874382949503,0,-3,-9,-3,-7,1,-1,-1
1501874382949503,0,0,16,6,0,-1,-1,6
1501874382949503,4,-2,6,16,-4,-1,0,0
1501874382963557,0,4,22,-11,0,3,0,-4
1501874382963557,-3,7,-18,2,-2,-1,1,9
1501874382964533,-3,-14,-6,1,0,3,0,-7
1501874382964533,-5,-4,10,12,-6,-2,1,2
1501874382985542,-4,0,18,-15,3,1,-5,-8
1501874382985542,4,13,-31,-11,4,0,-1,4
1501874382986517,7,1,17,2,-3,0,1,1
1501874382986517,0,-2,-12,-5,-7,-5,-1,9
1501874383008545,0,-1,-3,6,-2,1,0,9
1501874383008545,1,1,-23,-2,-4,0,0,-10
1501874383009520,-2,-7,12,-11,6,-3,-4,-1
1501874383009520,1,2,7,-8,-9,0,-2,-2
1501874383023537,0,1,-11,0,-6,-2,2,0
1501874383023537,-3,-20,15,6,10,-4,-2,-9
1501874383024537,5,4,7,4,-5,-2,2,13
1501874383024537,-3,11,1,-6,6,7,1,13
1501874383045554,-4,-11,-3,0,-7,-4,-12,-24
1501874383045554,-2,5,-12,4,-3,3,1,-2
1501874383046515,-9,-3,-43,-5,1,-2,-4,-9
1501874383046515,2,-17,12,-8,-9,-6,-1,4
1501874383069510,-1,-10,0,3,-12,1,6,17
1501874383069510,3,27,-6,-8,8,-4,-4,-14
1501874383069510,-1,-9,1,12,-2,1,-4,0
1501874383069510,1,8,7,-15,2,-1,-3,-4
1501874383083542,5,10,-9,1,-2,2,3,5
1501874383083542,-11,-35,-2,-1,-5,-3,0,-2
1501874383084541,3,20,14,5,10,0,1,6
1501874383084541,-2,-11,-9,-18,-8,-3,-1,-5
1501874383105544,-1,-2,14,2,10,1,1,2
1501874383105544,2,17,-8,-6,-27,-5,-1,4
1501874383106516,-1,-11,11,-1,15,3,0,-4
1501874383106516,-6,-4,26,18,8,-1,0,-1
1501874383129516,2,1,-58,-12,-7,-6,-2,-3
1501874383129516,-5,-17,16,-1,3,2,-1,-7
1501874383129516,1,10,-2,-3,-7,-3,-1,-2
1501874383129516,2,8,-15,-1,-1,0,1,13
1501874383143503,-2,3,29,14,-15,0,-1,-9
1501874383143503,-2,9,2,-19,15,-1,-3,-3
1501874383144512,4,-17,-46,-5,-8,-2,-2,-3
1501874383144512,-3,-6,23,3,1,-2,-2,1
1501874383165552,1,6,-7,4,6,1,1,0
1501874383165552,0,15,-11,11,-22,-2,-1,3
1501874383166504,1,-6,44,-14,6,5,4,1
1501874383166504,-7,-23,0,7,-3,-5,-5,-10
1501874383189520,2,19,-1,-19,-22,0,0,11
1501874383189520,0,-19,21,1,20,-6,-6,-16
1501874383189520,2,13,-7,5,15,1,-4,4
1501874383189520,1,17,17,23,-4,4,7,-9
1501874383203573,-3,-3,-32,-25,3,0,1,9
1501874383203573,-6,-19,-6,-4,3,-3,-3,-11
1501874383204551,-2,4,-2,4,-6,-7,-2,1
1501874383204551,3,2,-22,-4,5,2,-1,1
1501874383225569,0,0,29,13,3,-1,3,1
1501874383225569,0,8,-28,-7,-9,0,-1,3
1501874383226511,-2,-23,-21,-7,-6,-2,-3,-2
1501874383226511,-1,9,19,0,-1,-2,-4,-9
1501874383249521,0,3,-13,4,12,-1,0,1
1501874383249521,2,-6,9,10,-10,1,3,7
1501874383249521,-11,-17,18,-2,8,5,-1,-8
1501874383249521,3,6,-16,2,-27,-3,-4,2
1501874383263550,1,0,20,8,39,4,0,-1
1501874383263550,-1,-12,13,-8,-4,2,0,1
1501874383264547,-5,13,-43,-9,-2,-4,0,4
1501874383264547,-4,-15,-5,3,-13,-6,-5,-13
1501874383285551,-3,-21,16,6,-6,-5,-9,-22
1501874383285551,5,9,3,5,0,-1,3,16
1501874383286511,4,7,1,-3,-11,-1,1,0
1501874383286511,-1,-3,-11,-6,10,1,1,3
1501874383309533,-6,0,-11,1,-15,-9,-6,-9
1501874383309533,1,5,3,1,1,8,1,4
1501874383309533,-4,-20,-5,0,-9,-2,-2,-5
1501874383309533,-1,-19,-23,3,-3,1,0,3
1501874383322578,-4,3,12,-3,-4,-5,-5,-8
1501874383322578,-3,-13,0,-4,5,1,-3,-7
1501874383330556,2,35,0,8,6,-3,-3,-4
1501874383330556,3,7,34,-7,4,6,1,-3
1501874383345556,-2,-14,-38,3,2,-1,3,12
1501874383345556,-1,8,1,4,-8,-3,-3,10
1501874383346514,-2,-5,-14,-8,-3,1,-1,-19
1501874383346514,0,9,12,-6,8,-1,-2,-1
1501874383369526,-1,-15,17,-1,-6,2,-1,3
1501874383369526,1,16,-9,-2,8,-3,-1,1
1501874383369526,-1,18,4,-5,-19,-1,-2,0
1501874383369526,7,1,-2,15,13,2,4,6
1501874383382560,-5,-24,-2,-15,-10,1,-1,-3
1501874383382560,-2,-10,-41,-13,2,-3,-4,-9
1501874383390562,0,-6,13,1,-8,-3,0,11
1501874383390562,2,18,-19,4,22,0,-2,-6
1501874383405559,0,-1,13,4,-6,-3,-1,10
1501874383405559,2,13,46,16,0,-2,0,-2
1501874383406517,-1,6,9,-10,-1,-1,0,-2
1501874383406517,-3,-21,-10,-9,-16,-5,-4,-7
1501874383428562,0,-4,-7,3,12,-2,0,1
1501874383428562,-2,-1,-2,-6,-7,-3,0,0
1501874383429541,1,8,8,14,10,-1,0,-1
1501874383429541,2,-14,38,7,-4,3,2,12
1501874383442564,3,4,-14,-17,-9,-5,-3,-3
1501874383442564,-5,-11,13,5,-7,2,0,-6
1501874383450568,2,3,-5,-21,9,3,-1,3
1501874383450568,-4,19,-18,-7,-9,-6,-2,-12
