timestamp,emg1,emg2,emg3,emg4,emg5,emg6,emg7,emg8
1501879160997456,-40,38,21,-20,-3,-1,-2,-83
1501879160997456,45,-12,-14,48,3,0,11,50
1501879161006457,-39,-18,-10,11,12,-2,-30,-27
1501879161006457,-41,23,61,-18,-11,-9,-10,8
1501879161020460,31,-29,-12,-6,2,5,15,70
1501879161020460,-9,28,-36,17,2,8,23,-27
1501879161027457,20,-26,-38,-69,-11,-2,-1,-27
1501879161027457,-37,-33,-25,-7,-12,-12,-13,-52
1501879161043459,15,51,7,12,-1,-2,-25,31
1501879161043459,-13,-18,61,-26,-2,0,1,47
1501879161045459,-2,-6,1,20,3,5,11,20
1501879161045459,-5,14,-49,-33,7,6,-1,-9
1501879161057461,26,-10,-28,-17,-10,-6,7,-14
1501879161057461,-40,-15,59,83,10,-1,-9,-14
1501879161066463,-7,-16,-15,-50,-16,-3,11,36
1501879161066463,21,30,28,-18,-13,-11,-6,55
1501879161080462,-24,-8,18,-10,3,4,4,-31
1501879161080462,71,10,-37,55,20,0,-31,48
1501879161087460,-42,-43,32,-13,-15,-7,12,-92
1501879161087460,8,26,-70,-18,0,0,-24,-75
1501879161103471,-43,-44,20,-25,-27,-13,7,50
1501879161103471,-4,87,51,3,-1,-10,8,-69
1501879161105463,26,-92,-60,110,15,5,14,69
1501879161105463,-48,-55,-1,-118,-33,-14,-12,-91
1501879161125463,19,-92,-34,69,11,-5,-36,32
1501879161125463,-21,25,-66,-6,7,10,-17,6
1501879161127463,-39,57,61,17,2,-2,70,1
1501879161127463,8,-82,-60,-29,-10,-10,-43,13
1501879161140464,-5,17,-49,-104,-14,2,11,-103
1501879161140464,83,36,95,9,2,5,-1,88
1501879161148465,4,31,-3,64,29,7,-26,-54
1501879161148465,62,65,24,113,2,8,15,127
1501879161163475,-88,-46,-109,-26,-18,-16,10,-128
1501879161163475,15,-8,-26,-38,-5,-1,2,9
1501879161165466,-2,73,15,-7,1,-7,-23,-96
1501879161165466,4,-48,37,83,20,15,18,19
1501879161185470,0,-93,21,-26,25,2,-7,127
1501879161185470,14,-11,-19,-81,-19,-13,-37,-19
1501879161187480,-19,17,-13,104,31,14,40,-14
1501879161187480,-23,19,1,-93,-46,-4,30,-72
1501879161199469,33,28,24,44,25,4,24,24
1501879161199469,-57,-18,-26,19,-4,-3,-35,-38
1501879161208468,15,67,19,16,-12,0,-12,40
1501879161208468,-14,-50,-1,-97,-4,-5,-2,-74
1501879161224483,26,42,42,64,35,7,-2,78
1501879161224483,24,24,-51,-40,-19,-1,1,60
1501879161225470,-29,-27,-54,-42,4,6,-26,-15
1501879161225470,29,12,84,89,17,5,14,63
1501879161247482,8,44,-34,-26,-22,-12,-1,70
1501879161247482,-18,42,-2,-29,-17,-2,12,-12
1501879161248471,24,-60,-1,9,10,2,-12,57
1501879161248471,-22,44,56,-19,50,18,10,-48
1501879161260472,-9,47,-34,-60,-17,-12,-28,0
1501879161260472,20,24,-49,-58,-11,1,11,48
1501879161267473,40,-42,90,31,-25,-13,35,10
1501879161267473,-50,-22,-6,52,29,4,-4,-23
1501879161283473,24,15,5,121,5,3,-3,-17
1501879161283473,-36,-47,23,78,7,10,13,-11
1501879161285473,19,63,-19,-86,-7,-3,-14,3
1501879161285473,3,-6,-53,103,-21,-11,-23,-40
1501879161313476,-3,7,63,-67,10,-1,13,-6
1501879161313476,5,30,27,64,6,7,9,52
1501879161315474,15,98,8,54,-3,-4,-11,-11
1501879161315474,-11,-65,21,-28,-46,-7,-8,13
1501879161320476,40,39,-83,-16,36,14,9,42
1501879161320476,-32,-2,71,89,6,-7,-2,-34
1501879161327475,-1,-97,2,-97,21,8,-3,-21
1501879161327475,-1,19,-73,13,-19,-10,9,42
1501879161343477,30,27,-8,-49,-40,-13,-26,-38
1501879161343477,7,-69,7,52,18,-1,5,28
1501879161345476,-13,6,-16,-123,-38,-7,-13,60
1501879161345476,-6,36,48,9,42,6,9,60
1501879161365477,-11,-17,103,127,0,15,25,-108
1501879161365477,-21,6,-79,-23,-1,4,9,-52
1501879161367477,33,-39,36,61,-32,-12,-13,53
1501879161367477,3,111,-31,-58,4,-4,19,-24
1501879161380479,-16,-37,37,-70,-22,-7,-38,-51
1501879161380479,-24,-45,7,3,12,3,0,-32
1501879161387478,-1,45,24,52,21,16,17,-36
1501879161387478,-4,22,65,34,-19,-8,-18,-47
1501879161418480,-10,-5,-35,50,2,8,6,32
1501879161418480,2,-37,2,71,-13,-12,21,39
1501879161420480,2,-17,-41,-40,-5,-5,-20,12
1501879161420480,32,63,49,25,6,-1,20,59
1501879161425481,-15,-41,-53,33,-3,-5,-24,-23
1501879161425481,-6,-7,20,-72,-4,4,12,-64
1501879161427481,-11,32,-8,19,32,1,11,17
1501879161427481,1,-25,18,1,-38,-4,-17,3
1501879161440485,14,56,41,56,34,11,9,-42
1501879161440485,3,-98,-25,10,-13,-6,-7,-9
1501879161447484,4,45,-27,-15,-7,-5,15,25
1501879161447484,2,-70,5,17,-12,-1,-21,-49
1501879161463484,-8,-13,-70,-45,15,11,0,-22
1501879161463484,-1,62,-7,-22,-12,-10,-8,-82
1501879161465483,8,-9,54,47,2,-8,2,-16
1501879161465483,-7,-7,7,-2,23,5,2,15
1501879161485484,-28,-40,-16,-5,-45,-13,-1,55
1501879161485484,-12,36,35,-28,15,2,-10,-37
1501879161487486,32,3,-61,-9,-18,-3,4,42
1501879161487486,-3,12,-27,26,14,3,-6,-26
1501879161499485,2,-9,5,-44,-4,-3,5,29
1501879161499485,-1,-3,30,-5,-24,-11,3,82
1501879161508486,-9,5,62,24,27,13,-7,-38
1501879161508486,-5,-23,-68,-55,3,-6,-17,11
1501879161523487,5,8,-12,12,-4,-2,16,-2
1501879161523487,6,93,64,-6,-5,3,7,17
1501879161525496,-23,-63,-50,-88,-25,-8,-33,-5
1501879161525496,23,81,70,2,24,6,14,61
1501879161545488,-17,-26,-40,-19,0,-4,1,-19
1501879161545488,14,12,49,40,-9,-4,1,-38
1501879161547489,-28,-11,-39,8,19,5,-4,58
1501879161547489,3,-13,-36,13,9,7,-20,-37
1501879161560491,8,42,32,-36,-18,-8,-3,35
1501879161560491,5,-16,2,50,13,5,15,22
1501879161567489,-3,2,12,-53,-12,-8,-1,-19
1501879161567489,-16,-55,-32,1,34,-3,-5,39
1501879161583490,10,23,76,67,12,10,-6,-45
1501879161583490,-8,6,6,-13,-17,0,-4,-20
1501879161585491,-8,-78,-22,-60,0,-7,-2,8
1501879161585491,-13,10,2,9,-9,-4,9,-22
1501879161605491,3,24,28,-19,12,1,-28,28
1501879161605491,3,22,-92,-113,-15,-3,22,29
1501879161607492,-11,-10,76,76,6,4,11,-87
1501879161607492,-1,-18,-103,-99,-27,-8,-6,32
1501879161619492,15,4,23,8,-9,-3,11,59
1501879161619492,-21,-52,7,1,15,-4,-39,-43
1501879161628493,5,26,16,1,-17,-7,-10,84
1501879161628493,22,15,11,-6,11,6,27,29
1501879161643498,-13,-16,-5,34,5,-2,6,-2
1501879161643498,-1,-44,-33,-12,-7,-1,-3,-31
1501879161645494,10,58,-46,-29,15,12,2,-22
1501879161645494,3,-36,2,-23,-4,-4,-12,38
1501879161665495,-1,0,-48,-9,-19,0,1,19
1501879161665495,-15,-8,85,49,-4,-5,3,4
1501879161667496,-3,28,-8,-3,17,0,-7,-11
1501879161667496,11,-15,-30,37,-26,-3,12,26
1501879161679496,10,14,14,-15,16,3,1,-21
1501879161679496,-15,-13,-37,-51,3,3,-11,-21
1501879161688497,8,54,4,81,-10,-7,1,-55
1501879161688497,1,-14,34,42,-10,-2,-2,9
1501879161703498,4,-14,-33,-91,-8,-3,5,57
1501879161703498,27,-13,-6,37,10,0,-1,-40
1501879161704497,-9,-10,-25,-24,-5,0,-1,11
1501879161704497,-14,13,35,47,-4,3,9,-33
1501879161725500,-24,-24,-44,-18,-4,-4,-15,-53
1501879161725500,3,40,71,-35,18,2,-3,-2
1501879161727498,2,-44,-60,-34,-11,4,12,6
1501879161727498,-16,-6,-11,32,-8,-11,-16,-33
1501879161739500,19,13,-3,23,-6,0,0,11
1501879161739500,-4,-17,11,-54,12,2,0,37
1501879161748500,11,15,41,68,-11,-7,5,-20
1501879161748500,-11,-48,6,-46,29,3,1,20
1501879161763517,-4,57,-28,16,-24,9,1,-19
1501879161763517,8,-6,-96,26,0,-10,-1,16
1501879161765501,1,-15,-43,29,8,-1,-1,61
1501879161765501,-11,32,-2,-23,-12,-1,-10,-44
1501879161785503,-21,-25,97,64,10,-2,10,-5
1501879161785503,11,31,-20,-21,-13,-2,5,12
1501879161787502,6,-23,23,-36,-12,-4,-16,77
1501879161787502,-3,-5,-49,29,-1,0,14,-42
1501879161799506,-1,8,-23,-49,-12,-9,-11,-54
1501879161799506,-9,-25,55,55,15,4,-6,22
1501879161808504,3,7,24,-73,-11,-2,-8,17
1501879161808504,12,-35,32,11,11,3,-8,3
1501879161822507,-9,-6,-39,31,-26,-5,36,11
1501879161822507,19,0,-32,-21,16,3,-25,-28
1501879161831504,-10,5,7,0,1,6,31,-89
1501879161831504,-1,-5,27,-10,10,-2,-2,71
1501879161845505,12,27,29,44,-21,-3,-4,-1
1501879161845505,-5,10,13,8,16,0,7,-52
1501879161847505,-2,4,-2,11,10,4,-9,32
1501879161847505,0,5,-29,-25,-28,-5,-5,-8
1501879161859509,9,-55,38,-32,15,-5,8,34
1501879161859509,-9,8,3,29,15,12,-2,-21
1501879161868507,-2,8,33,19,-18,-9,1,36
1501879161868507,3,38,-15,7,-11,2,1,-52
1501879161883508,-8,-33,-14,-9,20,-7,-16,-2
1501879161883508,-9,3,36,-35,3,0,-1,-10
1501879161885508,19,-16,-47,-38,-9,3,2,71
1501879161885508,8,-24,32,12,-2,3,6,-11
1501879161905512,-8,12,4,-44,6,1,-11,-13
1501879161905512,-8,21,-15,70,-16,-9,-6,33
1501879161907510,18,-30,-39,-34,-8,-4,4,58
1501879161907510,-1,48,33,-28,-25,-5,3,-12
1501879161919510,-5,0,-43,2,45,8,-7,-35
1501879161919510,1,-38,51,33,1,-3,3,38
1501879161929511,-13,27,56,-40,-18,-7,-27,-37
1501879161929511,-5,-3,13,6,12,0,2,-7
1501879161942520,8,11,-14,18,-7,-5,9,43
1501879161942520,-24,-15,-1,-30,-2,-3,-6,-24
1501879161951512,-6,18,-9,45,9,9,5,-39
1501879161951512,-2,-33,1,-55,8,-14,-10,15
1501879161966513,-3,-14,-15,29,-22,-3,-8,-1
1501879161966513,9,12,-40,-23,15,9,-9,69
1501879161967514,2,-27,57,5,7,-4,31,-34
1501879161967514,-9,23,30,66,-7,9,-16,-40
1501879161979517,5,20,-65,-20,8,0,4,-20
1501879161979517,1,-32,-12,-35,-10,-2,6,11
1501879161988515,-14,1,-43,30,6,-6,-9,-51
1501879161988515,9,53,1,-9,4,8,3,51
1501879162003526,-13,-46,11,0,1,-8,0,-4
1501879162003526,-11,14,5,33,-26,-3,4,-47
1501879162005515,9,9,3,15,5,-1,-12,-22
1501879162005515,-6,-60,15,7,11,3,9,-3
1501879162025519,-6,7,0,-17,-3,-1,-37,-45
1501879162025519,11,17,-39,-15,-3,3,52,54
1501879162027527,0,3,12,-21,-10,-7,-36,-37
1501879162027527,-4,-6,-9,68,4,-6,7,20
1501879162048519,7,10,-43,-78,-25,-5,-12,-16
1501879162048519,-12,16,54,7,-6,-4,-11,-19
1501879162049520,3,12,-29,-10,12,3,21,18
1501879162049520,-3,-11,-44,50,2,-7,-39,1
1501879162063519,-14,-18,90,32,-6,-2,20,-57
1501879162063519,2,5,-20,-65,-29,-8,-19,11
1501879162064519,1,-7,1,1,40,7,7,-22
1501879162064519,1,13,-47,-42,-21,-5,-7,18
1501879162085519,11,56,54,40,31,4,-4,20
1501879162085519,0,-35,-27,-2,-32,1,12,-9
1501879162087520,-7,10,24,9,-7,-2,8,46
1501879162087520,-11,-42,-35,-46,9,-2,-6,-49
1501879162115521,1,19,33,-26,7,8,-2,12
1501879162115521,7,-16,-55,19,-4,-9,-9,-4
1501879162117521,-13,-13,16,31,-22,-3,11,13
1501879162117521,5,12,-44,-38,22,4,-2,12
1501879162123523,-4,-4,0,-37,-6,-1,4,14
1501879162123523,2,20,14,4,15,4,-24,-10
1501879162124523,-2,0,53,76,-20,-3,4,9
1501879162124523,-13,1,15,13,0,0,25,-12
1501879162145524,12,7,-59,-49,1,0,-8,-2
1501879162145524,5,-31,-36,-17,6,-1,-18,-5
1501879162147524,1,-33,7,15,-9,-8,-9,0
1501879162147524,3,23,49,-4,-6,8,23,2
1501879162168525,0,28,-17,7,-10,1,10,39
1501879162168525,-5,-27,-3,-25,12,-6,-1,-6
1501879162169525,-6,-2,-47,-27,1,2,-20,-18
1501879162169525,6,5,33,95,19,1,0,-13
1501879162183526,-14,-6,-2,-67,-35,-6,3,-1
1501879162183526,-3,9,-4,14,-8,1,9,8
1501879162184525,-1,1,0,-14,7,-4,-9,-2
1501879162184525,-10,17,-21,-5,6,8,-8,-54
1501879162205527,19,-4,62,72,-2,-5,-2,45
1501879162205527,-10,-19,-55,-38,-5,-5,6,-7
1501879162207527,8,3,-3,-24,-7,0,6,19
1501879162207527,1,-1,-22,-61,-2,3,-3,34
1501879162228530,-12,-4,5,1,7,-1,-10,-24
1501879162228530,-5,-19,-2,58,0,-3,-9,-29
1501879162229529,-5,11,-4,-46,-8,3,35,-25
1501879162229529,12,9,-27,-1,-13,-8,-3,60
1501879162242529,1,-2,-6,-13,12,2,-12,-38
1501879162242529,-5,12,52,26,7,-1,12,-9
1501879162249530,16,2,-57,-2,-32,-2,-8,32
1501879162249530,-40,-10,-6,1,22,-4,-2,-91
1501879162265530,-3,-4,-60,61,-8,-7,-1,23
1501879162265530,-4,-6,4,-28,17,5,1,9
1501879162271532,15,53,13,14,17,10,-7,-6
1501879162271532,21,-30,-31,-88,-20,-12,-7,79
1501879162288534,-17,-6,31,40,-11,1,13,-26
1501879162288534,20,22,-18,24,23,0,2,-17
1501879162289531,-59,-18,1,-19,-5,-5,-3,-60
1501879162289531,10,5,1,12,28,6,-8,62
1501879162302532,-16,-33,-5,19,-37,-15,-19,-33
1501879162302532,13,-15,0,-14,14,5,15,125
1501879162309533,14,12,45,24,10,-5,-8,-49
1501879162309533,7,1,61,-2,-32,2,14,2
1501879162325535,-20,13,-66,-1,36,9,5,-42
1501879162325535,20,17,56,65,-17,4,25,72
1501879162328534,-56,4,-16,-27,5,-9,-34,-24
1501879162328534,-8,-3,-3,-8,-15,-6,1,-37
1501879162348535,11,-7,-21,66,19,4,15,40
1501879162348535,-9,51,-18,-71,-20,-2,-9,2
1501879162350536,11,-21,-27,-18,3,6,1,6
1501879162350536,-1,-14,-18,2,-19,-9,-17,-51
1501879162362535,11,50,-25,-24,26,7,25,41
1501879162362535,-6,-59,22,42,1,0,-3,-4
1501879162369539,-7,-9,18,18,-7,-7,-7,-45
1501879162369539,11,3,-7,1,-5,-2,2,57
1501879162385538,6,21,-41,-78,-4,-4,-16,-51
1501879162385538,-18,-21,-11,12,-30,-3,4,-22
1501879162387538,34,-17,46,-21,21,-4,1,39
1501879162387538,-15,16,21,50,2,8,-1,-49
1501879162408539,8,-7,29,-15,-8,-4,-14,2
1501879162408539,3,7,30,-30,-18,0,9,-31
1501879162410540,-24,-19,-37,13,11,2,-4,-40
1501879162410540,3,16,15,3,-2,-8,-1,4
1501879162422540,3,-15,22,10,21,1,0,34
1501879162422540,-13,-30,0,-30,-22,-5,-12,-40
1501879162429542,16,-2,-17,26,1,1,-6,37
1501879162429542,-2,24,-8,-21,-6,-3,11,12
1501879162445541,2,-72,7,9,-17,-1,-3,-47
1501879162445541,-10,-2,-9,-6,14,-2,2,2
1501879162447541,6,33,-18,-17,0,-5,-12,-18
1501879162447541,-6,-42,42,-26,3,5,3,1
1501879162468541,2,-13,72,26,-17,-7,-9,10
1501879162468541,9,26,-18,18,14,-3,-10,-9
1501879162470543,4,4,2,11,-5,5,29,34
1501879162470543,-4,-17,-54,-15,8,3,1,31
1501879162482543,22,8,15,6,-11,-2,5,10
1501879162482543,-23,21,-11,22,8,1,-7,-81
1501879162489546,7,-7,16,11,13,3,-1,40
1501879162489546,5,22,29,-56,-9,-2,1,-26
1501879162505544,-19,-21,-13,-21,-3,4,-1,21
1501879162505544,14,42,9,36,3,-6,12,-21
1501879162507544,-6,3,-33,4,2,12,5,-22
1501879162507544,12,-82,-2,37,10,-2,-6,-3
1501879162529546,-13,-6,-14,-15,-1,8,9,-9
1501879162529546,23,10,32,15,-9,-4,-7,80
1501879162530546,3,1,4,-5,-15,-7,0,5
1501879162530546,-1,33,-1,33,23,-3,2,-17
1501879162542546,7,13,3,-59,-23,4,2,32
1501879162542546,-16,-39,-10,-23,16,4,3,11
1501879162551547,3,2,18,12,1,-5,-9,-56
1501879162551547,5,21,-36,-2,-25,-8,-11,-18
1501879162565548,-9,34,39,43,5,-3,4,36
1501879162565548,-11,20,-14,1,-12,-2,-12,7
1501879162567549,11,-10,22,-28,17,3,4,5
1501879162567549,-13,-16,-25,0,-1,-1,4,-31
1501879162588551,-4,3,-3,6,9,-5,-18,-45
1501879162588551,-3,-4,-43,-35,-9,1,14,1
1501879162589549,-1,27,19,15,-34,-10,-19,45
1501879162589549,8,-1,25,57,37,3,4,22
1501879162602552,-5,-21,-40,-11,4,3,-4,1
1501879162602552,-4,0,-18,-22,-9,1,-4,32
1501879162610551,0,-19,-25,-8,-10,-5,-6,-30
1501879162610551,-2,21,43,-23,-21,3,11,4
1501879162625553,-1,-16,-43,30,11,-4,-10,-8
1501879162625553,9,-14,34,22,-2,-4,7,10
1501879162627552,-8,-7,7,-18,-1,-6,2,-2
1501879162627552,3,3,3,4,0,4,-16,5
1501879162648553,6,17,-13,3,34,9,17,28
1501879162648553,-5,5,11,-24,3,-6,-26,-61
1501879162649553,-3,-23,-25,-24,-14,1,8,18
1501879162649553,-2,21,36,27,-16,-3,1,23
1501879162661556,3,1,9,-39,0,-3,9,-21
1501879162661556,-9,-9,4,2,-15,-1,-11,-44
1501879162670554,7,-10,17,15,26,9,5,11
1501879162670554,-13,-3,-34,-6,-11,-10,-4,-26
1501879162687565,3,19,39,14,-9,-1,-12,5
1501879162687565,2,12,-21,6,3,7,44,51
1501879162688555,-1,-20,-2,23,4,-3,-23,-44
1501879162688555,-2,-5,-102,-82,1,4,-1,3
1501879162708555,-6,-16,29,46,-13,-7,2,13
1501879162708555,2,16,27,-21,-2,-2,-12,11
1501879162709556,10,33,16,11,-4,-1,12,12
1501879162709556,-6,18,-28,2,-4,-3,-9,22
1501879162721558,-4,-44,-2,0,14,-1,-4,-31
1501879162721558,-5,-15,-16,0,8,4,-9,-5
1501879162731559,-4,-24,-38,-20,-12,4,7,26
1501879162731559,-2,10,5,-9,-4,-3,-2,-16
1501879162745560,0,7,-10,-39,-19,-2,5,15
1501879162745560,0,8,-6,35,-5,-7,-8,1
1501879162747558,-6,15,-8,-39,32,9,-9,-17
1501879162747558,-5,-37,-5,55,-9,0,1,6
1501879162768560,13,3,-7,7,1,0,8,27
1501879162768560,8,3,-32,-7,-6,-1,-2,-23
1501879162770561,-10,8,8,-9,-18,-12,-9,27
1501879162770561,4,-16,-10,15,13,-1,8,7
1501879162781561,-25,-31,-3,-33,-9,-3,-24,-55
1501879162781561,5,13,-3,0,4,2,2,7
1501879162790582,-2,6,-5,3,-3,-2,-1,-16
1501879162790582,-3,-30,13,-12,-4,-1,-1,-38
1501879162805562,-11,6,14,15,-5,-4,5,1
1501879162805562,5,-1,-11,-18,11,-1,-12,-32
1501879162807561,4,6,6,14,-6,3,10,74
1501879162807561,2,-17,67,-36,2,1,18,-9
1501879162828564,-3,22,-84,16,8,-2,-4,-20
1501879162828564,-15,-41,18,12,-21,-11,-24,-57
1501879162830563,0,-35,-19,21,9,2,10,5
1501879162830563,-4,21,7,-7,-9,-4,-12,2
1501879162842577,1,17,-8,-71,0,1,6,-11
1501879162842577,7,-20,-55,4,7,-4,2,41
1501879162850565,-6,-12,48,-28,-9,-5,-11,-9
1501879162850565,5,10,-31,25,1,5,4,24
1501879162866575,-4,10,-14,19,-9,3,6,-37
1501879162866575,0,13,46,-11,12,2,-2,-5
1501879162867566,5,-5,-1,4,5,-4,-4,-4
1501879162867566,-4,-1,16,6,5,2,17,0
1501879162888569,17,2,22,8,-5,2,5,46
1501879162888569,-1,1,23,-8,-2,1,2,-12
1501879162890576,-12,7,-61,18,-2,-1,-6,-42
1501879162890576,4,13,1,-28,-6,-2,10,45
1501879162901567,-4,-11,6,5,-8,-7,-19,-22
1501879162901567,3,7,42,36,18,6,7,28
1501879162910569,-4,18,-14,-33,-10,-4,7,-15
1501879162910569,-4,-22,-63,-4,-6,-1,-12,-17
1501879162925570,3,6,50,12,-1,-1,5,17
1501879162925570,0,-4,0,15,15,-2,-12,15
1501879162927569,0,14,8,-5,-4,5,14,-44
1501879162927569,10,10,16,14,3,1,-12,49
1501879162948571,4,10,14,-18,-12,-2,20,42
1501879162948571,-6,7,-26,-14,1,-4,-2,-40
1501879162949571,-4,-21,8,29,-4,-1,-2,25
1501879162949571,-3,-7,-4,-43,-14,-3,0,-22
1501879162961572,3,5,18,74,9,1,0,3
1501879162961572,1,20,28,-39,1,1,3,14
1501879162970573,10,10,-12,-64,0,3,-5,19
1501879162970573,-6,16,18,11,1,0,5,-30
1501879162985574,1,21,18,-22,-8,-2,-6,-5
1501879162985574,-15,-27,0,25,-17,-9,-6,-9
1501879162987586,3,0,-23,11,-5,0,-8,16
1501879162987586,-1,-7,47,-4,13,3,-1,-8
1501879163007575,-4,-2,-4,7,1,2,5,15
1501879163007575,2,4,-14,1,-5,2,8,5
1501879163015582,-3,-5,17,-19,-3,-7,-19,-53
1501879163015582,-3,4,13,29,-6,1,12,7
1501879163030575,7,-10,-23,-10,-3,-4,-9,-9
1501879163030575,-9,-7,-29,-5,4,2,-11,-29
1501879163032577,-3,0,19,39,-10,-1,4,-6
1501879163032577,-1,-13,-46,-28,-17,-6,-6,5
1501879163045575,1,5,15,-8,20,-2,-3,-16
1501879163045575,3,-8,6,28,-11,-1,5,2
1501879163047576,1,22,-33,-4,13,2,17,37
1501879163047576,-7,-7,21,-1,3,3,-13,-13
1501879163068577,-10,-25,-28,7,-6,-1,3,-7
1501879163068577,2,1,-36,1,0,-2,1,25
1501879163069578,1,16,21,16,-9,-7,-4,8
1501879163069578,0,-6,-1,5,1,-3,-6,-12
1501879163090596,2,-6,33,8,13,4,3,19
1501879163090596,-3,-1,2,-36,-12,-3,-5,-34
1501879163092579,7,7,-7,7,1,2,9,55
1501879163092579,-9,-9,11,-23,4,-6,-17,-35
1501879163106582,2,0,6,27,-6,1,3,27
1501879163106582,3,23,-13,-2,-2,0,3,-13
1501879163108581,-14,-65,-34,-2,-6,-6,-9,-11
1501879163108581,-3,-1,-46,1,-1,-4,-10,-3
1501879163128582,3,25,-9,-10,11,3,-4,-7
1501879163128582,2,2,9,23,-6,1,10,32
1501879163129581,3,-8,-8,-17,-2,-5,-5,-2
1501879163129581,-1,7,10,27,4,5,-2,-17
1501879163150582,-7,-24,-13,-13,-3,-2,2,2
1501879163150582,-2,9,8,1,-1,3,-1,11
1501879163152582,1,7,30,5,-1,-1,7,14
1501879163152582,8,2,-18,11,1,-2,7,2
1501879163165581,-2,-11,6,-9,9,-2,-11,-34
1501879163165581,-4,-32,-2,-7,-4,2,-8,-11
1501879163171584,-5,8,30,-2,1,5,2,-2
1501879163171584,7,7,32,-8,-2,-4,4,19
1501879163188587,2,8,-41,11,-10,-1,0,-14
1501879163188587,-2,1,17,-42,10,-5,4,9
1501879163189586,0,-8,-20,23,-3,-1,-3,-2
1501879163189586,-1,1,26,13,0,-4,7,32
1501879163211586,-6,-6,-4,-67,-2,0,-16,-13
1501879163211586,7,0,17,8,0,4,6,-22
1501879163212586,-7,1,-18,7,-3,-3,-11,8
1501879163212586,9,38,4,19,9,2,5,29
1501879163225588,-8,-19,-16,-54,-14,0,0,-15
1501879163225588,1,13,22,35,7,-3,-3,12
1501879163231587,-9,-45,-20,-11,-19,-7,-6,-23
1501879163231587,1,18,-12,21,8,2,3,17
1501879163248588,-8,-30,-16,15,2,1,1,-24
1501879163248588,3,-20,9,-15,-17,-2,1,24
1501879163249590,8,21,24,16,12,-4,2,1
1501879163249590,0,6,4,-2,12,7,-2,-20
1501879163270590,0,-12,16,18,4,-8,-4,28
1501879163270590,-18,19,-20,-14,-5,3,-10,-57
1501879163272589,1,-14,3,-17,-3,1,4,-10
1501879163272589,-3,-1,3,-20,-12,-5,-1,-2
1501879163285590,2,29,14,9,-4,-4,2,-1
1501879163285590,1,-21,-24,1,-3,-4,0,10
1501879163292612,2,9,39,4,5,3,4,4
1501879163292612,1,-20,-3,-45,-2,1,-6,-18
1501879163308592,-11,7,17,45,-1,1,-3,-14
1501879163308592,4,-4,-17,-14,-5,-5,0,32
1501879163309591,3,4,4,2,0,0,-3,-14
1501879163309591,1,-10,7,-5,-15,-5,1,29
1501879163330592,-1,9,8,11,18,4,8,4
1501879163330592,-2,4,0,-36,0,-4,-6,-2
1501879163332592,-1,10,20,16,2,4,3,-6
1501879163332592,0,-25,-39,-16,-7,-2,0,2
1501879163345595,2,22,10,10,-11,-2,4,49
1501879163345595,-1,-24,45,45,7,0,-2,-59
1501879163351595,-4,2,-37,2,-3,-4,-12,13
1501879163351595,-1,23,11,-30,2,2,-4,0
1501879163368595,-4,-22,-16,-10,-6,-3,-3,-16
1501879163368595,5,14,-12,48,15,7,12,9
1501879163370609,-6,0,7,-46,-9,-5,-1,-4
1501879163370609,-1,-17,-66,3,-15,-8,-2,4
1501879163390597,3,-4,6,-20,-1,-1,3,44
1501879163390597,-7,20,-5,32,11,5,-4,-19
1501879163392596,-4,-23,15,19,7,-4,-2,-6
1501879163392596,3,-1,0,-5,-1,1,2,-4
1501879163405597,-1,-19,2,0,-6,2,5,-15
1501879163405597,-2,-10,-41,-20,-4,-2,-4,11
1501879163411598,9,25,14,-13,-1,1,-2,15
1501879163411598,-5,22,15,35,6,1,3,-24
1501879163428599,-2,-2,-26,-17,-2,-1,-4,-25
1501879163428599,11,-11,14,24,-8,-3,3,35
1501879163429600,-2,5,-4,1,4,2,2,0
1501879163429600,1,28,26,10,5,-1,-4,-13
1501879163450600,-2,6,14,-12,-2,-2,0,-6
1501879163450600,-4,-5,-31,-17,-1,1,-1,2
1501879163452600,5,4,22,1,-4,-1,0,26
1501879163452600,7,-3,21,16,6,0,8,30
1501879163465605,-16,-30,-13,11,-5,-3,-17,-49
1501879163465605,8,12,-9,-19,-3,-2,-7,10
1501879163471600,-9,-14,-31,3,5,-1,3,-24
1501879163471600,-2,10,10,-18,-6,-2,-10,-8
1501879163488603,7,-8,-14,13,-2,-2,6,21
1501879163488603,2,2,26,6,-1,-6,-1,15
1501879163489602,-6,-15,-9,-29,4,5,0,-20
1501879163489602,-9,-24,-13,15,0,-1,-4,-44
1501879163510604,2,1,-7,-8,3,1,1,-1
1501879163510604,-10,-30,14,-4,-3,-2,1,-27
1501879163512604,0,7,-17,-3,-3,-5,3,58
1501879163512604,-1,6,35,-11,0,1,-5,-3
1501879163524605,-2,0,10,1,-8,0,-2,-4
1501879163524605,-3,3,-29,-15,7,-1,8,17
1501879163533605,1,23,-41,-10,-3,-1,-2,-12
1501879163533605,-9,-57,-5,8,-14,-7,-6,-24
1501879163548605,11,23,23,2,11,3,3,13
1501879163548605,-1,11,-31,-2,-14,-3,-2,26
1501879163549605,-15,-11,34,17,0,-1,-9,-66
1501879163549605,3,13,-47,-27,-5,-4,-7,11
1501879163570606,-1,-17,4,-4,-5,-6,-2,-7
1501879163570606,1,3,13,-35,6,3,5,14
1501879163572607,5,3,-3,44,-2,-1,0,-26
1501879163572607,-11,-1,7,-22,3,3,-3,6
1501879163584609,5,7,13,5,-2,-2,2,16
1501879163584609,-5,8,-27,-16,-5,2,-3,-21
1501879163593608,-2,-9,30,2,3,-3,-3,0
1501879163593608,2,-7,-11,7,-3,-1,1,3
1501879163608610,1,6,-13,-3,-1,-4,0,2
1501879163608610,2,22,18,-2,-24,-4,-2,3
1501879163609609,-1,-20,-32,-3,15,3,0,-32
1501879163609609,-5,-17,16,16,-7,-5,-1,9
1501879163630612,2,-8,2,5,-4,1,10,23
1501879163630612,-4,-4,-52,-16,-4,-3,-9,-12
1501879163632610,-2,-9,7,-15,-22,-6,-10,-6
1501879163632610,-2,29,27,-4,25,4,-8,-16
1501879163644612,0,9,-33,-24,1,8,-1,-18
1501879163644612,3,-7,20,15,0,-4,1,12
1501879163653611,0,10,5,-9,-6,-1,7,-3
1501879163653611,7,-3,-2,0,4,-2,-2,15
1501879163668611,-3,-23,-16,13,-5,-4,0,21
1501879163668611,-5,-4,18,-7,6,2,0,-40
1501879163669612,-1,0,-19,-12,2,-2,-8,5
1501879163669612,2,5,-5,20,-7,-3,1,-4
1501879163690615,-5,15,14,1,2,-1,-3,-6
1501879163690615,1,-11,4,11,3,0,-3,-4
1501879163692614,0,-3,-7,-25,1,0,7,36
1501879163692614,-9,-7,-16,-6,-2,-3,-2,-7
1501879163704615,7,14,8,-3,-2,-1,-6,0
1501879163704615,-3,-2,-6,4,7,1,-1,-4
1501879163713619,11,5,11,12,-2,2,8,23
1501879163713619,-6,-15,-5,-2,-1,2,0,-5
1501879163728621,-4,-5,15,-27,-4,-5,2,-13
1501879163728621,2,-4,2,22,4,-2,-1,16
1501879163729616,0,-7,16,-7,-9,1,3,9
1501879163729616,5,1,-20,10,8,1,3,8
1501879163750618,-7,3,-10,-9,-4,1,-1,-17
1501879163750618,0,-8,8,-6,-5,-7,-8,3
1501879163752617,0,-22,-28,-5,1,-1,2,-4
1501879163752617,3,16,22,3,-3,-3,-7,-19
1501879163764622,-3,12,6,-17,4,3,1,20
1501879163764622,-2,-33,23,14,-1,-1,5,16
1501879163773618,-2,23,-9,13,2,-4,-3,-15
1501879163773618,1,6,-28,-25,-11,-4,8,37
1501879163788625,-11,-22,-55,15,0,-5,-15,-69
1501879163788625,-2,1,-2,-11,1,2,-7,2
1501879163790627,0,2,29,17,-3,1,0,-6
1501879163790627,-2,0,-13,-20,-2,-2,1,-12
1501879163810622,5,8,4,3,-6,-1,1,18
1501879163810622,-1,18,6,-8,-2,1,-1,-7
1501879163812620,1,-15,0,14,4,-1,-2,11
1501879163812620,2,28,18,-3,-10,2,6,22
1501879163824622,-5,-4,-14,-7,14,3,4,-20
1501879163824622,-2,7,-7,20,-1,-3,-7,-26
1501879163833622,-2,0,11,9,-1,-3,-5,5
1501879163833622,2,8,5,-7,4,4,0,-1
1501879163848624,4,-6,-19,19,-11,-7,0,28
1501879163848624,-1,24,24,-5,14,5,7,-22
1501879163849625,-7,-19,-12,0,-1,-2,-7,0
1501879163849625,0,-2,46,7,2,2,2,-5
1501879163870624,7,9,24,18,-3,-6,-1,7
1501879163870624,4,7,2,-6,-2,1,10,14
1501879163872637,-2,13,4,-6,-6,-3,-5,1
1501879163872637,-2,-24,0,5,8,0,-5,-26
1501879163884626,0,5,7,-6,12,2,0,13
1501879163884626,-3,-10,-1,17,-2,1,-3,-5
1501879163893626,3,7,0,-13,0,-1,4,12
1501879163893626,-7,9,-26,5,-9,-3,-4,-4
1501879163908627,8,2,-4,8,-9,-5,4,13
1501879163908627,-9,-20,25,-19,2,-5,-17,-26
1501879163909629,2,-6,-4,-7,7,1,3,0
1501879163909629,-4,-2,-28,8,-3,1,3,2
1501879163930628,-3,-7,5,5,-8,-1,-5,-7
1501879163930628,4,5,-4,5,-3,-4,-4,-4
1501879163932628,0,6,3,-16,-5,2,0,2
1501879163932628,-6,-11,-54,-7,-6,-7,-4,-3
1501879163953642,5,23,10,-5,1,-1,1,11
1501879163953642,-1,-14,-12,2,0,3,0,10
1501879163954628,-6,-4,42,9,-3,-2,-4,-27
1501879163954628,2,-3,-19,3,1,3,1,-1
1501879163968632,-3,-26,-29,1,-3,-2,5,9
1501879163968632,-8,13,19,-13,-10,-6,-10,-5
1501879163970640,1,13,1,2,10,1,-2,-1
1501879163970640,-1,-16,37,17,1,3,-1,-9
1501879163990632,2,-18,10,-1,3,-4,-2,5
1501879163990632,4,0,-3,1,-1,-1,2,16
1501879163992631,0,10,2,1,8,-1,-1,-8
1501879163992631,-7,-17,-10,-15,-5,-1,-3,-12
1501879164013633,-5,-9,21,8,0,-1,-2,16
1501879164013633,5,7,-33,-6,-9,1,7,1
1501879164014633,-10,-15,3,-21,-18,-8,-11,-17
1501879164014633,-1,4,15,23,25,2,2,-22
1501879164027634,-2,3,-10,-12,-12,-1,-6,-14
1501879164027634,0,-14,-23,22,10,-1,5,11
1501879164035635,-1,10,-1,-6,-18,-2,-1,18
1501879164035635,1,3,9,-2,-1,-4,-2,-3
1501879164058636,2,-5,-4,6,14,7,6,0
1501879164058636,-7,-4,2,-12,-7,-1,-2,-10
1501879164059635,3,7,-1,6,8,1,1,11
1501879164059635,1,-31,-9,-23,-16,-5,-2,14
1501879164073637,-6,0,-27,-19,-13,0,-1,-25
1501879164073637,-2,3,10,-6,10,-1,4,4
1501879164075639,4,-12,21,-12,-2,5,1,5
1501879164075639,-1,8,-14,-1,5,-4,-3,-2
1501879164087637,6,23,3,16,2,2,6,23
1501879164087637,-8,-29,0,-6,-10,-8,-18,-18
1501879164094636,-4,-4,-43,3,0,-3,-3,-11
1501879164094636,4,2,12,-2,-5,1,1,5
1501879164110639,0,-8,26,10,-5,-1,-4,6
1501879164110639,2,14,-14,6,13,0,5,-1
1501879164112638,1,-17,-7,-10,-1,-1,1,7
1501879164112638,-4,-4,-6,8,-10,-1,-5,-5
1501879164133641,-5,-12,-8,4,7,-7,0,-7
1501879164133641,3,18,4,-26,-9,2,-1,-3
1501879164134639,1,5,-8,2,-2,-4,-4,5
1501879164134639,2,3,3,-22,7,3,4,12
1501879164147641,-13,-6,2,12,-11,-7,-13,-40
1501879164147641,4,27,-7,-2,-8,-4,0,8
1501879164154644,-2,-28,16,8,14,7,6,-21
1501879164154644,3,16,-12,0,-3,3,7,1
1501879164170642,2,-13,26,-7,4,0,-7,10
1501879164170642,-5,-4,-15,-28,-9,-3,0,2
1501879164172644,-1,13,-5,12,-8,-3,0,-12
1501879164172644,1,-8,-12,-2,4,-5,1,14
1501879164193645,-1,6,13,4,-2,1,5,11
1501879164193645,-4,-10,-11,5,4,-1,-9,-24
1501879164194646,-1,5,0,2,6,3,4,-9
1501879164194646,5,18,28,-5,-4,-4,-1,15
1501879164207645,-4,-16,2,14,3,-1,-3,14
1501879164207645,-3,-11,14,0,-8,-1,-5,-22
1501879164214646,0,10,-35,-27,-2,1,2,12
1501879164214646,-4,6,-9,1,-1,-2,-6,-3
1501879164230646,-1,11,-1,-18,-2,0,-3,-27
1501879164230646,3,-20,8,20,-6,1,7,10
1501879164233645,-3,-1,23,12,6,0,-4,12
1501879164233645,-3,-2,-17,-1,-3,1,1,2
1501879164260649,-3,7,2,-6,5,-3,-4,-6
1501879164260649,3,-7,-15,8,2,0,1,15
1501879164262648,0,-2,-3,-4,-10,-5,1,-22
1501879164262648,-3,-4,5,4,-5,-3,-6,-4
1501879164267648,3,9,-5,-10,4,3,4,9
1501879164267648,-2,12,-10,-2,2,0,-3,-14
1501879164274649,-1,-11,-11,10,-6,-3,-1,14
1501879164274649,-5,-13,9,16,4,0,4,11
1501879164290649,-3,18,4,-21,-11,-6,-8,-37
1501879164290649,-1,-37,5,-12,0,-1,-1,16
1501879164292649,-1,7,-15,-1,3,0,5,12
1501879164292649,-1,2,11,1,-7,-5,-12,-4
1501879164313653,1,-5,-5,31,7,2,1,0
1501879164313653,0,15,-10,6,-3,2,4,-1
1501879164314651,-3,0,10,-3,0,-2,-8,-16
1501879164314651,-2,-19,-11,7,-2,1,3,8
1501879164328652,2,15,4,-10,-4,-2,0,6
1501879164328652,-2,-15,18,-9,-9,-2,0,4
1501879164334653,-1,5,-19,11,15,-3,1,0
1501879164334653,-3,16,24,-15,-5,4,-2,-35
1501879164350656,-4,-12,7,2,3,0,-3,21
1501879164350656,-4,7,-5,-5,-5,0,1,-1
1501879164352652,1,-19,5,-7,-8,-4,3,11
1501879164352652,3,5,-21,2,-2,-2,-2,-13
1501879164373659,1,-1,-13,-9,2,1,5,14
1501879164373659,0,17,19,21,1,-1,-6,-22
1501879164375655,2,10,0,-8,-11,0,2,8
1501879164375655,-1,-13,-20,-6,10,-4,-6,2
1501879164387654,1,-6,-20,-2,-10,-1,4,9
1501879164387654,0,-1,9,1,11,0,1,-15
1501879164394655,6,23,17,5,-3,0,-4,12
1501879164394655,-3,-12,32,16,3,-2,-1,-12
1501879164410656,-2,-8,-20,-13,-2,-2,-4,1
1501879164410656,6,2,-23,-10,-1,1,6,24
1501879164412656,-8,-3,-1,1,-1,-1,-6,-2
1501879164412656,-2,-9,-6,3,-2,2,-1,-11
1501879164433658,-1,8,25,2,6,-3,-3,-7
1501879164433658,1,-9,-24,-3,-4,-4,-2,3
1501879164434656,-3,-3,-8,4,-1,-2,4,10
1501879164434656,0,6,-11,-10,1,0,-2,-8
1501879164446662,0,-3,2,-3,-4,-1,-2,-7
1501879164446662,0,-4,5,0,-1,1,0,9
1501879164455659,1,-5,-17,-1,0,-1,0,-8
1501879164455659,-5,-1,15,-2,1,1,1,1
1501879164470686,-6,-14,-12,-6,-4,0,-4,-3
1501879164470686,3,5,17,8,1,-1,0,10
1501879164472661,-2,-10,-16,-13,-4,-4,-3,-26
1501879164472661,-5,3,5,-4,-3,-6,-13,-22
1501879164493662,-5,2,0,2,7,-1,-3,-12
1501879164493662,-6,-17,-18,-13,-4,2,3,5
1501879164494661,6,6,23,7,-2,3,2,9
1501879164494661,-3,-7,-27,-11,1,3,4,8
1501879164506662,-1,-5,-20,5,-6,-6,-4,-13
1501879164506662,-1,27,49,7,7,-3,-3,3
1501879164515663,1,-19,8,11,-13,2,9,0
1501879164515663,-5,-14,-27,-14,15,-1,-12,-2
1501879164530664,3,8,16,0,-3,0,2,3
1501879164530664,3,1,1,-8,-2,-4,-1,8
1501879164532663,-6,17,20,5,-2,2,-5,-22
1501879164532663,3,-2,-17,5,-6,-2,6,5
1501879164553675,-11,-40,-7,-37,-5,2,1,4
1501879164553675,2,10,0,5,-1,5,5,3
1501879164554663,-5,-3,-4,-4,1,-6,-13,-30
1501879164554663,7,15,8,11,-3,-1,-1,3
1501879164566666,3,11,-13,8,4,2,0,-9
1501879164566666,-1,-8,11,-3,-1,-1,2,18
1501879164575665,-5,-9,-20,-12,2,-1,-3,0
1501879164575665,-2,-1,7,1,-7,-2,0,-10
1501879164590678,8,28,9,11,4,2,3,11
1501879164590678,-4,-24,-31,-16,-6,-2,-4,-5
1501879164592666,0,4,9,4,-9,-5,-1,11
1501879164592666,-2,-3,-11,-5,7,-1,1,8
1501879164613667,-3,-5,-8,5,-9,-2,6,-10
1501879164613667,-2,7,-25,3,-3,-5,-9,8
1501879164614667,1,-5,1,-22,0,1,-2,-17
1501879164614667,1,3,0,-7,-12,-4,-3,-3
1501879164626671,2,11,4,4,2,0,-1,5
1501879164626671,-5,-17,-9,10,0,0,-1,-20
1501879164635668,-2,-16,-9,5,12,4,10,52
1501879164635668,-7,-3,20,-6,-4,-4,-7,-38
1501879164650670,4,10,16,5,1,0,-1,-7
1501879164650670,1,9,20,3,-7,-4,-3,6
1501879164656679,1,-23,-49,-13,7,2,-5,-8
1501879164656679,-1,5,3,9,-1,0,8,20
1501879164673695,1,-13,-9,6,-4,0,-2,3
1501879164673695,-5,-3,13,-2,7,-3,-5,-15
1501879164674670,6,7,3,-12,-2,0,0,12
1501879164674670,3,-1,-15,-2,7,5,2,-2
1501879164686672,0,0,-1,-3,-4,0,8,18
1501879164686672,-5,16,-6,1,-4,-3,-8,-21
1501879164695673,4,-4,20,12,-1,-2,-4,-3
1501879164695673,-1,-4,0,-7,-11,-1,0,6
1501879164710674,1,7,31,5,9,2,-1,-7
1501879164710674,-6,-8,-32,-11,-1,1,2,-3
1501879164712673,-1,7,6,9,1,-3,0,2
1501879164712673,-1,9,26,-3,-10,-3,-2,-1
1501879164733674,2,-8,-13,1,4,-3,-3,27
1501879164733674,-3,-18,-36,0,8,2,-1,-21
1501879164734674,-7,-4,-14,-10,-8,-4,-4,-14
1501879164734674,3,4,-4,11,-9,-2,1,12
1501879164746676,-3,3,9,-14,-8,-3,-1,0
1501879164746676,1,1,-6,2,2,1,1,-23
1501879164755676,-4,2,10,1,-1,-2,2,-3
1501879164755676,1,-2,-12,0,4,-1,-3,2
1501879164770679,0,-5,-9,-4,-6,-4,-2,-7
1501879164770679,-3,3,24,-6,-9,-1,-1,22
1501879164772676,-1,9,-50,5,-2,-1,-4,4
1501879164772676,-1,2,7,-1,3,0,2,5
1501879164793678,1,-3,14,10,-1,-5,-2,-4
1501879164793678,2,-7,-8,-18,-3,3,2,-6
1501879164794677,0,23,10,9,7,2,2,-20
1501879164794677,-2,-2,22,-3,-3,1,-1,7
1501879164806679,-9,-21,-22,-5,-3,0,0,-2
1501879164806679,5,10,3,10,2,-2,5,12
1501879164815679,2,-2,1,-5,-2,-2,-2,4
1501879164815679,-1,21,14,-6,-1,-1,0,-14
1501879164830680,-5,-30,-7,-2,-2,-3,-1,21
1501879164830680,0,2,16,2,-14,-2,1,10
1501879164832680,1,-1,-7,1,18,-1,-4,7
1501879164832680,0,0,2,2,-11,0,-3,-1
1501879164853683,-3,-2,-14,1,4,0,-2,-4
1501879164853683,1,17,26,-2,-2,4,2,0
1501879164854682,-3,-16,4,11,-3,-1,4,16
1501879164854682,-2,-19,-19,-31,-18,-4,-4,-14
1501879164866682,-2,23,-3,3,5,0,-7,-19
1501879164866682,-1,-20,-9,4,1,-4,-2,-1
1501879164875684,1,-2,10,-2,-3,0,1,9
1501879164875684,-2,0,18,10,3,-1,0,-4
1501879164891697,-1,15,-23,-12,-1,1,1,-9
1501879164891697,-3,-12,0,3,6,-1,-1,9
1501879164892684,0,3,9,1,-3,-1,-6,-20
1501879164892684,1,-13,-13,1,3,-2,-1,7
1501879164913688,0,2,-8,-8,1,-1,-3,4
1501879164913688,-2,16,9,6,4,-1,0,-6
1501879164915696,-2,13,2,-6,-5,0,3,-19
1501879164915696,5,-15,-14,1,0,0,-2,6
1501879164935686,0,-8,22,-5,2,5,2,-4
1501879164935686,-1,2,-14,4,9,-2,-5,-6
1501879164937687,-2,-8,-24,-8,-19,-3,-2,6
1501879164937687,2,9,0,4,7,2,4,-6
1501879164958687,-2,-8,6,4,-1,-4,3,-3
1501879164958687,-1,-15,12,-8,-1,-1,-8,2
1501879164959693,-1,-2,0,6,2,-1,-3,-1
1501879164959693,0,8,8,-8,-4,-2,3,8
1501879164973689,2,4,-14,0,2,-2,-1,1
1501879164973689,-2,8,9,-3,-7,-4,-2,-1
1501879164974689,1,2,-17,2,11,1,2,5
1501879164974689,0,-3,1,2,-3,0,0,15
1501879164995695,-4,1,8,1,5,-1,-3,-26
1501879164995695,0,3,-7,-8,-3,2,2,-5
1501879164997690,-2,0,10,4,-3,-3,-2,-6
1501879164997690,-5,-4,-1,-2,0,-4,-5,16
1501879165010691,-1,0,-7,-6,-6,2,-3,-5
1501879165010691,-1,-9,-9,-3,0,0,2,15
1501879165016691,-4,1,3,-3,-7,-4,-8,-12
1501879165016691,-2,10,-8,7,10,3,5,3
1501879165033692,-5,-22,20,3,-6,-4,-7,3
1501879165033692,-1,2,8,-3,-3,-3,-2,-17
1501879165034691,-3,4,-5,2,2,2,3,-5
1501879165034691,-2,-4,18,-4,-4,0,1,0
1501879165055694,2,10,-23,-1,2,2,0,28
1501879165055694,-2,1,-12,0,-2,0,0,-28
1501879165057697,-1,-12,8,-4,-1,-2,-1,-2
1501879165057697,2,4,7,6,4,1,0,3
1501879165070695,-8,-12,3,-2,-14,-5,-8,-34
1501879165070695,-1,-11,-12,-4,5,-1,-2,9
1501879165076695,-1,-1,-9,-5,-5,-1,-1,6
1501879165076695,-2,-17,-9,0,8,-1,-1,-1
1501879165093696,3,14,16,1,-2,-2,0,-10
1501879165093696,2,14,0,7,-5,-1,-1,7
1501879165094695,-1,-3,-6,-11,-4,0,3,6
1501879165094695,2,-17,18,-1,4,3,1,18
1501879165115700,-5,3,-24,1,1,0,-4,-37
1501879165115700,-3,-2,5,16,7,0,-1,4
1501879165117705,1,-2,-14,-18,-9,2,-3,7
1501879165117705,1,9,-2,2,2,-2,-1,7
1501879165130698,4,3,10,-1,-5,2,3,11
1501879165130698,-1,-1,10,-2,-3,-2,-2,1
1501879165136698,-1,5,-10,7,3,-2,2,-5
1501879165136698,1,-7,-2,0,-4,0,-2,-10
1501879165153700,-1,-4,-15,-9,-6,-2,-2,2
1501879165153700,0,13,24,-4,-1,-4,-1,1
1501879165154698,-3,-25,-6,-3,-3,-1,1,7
1501879165154698,-8,-4,2,-2,4,-3,-7,-16
1501879165175700,3,9,-14,0,-5,0,0,7
1501879165175700,0,-4,-8,-5,-3,-1,3,8
1501879165177701,1,17,2,3,0,-2,-5,-5
1501879165177701,0,3,12,2,0,0,1,-7
1501879165190705,-3,-8,-11,-2,-1,-3,-4,4
1501879165190705,-4,-27,-13,-8,-2,-1,0,-3
1501879165196704,0,8,24,2,7,0,1,-2
1501879165196704,0,7,-4,0,-6,-2,0,0
1501879165213711,0,0,14,0,-2,-1,0,-3
1501879165213711,3,3,-19,-2,0,-1,0,0
1501879165214703,1,0,10,3,-2,0,1,5
1501879165214703,-5,2,-3,-4,-1,-2,-3,-18
1501879165235705,1,0,-19,-3,2,-2,0,2
1501879165235705,2,13,6,0,-2,-2,-3,-1
1501879165237705,-1,-16,22,1,1,-1,-2,-5
1501879165237705,-1,7,-32,-2,-3,-1,0,4
1501879165250705,-4,-1,6,-3,-1,-2,0,-5
1501879165250705,2,-1,5,2,-1,-1,0,7
1501879165258718,-1,0,-9,-2,-1,0,-1,3
1501879165258718,-3,-5,2,1,2,-2,-1,-12
1501879165273706,2,2,12,3,1,2,7,13
1501879165273706,-3,-1,2,-3,-2,-1,-6,-8
1501879165274706,1,18,-1,2,1,-3,-3,4
1501879165274706,2,-17,0,1,-3,-2,5,35
1501879165295708,-6,-8,-9,-6,-10,-2,-10,-50
1501879165295708,5,19,-3,4,16,2,-1,-1
1501879165297708,-9,-26,2,0,-4,-3,-4,-11
1501879165297708,-1,-4,4,2,-3,0,-2,6
1501879165310708,1,-5,1,-7,2,2,7,40
1501879165310708,0,-2,-5,-3,-8,-6,-4,10
1501879165316710,-2,23,1,0,-2,0,-3,-29
1501879165316710,3,-17,-11,4,-1,1,9,39
1501879165333709,-8,6,20,-2,-1,-5,-14,-68
1501879165333709,-1,-17,-6,-1,-22,-2,-3,-15
1501879165334710,0,2,2,-1,21,-3,-3,11
1501879165334710,-2,9,-7,6,10,5,-6,-42
1501879165355712,6,7,0,2,-2,0,7,20
1501879165355712,-3,5,-6,-3,-5,-5,-2,9
1501879165357711,-7,-12,6,3,-20,-4,-5,-10
1501879165357711,0,1,8,-8,-6,-3,-3,-10
1501879165369714,-1,-8,1,4,17,0,0,8
1501879165369714,1,-6,2,0,1,3,3,0
1501879165378712,1,3,-5,-1,-5,-2,2,11
1501879165378712,0,-9,7,-2,-2,-5,-4,10
1501879165393713,1,10,-8,-1,-7,-1,0,8
1501879165393713,0,6,1,-5,-15,-5,1,-6
1501879165394712,0,-27,-12,5,24,11,0,9
1501879165394712,1,7,-6,10,17,-1,-3,-16
1501879165415718,1,-6,-4,-18,-15,-2,4,24
1501879165415718,0,5,2,-2,-10,-4,0,-15
1501879165417715,0,7,1,-6,-7,0,-2,5
1501879165417715,1,-3,5,0,1,2,-2,-4
1501879165430716,-7,-16,-8,3,-3,-1,-2,10
1501879165430716,-4,-9,-10,2,12,2,5,17
1501879165438715,3,14,6,-10,-19,-5,-1,-18
1501879165438715,-4,19,1,-2,1,-2,-1,-15
1501879165453717,2,-8,-3,5,-5,-1,3,10
1501879165453717,-3,4,10,10,16,2,-6,-23
1501879165454717,-1,-7,-7,-13,-2,-2,-3,5
1501879165454717,-3,-6,-24,-10,-10,-3,-1,-1
1501879165475719,-2,-3,40,9,7,-3,-3,1
1501879165475719,-6,-9,-28,-18,1,2,-1,13
1501879165477718,3,8,-4,5,-7,-3,1,6
1501879165477718,-1,-10,-1,0,-9,-1,-1,-7
1501879165489718,3,21,0,-2,7,1,0,2
1501879165489718,-4,-23,-9,1,0,-1,1,1
1501879165498719,-2,-10,10,4,5,-3,2,-5
1501879165498719,-2,-1,-1,-7,-12,-3,-3,0
1501879165513721,0,1,-9,5,4,0,0,-4
1501879165513721,2,6,26,1,-3,2,4,7
1501879165514720,2,4,-47,-4,3,-1,4,11
1501879165514720,-3,3,1,3,4,0,-4,-22
1501879165535721,4,4,5,4,2,0,-2,8
1501879165535721,-4,-11,-1,-2,-4,-1,-6,-14
1501879165537721,2,3,5,-3,0,1,4,6
1501879165537721,1,7,15,4,-5,-1,3,23
1501879165549724,-3,-1,-32,-4,12,0,-4,-18
1501879165549724,3,-13,-6,-3,-4,0,1,2
1501879165558733,-4,-6,-1,0,-4,0,-5,-10
1501879165558733,0,5,4,1,6,-2,-4,2
1501879165573738,2,2,-4,0,-21,-3,3,7
1501879165573738,-3,9,21,4,22,4,-2,-7
1501879165574725,-1,-6,6,6,-10,-1,0,-6
1501879165574725,-2,-4,-3,-5,5,-2,-3,-5
1501879165595726,-2,1,-1,0,-10,-3,-1,7
1501879165595726,0,-1,-9,-1,-3,-1,0,1
1501879165597726,-2,3,3,-1,-1,-2,0,-4
1501879165597726,-6,-5,-5,-3,-5,-2,-1,-2
1501879165609730,-5,-9,7,-1,3,-1,-4,-3
1501879165609730,7,21,-7,-6,-8,-3,-2,4
1501879165618725,-3,-8,1,-1,5,-1,-1,-10
1501879165618725,3,-3,-7,-4,-4,0,1,6
1501879165633727,-3,-5,4,-2,3,3,-1,-2
1501879165633727,-4,-1,-4,1,2,-1,-1,-3
1501879165634726,1,4,6,3,-2,-2,-3,4
1501879165634726,-1,-1,-2,-2,-2,-4,-4,-7
1501879165655728,-1,-1,-4,-2,1,-1,-1,-5
1501879165655728,-1,-1,-5,1,-2,-1,3,3
1501879165657729,-1,-2,1,-1,-1,0,1,0
1501879165657729,-1,-2,-5,-3,-3,0,-1,-1
1501879165669728,-1,-1,1,-2,2,-3,-4,-3
1501879165669728,-2,0,-7,-2,-2,-2,1,1
1501879165678730,-1,-3,0,-1,1,0,-2,0
1501879165678730,-2,0,-2,-2,-2,-1,-3,-5
1501879165693731,-2,0,0,-3,-4,-1,1,-1
1501879165693731,0,-3,-2,-1,1,-3,-3,0
1501879165694730,-1,-1,-4,0,0,-1,0,-1
1501879165694730,0,1,-2,1,1,2,2,1
1501879165715734,1,1,1,-1,-1,0,2,-2
1501879165715734,-3,-3,1,-2,-5,-2,-3,0
1501879165717733,-1,-2,-1,-3,-1,-2,-9,-4
1501879165717733,-1,1,-3,0,-2,-1,4,1
1501879165729732,-1,0,2,0,0,2,9,1
1501879165729732,2,1,-1,-1,1,0,-1,0
1501879165744735,0,1,-1,-1,-3,-2,-3,5
1501879165744735,-3,0,-1,-2,-4,-4,-10,-9
1501879165752736,1,2,0,-1,3,2,0,2
1501879165752736,-1,-11,-2,-1,0,2,2,-1
1501879165761742,-3,1,-2,1,1,0,0,-6
1501879165761742,-1,-7,3,-3,0,0,-2,17
1501879165774735,-2,-6,-1,-4,-6,-4,-9,-7
1501879165774735,6,6,1,2,5,-2,0,4
1501879165775736,-2,22,1,2,-7,0,1,12
1501879165775736,5,-21,-2,0,3,1,-1,-18
1501879165797740,-4,-15,-8,-2,-1,0,-1,2
1501879165797740,-1,-6,6,-2,-5,-2,-1,-1
1501879165798737,-4,4,-17,-2,0,-2,2,-3
1501879165798737,0,1,5,2,-4,-1,3,5
1501879165812738,0,12,2,-2,1,1,-1,-1
1501879165812738,-1,-6,-1,0,-10,-2,-1,-6
1501879165813740,0,-13,-2,-4,9,1,0,1
1501879165813740,-2,7,0,7,10,5,4,1
1501879165834741,-1,3,-1,0,3,-2,-6,-4
1501879165834741,-3,-3,-4,-4,-4,-2,0,-3
1501879165835739,0,0,9,0,-8,-5,-3,-2
1501879165835739,-1,6,-11,-4,0,-1,-2,0
