timestamp,emg1,emg2,emg3,emg4,emg5,emg6,emg7,emg8
1501875738741329,4,-19,-10,-27,-50,-5,15,46
1501875738741329,-10,17,0,60,44,-6,-20,-98
1501875738742326,-16,-37,-3,-42,-30,-2,-1,-9
1501875738742326,10,33,8,-19,48,22,7,-47
1501875738743342,9,-15,-9,-39,0,-2,16,102
1501875738743342,13,40,5,-4,-13,-3,3,127
1501875738745324,-21,-29,4,23,-13,-12,-14,-95
1501875738745324,-6,2,-24,-2,20,5,-3,-22
1501875738752339,4,-3,-20,-52,-18,0,1,13
1501875738752339,-1,-41,-26,17,7,10,0,-48
1501875738760320,-1,27,22,4,-9,-8,6,64
1501875738760320,-3,11,8,85,-40,-10,-10,-47
1501875738767330,5,35,-17,-30,65,12,5,-24
1501875738767330,-13,-9,-10,-87,-30,-10,-16,18
1501875738785364,14,8,35,48,25,4,4,-11
1501875738785364,12,57,16,24,-27,-4,6,45
1501875738788348,-22,-64,-23,-7,6,10,-1,-1
1501875738788348,-27,-39,-3,-13,0,-8,2,-10
1501875738813365,25,20,-19,0,4,-1,-17,-73
1501875738813365,-4,33,-38,19,-1,-7,-2,50
1501875738814327,-2,6,37,59,-16,-4,-7,-21
1501875738814327,1,-52,-16,-24,-4,4,3,-2
1501875738853329,7,34,38,57,47,0,0,21
1501875738853329,12,31,8,-23,16,0,8,33
1501875738853329,-14,17,19,0,6,-2,-9,-45
1501875738853329,2,-38,-36,34,5,15,8,79
1501875738857345,-2,59,-25,-2,-17,-12,-17,-56
1501875738857345,-15,-69,18,67,-33,-13,2,-38
1501875738858362,-7,-5,18,-56,62,17,9,83
1501875738858362,9,56,-6,54,-53,-14,-9,-27
1501875738863397,-13,-98,-8,-38,22,9,-3,-49
1501875738863397,10,64,-25,-92,-15,3,-4,-7
1501875738871372,-2,5,-47,-13,-34,-14,-4,27
1501875738871372,-3,-63,41,-12,9,2,8,-33
1501875738880363,13,31,0,8,-15,-1,3,37
1501875738880363,-2,-35,-18,46,-3,-2,-12,-3
1501875738893396,-3,-17,14,21,6,-4,5,-13
1501875738893396,-4,-22,-49,-62,13,4,-11,25
1501875738902352,-4,28,2,-8,-21,0,9,-51
1501875738902352,16,7,41,-7,27,2,9,54
1501875738926345,-4,13,-30,30,4,0,-7,-47
1501875738926345,-8,35,37,93,-19,-3,-10,-55
1501875738928338,-2,-43,7,-46,8,-1,11,66
1501875738928338,-10,-26,-39,-15,5,0,-16,-43
1501875738939372,14,-25,6,29,-13,-6,-6,-42
1501875738939372,3,30,-10,-65,-2,-4,4,-6
1501875738946392,-12,-48,-1,-30,-21,5,4,14
1501875738946392,5,58,3,-1,6,-10,-1,0
1501875738962334,-8,13,25,48,-27,-4,-8,35
1501875738962334,15,-5,22,-53,35,7,14,27
1501875738964367,-2,-32,-38,-28,-25,-9,-9,-10
1501875738964367,12,62,37,-21,19,7,4,26
1501875738985383,-19,-54,-41,-14,-3,-7,-7,-21
1501875738985383,-8,32,8,43,7,-7,-5,-12
1501875738986337,11,20,2,27,-18,-2,5,19
1501875738986337,-17,8,-30,-38,-49,-1,-3,-27
1501875738999413,-1,12,16,19,20,-2,0,-3
1501875738999413,6,55,-13,-15,-5,0,5,-3
1501875739006379,-6,-46,-6,25,46,0,-1,3
1501875739006379,-4,11,20,48,-18,-1,-3,-27
1501875739022398,3,-59,-43,-17,-3,1,-8,10
1501875739022398,-9,-9,18,10,-17,-9,1,1
1501875739024370,-5,47,3,15,-5,3,1,0
1501875739024370,-2,-32,-10,-11,43,4,-3,-9
1501875739045349,11,19,34,18,-47,0,10,-18
1501875739045349,8,-4,-22,-26,1,-11,3,63
1501875739046340,-14,-17,-5,-9,27,4,-20,-97
1501875739046340,-5,-48,7,39,-8,-7,-3,15
1501875739059407,11,22,-21,-82,-21,1,5,32
1501875739059407,6,-87,2,36,-1,-6,1,-11
1501875739066414,-7,54,14,19,3,-4,-12,-36
1501875739066414,-28,-60,-15,-1,29,0,-3,35
1501875739082362,6,48,7,31,-8,-6,0,6
1501875739082362,4,-2,41,-14,-3,12,7,-10
1501875739084343,0,-11,-62,-57,-9,-19,-10,57
1501875739084343,5,-1,18,23,-4,11,6,-23
1501875739105403,5,48,-1,46,31,-1,3,36
1501875739105403,-4,-40,10,-13,-6,4,-1,13
1501875739106342,3,10,23,32,-10,2,4,-7
1501875739106342,0,7,-12,-4,-6,-1,4,4
1501875739119376,3,-6,30,6,7,0,1,-20
1501875739119376,8,72,21,52,22,2,-6,-14
1501875739126386,-13,-14,-7,-65,0,8,2,1
1501875739126386,7,33,-3,-17,-20,-7,2,32
1501875739142384,18,31,17,5,-14,-2,7,45
1501875739142384,-18,-67,-35,-60,7,1,-20,-80
1501875739144345,-9,9,30,69,12,5,9,28
1501875739144345,15,28,-28,-5,-5,3,16,16
1501875739165382,-22,-32,-12,-46,-29,-15,-25,-49
1501875739165382,6,-9,6,9,1,-2,-1,57
1501875739166348,16,17,19,35,50,1,-7,-41
1501875739166348,-11,-25,-5,-2,2,4,0,-1
1501875739179413,17,17,44,0,6,3,9,-1
1501875739179413,-13,-6,-37,-1,-21,0,4,24
1501875739186395,1,-24,1,0,-3,-10,-3,3
1501875739186395,9,82,18,23,-33,-20,-7,5
1501875739202412,-1,-65,-37,-64,74,21,-2,-7
1501875739202412,-6,2,8,8,6,1,1,-10
1501875739204348,-3,-24,-6,-25,-43,-3,-3,26
1501875739204348,-8,5,15,15,-24,-8,-9,-19
1501875739225424,-13,16,1,-21,-4,-2,-6,-13
1501875739225424,2,-22,-64,6,3,-4,0,12
1501875739226350,8,41,-2,-41,-10,6,-3,-32
1501875739226350,0,-9,-8,10,-12,-8,-8,-12
1501875739238369,-22,-65,-27,-89,2,6,6,-19
1501875739238369,-3,96,18,-2,0,-1,-2,-27
1501875739247365,21,-30,4,29,-17,-4,12,51
1501875739247365,-32,0,0,2,30,3,-15,-70
1501875739262414,26,74,35,40,-40,-1,3,6
1501875739262414,-12,-22,-38,-16,50,5,4,21
1501875739264387,8,51,29,22,-23,-5,4,26
1501875739264387,0,-27,-14,-20,32,8,-9,-18
1501875739285394,-12,-46,-59,-22,-12,-12,-6,-8
1501875739285394,1,-11,50,31,-53,-16,-5,-13
1501875739286355,18,111,34,26,55,16,7,19
1501875739286355,-6,-107,-69,-38,-9,6,6,25
1501875739298421,-6,37,15,26,-5,-6,-4,13
1501875739298421,15,37,7,-75,-7,-3,1,18
1501875739307374,-19,-36,-21,-10,-39,-4,-7,-54
1501875739307374,-1,2,18,41,26,0,0,-19
1501875739322395,-2,-16,-15,3,0,5,10,11
1501875739322395,-1,27,-11,-9,-3,-9,-7,11
1501875739324388,9,9,0,26,1,2,-2,-14
1501875739324388,23,26,16,-30,-42,-2,5,11
1501875739345378,-28,-72,4,80,40,-1,-7,-21
1501875739345378,23,95,40,-36,-9,10,13,11
1501875739346372,-9,-39,-26,13,0,-5,3,51
1501875739346372,2,25,7,-7,-1,-1,-1,15
1501875739358399,5,5,15,-42,-7,0,2,0
1501875739358399,-17,-34,-21,13,-15,-1,-3,-12
1501875739367373,21,39,5,-2,13,3,15,32
1501875739367373,-3,-65,42,35,-20,-7,-2,-3
1501875739382377,-9,49,-39,-1,-21,3,-7,-9
1501875739382377,-4,-35,-1,-15,31,-1,-9,-33
1501875739384391,-1,-25,5,-12,20,1,0,0
1501875739384391,1,22,15,39,12,1,8,29
1501875739405376,20,62,12,11,19,2,-1,-10
1501875739405376,-21,-72,-27,5,-36,-4,-3,13
1501875739406362,10,95,12,-16,12,1,-12,-15
1501875739406362,-28,-70,-28,-46,0,-2,-2,2
1501875739418434,1,13,16,35,-5,-1,-1,-9
1501875739418434,7,35,-25,4,-18,-4,8,54
1501875739427396,-15,13,0,11,-12,-7,-14,-72
1501875739427396,1,31,2,-3,29,5,-8,-77
1501875739442426,7,14,21,20,4,-4,4,39
1501875739442426,-10,-3,13,45,-17,-5,-4,-29
1501875739444362,-17,-75,-21,-18,-19,1,4,10
1501875739444362,19,53,30,26,-23,3,7,29
1501875739465394,-2,22,3,-30,23,6,6,-15
1501875739465394,6,-42,-38,-38,16,7,-2,-9
1501875739466364,-10,-46,-13,-16,-24,-10,1,21
1501875739466364,8,0,5,-3,-13,-1,-2,10
1501875739478365,17,73,29,34,16,8,15,35
1501875739478365,-17,-73,21,30,10,-4,-21,-97
1501875739487366,-13,-18,-23,-67,-13,0,-2,24
1501875739487366,2,28,-4,30,0,-7,-2,9
1501875739502401,-1,16,-1,-45,-12,-8,-8,22
1501875739502401,11,-21,1,-6,1,3,4,-15
1501875739504398,2,21,5,15,-11,-5,-3,-15
1501875739504398,-1,-40,12,7,24,6,6,24
1501875739525367,-7,-45,-22,2,-44,1,-1,-40
1501875739525367,5,31,-4,1,48,3,10,40
1501875739526369,-2,-2,10,37,-15,-10,-15,-53
1501875739526369,-12,13,-7,-112,-10,4,-2,36
1501875739538378,8,-12,-22,41,-22,-5,-1,1
1501875739538378,-14,-8,10,33,8,-15,-15,-42
1501875739547389,5,-14,3,-21,34,24,20,55
1501875739547389,-20,-17,-16,21,10,2,-6,-2
1501875739562373,17,-17,-32,-76,9,-9,-9,5
1501875739562373,7,4,36,36,-16,-2,5,27
1501875739564397,1,37,-2,23,-2,-5,-4,20
1501875739564397,4,8,15,12,-21,-7,6,-4
1501875739585371,-12,-1,-6,4,31,13,11,-2
1501875739585371,25,40,42,23,-5,7,-2,23
1501875739586376,0,-46,-39,-41,6,-4,-2,0
1501875739586376,-6,-39,-3,-9,-12,0,-12,-42
1501875739598371,-15,-15,4,0,-19,-15,-7,0
1501875739598371,2,29,4,-12,-11,0,1,-28
1501875739607373,-7,70,44,0,9,9,2,27
1501875739607373,11,-32,-39,16,-2,-1,-2,-9
1501875739622382,2,-7,3,-13,-22,-3,2,25
1501875739622382,-2,55,-1,-15,72,9,-9,-46
1501875739624385,-5,-93,-28,12,-37,-10,2,18
1501875739624385,0,42,-12,-16,23,-3,-7,-16
1501875739645382,-5,-21,16,19,10,7,0,-31
1501875739645382,-21,-21,10,30,-36,-3,3,10
1501875739646374,6,8,-4,27,24,-7,-4,0
1501875739646374,1,94,-19,-14,24,2,7,18
1501875739658381,14,-86,0,33,-24,-5,-6,-10
1501875739658381,-11,6,-45,-17,-23,-2,-13,-31
1501875739667376,5,5,28,20,50,-4,-1,4
1501875739667376,23,64,10,18,-8,1,13,33
1501875739683417,-14,51,7,0,-10,4,-9,-22
1501875739683417,0,-9,-56,-32,4,-6,-3,29
1501875739684378,-17,-10,-12,0,-36,-5,-6,-19
1501875739684378,8,-49,11,14,21,2,7,34
1501875739705405,-2,-18,-13,-41,4,-3,-5,-9
1501875739705405,0,-10,18,27,31,1,2,-8
1501875739706380,-5,1,-22,-10,-65,-5,-6,-7
1501875739706380,1,-7,2,-14,18,0,10,22
1501875739727446,-5,-5,-12,-16,0,-4,-16,-29
1501875739727446,-9,25,30,-2,-10,2,0,9
1501875739729411,19,-4,-19,9,-31,-1,11,-3
1501875739729411,-7,-24,-6,-1,30,6,-1,6
1501875739742421,-8,-31,-1,-35,3,-6,-4,22
1501875739742421,0,15,14,10,-12,-1,-4,-13
1501875739744412,16,51,10,9,25,9,8,0
1501875739744412,-14,-82,-8,1,-38,-13,-6,0
1501875739765403,-5,32,12,68,31,9,5,-33
1501875739765403,-6,-49,-38,-45,-16,-2,-4,20
1501875739766388,-10,-18,-20,-20,0,-6,0,11
1501875739766388,3,21,12,30,17,1,-3,-55
1501875739787419,9,6,3,-14,-19,-3,0,41
1501875739787419,4,24,35,13,27,-3,1,-2
1501875739789384,-3,-23,-4,38,0,3,2,11
1501875739789384,1,-6,13,-26,-54,-5,-1,-34
1501875739802410,-7,6,-53,-2,35,-3,-9,-2
1501875739802410,-8,-55,19,28,2,-1,1,-12
1501875739804383,-1,68,6,-56,-71,-6,-7,-7
1501875739804383,9,-24,1,2,91,5,5,9
1501875739823429,-4,-52,21,6,-3,-6,1,-3
1501875739823429,5,-16,-23,-5,-19,-4,-1,21
1501875739832385,-1,24,-3,-11,21,2,0,-21
1501875739832385,-9,27,9,8,-29,-1,-4,37
1501875739847443,13,34,21,10,-14,0,4,-5
1501875739847443,-12,-20,-23,-19,-22,-7,-9,-26
1501875739849386,1,-12,0,-3,72,10,2,-12
1501875739849386,9,72,3,3,-31,-8,-5,31
1501875739870416,-11,-16,5,12,0,-2,6,15
1501875739870416,5,67,4,-84,-17,9,12,7
1501875739871390,13,-39,7,19,21,-4,-4,12
1501875739871390,-1,18,4,-20,20,10,4,1
1501875739883423,6,47,-4,2,5,2,-3,-4
1501875739883423,0,-61,-14,-1,-12,-2,4,14
1501875739892390,-12,6,23,-5,-8,-3,-2,-20
1501875739892390,-2,1,-5,13,-17,-3,-6,19
1501875739907453,6,8,18,8,-26,-2,4,5
1501875739907453,-7,-20,-45,-29,21,2,-3,3
1501875739909422,-3,11,10,35,25,1,3,1
1501875739909422,6,1,-1,-35,-13,-4,-2,-6
1501875739930429,-8,-27,8,12,6,-2,-7,-21
1501875739930429,1,32,35,26,-14,-2,-9,-30
1501875739931392,-12,54,-20,1,3,3,2,12
1501875739931392,-7,-63,-17,12,-8,-6,-6,-22
1501875739943434,3,8,-17,34,0,-5,0,-21
1501875739943434,-7,19,1,-29,-2,1,-7,-35
1501875739960428,-3,-52,22,2,-13,-4,-5,18
1501875739960428,-12,-64,-12,26,-89,-9,-3,-21
1501875739967462,-6,-33,-4,-25,67,14,10,22
1501875739967462,27,43,-4,19,-9,-11,-2,28
1501875739969426,-11,-42,3,-32,-11,4,0,5
1501875739969426,-1,43,-21,-16,2,-4,-14,-41
1501875739990416,5,15,9,24,-27,-9,2,27
1501875739990416,-7,27,-1,-36,5,10,-2,-60
1501875739991394,-3,-21,-20,-7,-4,-2,-8,-5
1501875739991394,-12,-29,6,3,-6,-7,-3,-13
1501875740003400,-6,-48,-4,-43,5,-1,9,28
1501875740003400,3,44,10,54,21,8,2,39
1501875740012424,2,0,26,44,-5,0,-1,-22
1501875740012424,6,28,1,5,52,5,4,3
1501875740027459,4,-4,-16,-5,-48,-10,-1,23
1501875740027459,-1,-16,8,-25,-12,7,9,7
1501875740029396,-2,-18,-16,15,-10,-5,-6,-32
1501875740029396,-4,44,17,19,-1,1,2,-3
1501875740050408,2,-2,11,-19,-40,-2,-9,-17
1501875740050408,11,11,-11,46,95,-2,9,51
1501875740051398,1,30,-15,-56,-24,-3,-5,-28
1501875740051398,8,-25,-10,-23,3,4,5,21
1501875740063411,-8,66,-13,12,-7,1,-2,-29
1501875740063411,-15,-39,-7,-60,-34,-11,0,14
1501875740072409,10,-51,2,23,16,-5,-9,-4
1501875740072409,-10,-36,5,7,-1,0,-8,-25
1501875740087407,-3,18,23,20,27,6,4,-9
1501875740087407,3,-10,-29,-39,-73,-8,-6,-17
1501875740089422,2,17,18,44,9,-2,4,39
1501875740089422,7,30,4,-17,-15,-1,-3,-30
1501875740110412,-5,-41,-14,-26,22,9,1,1
1501875740110412,3,36,24,21,-8,-4,0,-1
1501875740111401,-5,-19,-26,12,28,-2,-2,-6
1501875740111401,-1,5,-1,-5,-7,0,5,7
1501875740123470,7,-36,20,-11,-17,-1,-12,16
1501875740123470,-16,-15,-33,32,13,-1,-1,3
1501875740132404,-6,28,-8,-38,-23,-8,1,21
1501875740132404,3,2,5,34,36,-4,-12,-46
1501875740147442,-4,-23,-16,-19,18,5,5,-21
1501875740147442,2,-5,11,20,-22,-4,-1,25
1501875740149405,2,-1,18,1,-2,2,-3,-20
1501875740149405,23,101,26,24,17,2,8,49
1501875740170416,-7,-22,-17,-10,-14,-6,4,17
1501875740170416,-7,-71,6,10,-51,-5,-7,-5
1501875740171437,-12,-10,-22,22,78,4,-7,-34
1501875740171437,0,-9,-11,-33,-21,-3,-3,5
1501875740183451,11,45,17,-16,-4,0,1,3
1501875740183451,2,-11,-11,-8,18,0,6,22
1501875740192444,3,21,14,-2,-41,-1,9,36
1501875740192444,-5,-18,10,1,3,-2,-8,-72
1501875740207421,7,43,-12,26,24,2,-7,4
1501875740207421,-18,-66,-2,26,-12,1,3,-11
1501875740209409,1,-17,-22,-25,-20,-2,-3,9
1501875740209409,-7,-12,-12,-7,11,2,2,4
1501875740237438,-6,-1,-19,-5,-24,-6,1,-16
1501875740237438,13,38,27,19,16,4,-1,-8
1501875740239408,12,30,8,17,0,1,8,5
1501875740239408,-16,-60,-29,-9,-15,-1,-5,31
1501875740252478,2,17,3,-35,9,0,5,-10
1501875740252478,-5,1,6,3,30,-5,-23,-49
1501875740254439,-5,-3,6,15,-15,6,-8,-13
1501875740254439,-4,-6,-35,-85,-18,-2,3,11
1501875740267409,-3,-3,0,15,5,-2,-4,8
1501875740267409,8,18,5,3,3,-1,9,26
1501875740269409,0,3,12,-18,-18,0,-2,-30
1501875740269409,-6,0,16,15,13,-4,0,2
1501875740290422,1,-29,-13,9,-2,0,-6,23
1501875740290422,-1,31,-5,19,-3,0,4,9
1501875740291412,-8,-30,-5,-42,5,-5,-5,-18
1501875740291412,6,-11,-1,19,0,2,6,4
1501875740312423,-9,23,11,4,11,1,-11,-12
1501875740312423,10,43,-7,-12,0,0,2,-17
1501875740314414,6,-4,23,19,7,8,6,21
1501875740314414,-18,-20,-26,25,-13,-10,-7,-65
1501875740326474,-1,-2,18,-33,-5,3,8,10
1501875740326474,4,-40,-6,-4,-22,-2,-8,14
1501875740333413,0,12,-4,-6,11,-5,-3,2
1501875740333413,-1,-8,0,-10,-21,0,0,21
1501875740350437,6,3,6,21,21,-3,-4,-14
1501875740350437,1,35,11,9,-1,1,10,18
1501875740351416,-3,-10,-8,-38,-19,-4,-6,-8
1501875740351416,1,11,17,21,22,2,5,29
1501875740372435,0,11,-11,17,1,-5,-10,0
1501875740372435,-3,-9,-6,-10,-3,-2,-1,-33
1501875740374416,-15,-63,7,-20,-9,-1,-3,-25
1501875740374416,13,29,-10,-13,16,1,1,27
1501875740387420,-20,-39,5,9,-10,-1,-2,-7
1501875740387420,3,11,17,-3,-14,1,-7,-9
1501875740393473,-5,-20,-9,-5,33,3,-1,-10
1501875740393473,5,9,2,18,-7,0,-1,12
1501875740410438,2,6,-8,-4,-23,-6,9,5
1501875740410438,-7,-13,-13,9,30,-1,-7,-12
1501875740411420,17,54,1,-15,-12,0,6,37
1501875740411420,-8,4,4,-28,-16,0,-7,-27
1501875740432436,2,-28,8,32,17,0,-1,-5
1501875740432436,-4,22,-21,-2,-15,-6,4,22
1501875740434432,13,2,-8,-30,-18,0,4,-22
1501875740434432,-15,-26,-3,29,29,0,1,-15
1501875740446491,-7,-17,-10,-2,-18,-3,-1,8
1501875740446491,-4,5,-2,0,16,4,5,17
1501875740453462,11,37,1,28,-24,-5,4,21
1501875740453462,7,7,39,-5,38,13,2,-9
1501875740470432,-1,0,-41,3,-3,-2,-1,-15
1501875740470432,-3,-51,-10,-74,-20,-4,-1,8
1501875740471461,-9,4,6,22,-3,-6,-8,-44
1501875740471461,-2,-4,-17,2,-8,-7,-2,17
1501875740492488,6,38,28,14,6,2,3,-10
1501875740492488,3,-38,16,3,-29,-4,4,33
1501875740494426,-22,-1,-26,3,62,-4,-19,-57
1501875740494426,2,-22,3,23,-5,-2,3,38
1501875740506465,5,28,-29,-46,-26,-5,-1,0
1501875740506465,-21,-19,0,-16,13,1,-13,-42
1501875740513490,5,9,7,7,-26,-4,3,17
1501875740513490,-1,-19,3,-11,15,1,3,47
1501875740530458,0,2,13,17,2,1,-10,-71
1501875740530458,3,31,8,-9,-2,-6,0,8
1501875740531458,-4,16,6,4,-12,0,-3,-12
1501875740531458,6,-3,0,-8,-9,2,0,-6
1501875740552428,-4,-3,-4,-5,-4,-6,1,25
1501875740552428,0,2,8,6,22,4,2,6
1501875740554427,-4,26,2,53,-3,5,-1,-14
1501875740554427,1,-41,4,-59,-29,-2,7,17
1501875740566465,-2,-7,-16,-2,32,7,-1,-4
1501875740566465,1,-39,0,30,9,-5,-5,-24
1501875740573497,5,-8,3,-9,13,6,19,85
1501875740573497,-3,8,10,29,-46,-15,-15,-61
1501875740590439,-9,-20,-16,-49,-7,-2,-8,-27
1501875740590439,-4,16,-23,32,18,0,-4,-11
1501875740591456,5,-29,-4,-13,-6,5,6,8
1501875740591456,-1,2,-1,-3,-1,-2,-6,-3
1501875740612471,-4,-22,5,20,8,-2,8,66
1501875740612471,-4,13,-6,-18,-17,-4,-10,-51
1501875740614431,3,11,7,8,4,1,0,-6
1501875740614431,-7,-28,-7,18,50,2,-5,-6
1501875740626499,-3,-27,-9,-23,-14,-5,-9,-20
1501875740626499,6,8,-17,-6,-17,0,11,40
1501875740633470,-13,-29,-14,-29,-18,-7,-14,-57
1501875740633470,2,30,-1,-21,-14,4,5,-7
1501875740650443,-1,17,6,23,-9,-6,0,14
1501875740650443,9,-4,31,9,32,4,2,15
1501875740651442,-7,-31,-1,-5,-10,-7,-5,7
1501875740651442,2,24,-17,47,-31,-2,3,9
1501875740672498,8,13,-14,-36,44,9,15,37
1501875740672498,-11,-65,-9,-14,-14,0,-8,-47
1501875740674433,8,3,-1,6,11,1,-3,28
1501875740674433,-7,58,15,9,-19,-7,-3,-21
1501875740686503,9,-76,9,3,-17,6,5,38
1501875740686503,-1,0,0,-25,1,-7,0,-2
1501875740695446,-3,-1,-47,24,-18,-7,-4,1
1501875740695446,2,17,4,-28,17,8,2,-3
1501875740710449,-8,7,31,41,21,1,-1,-33
1501875740710449,13,44,-21,7,-34,-1,7,48
1501875740711475,-11,-55,6,-36,32,0,-7,-39
1501875740711475,-9,12,-3,14,-10,-4,-3,-10
1501875740732449,11,23,3,-1,-14,-3,-2,2
1501875740732449,-6,-15,12,29,11,7,6,5
1501875740734473,-1,32,7,-26,-24,-2,5,18
1501875740734473,10,31,9,10,15,0,-2,20
1501875740746481,-9,-22,-33,-33,-19,-3,-4,-38
1501875740746481,-9,-6,-5,0,10,-2,-5,-21
1501875740755451,4,14,0,20,-16,-3,-1,25
1501875740755451,0,1,-3,-5,25,-1,2,-6
1501875740770440,4,6,7,-2,-6,2,1,10
1501875740770440,0,19,1,-4,19,6,2,-2
1501875740771450,-3,5,14,11,-6,-3,-2,16
1501875740771450,-1,-25,-12,-37,-3,3,1,-3
1501875740793476,0,33,19,46,12,-6,0,7
1501875740793476,-4,-29,-11,-33,-39,-5,-10,-20
1501875740794440,2,1,8,-2,17,5,4,1
1501875740794440,-4,-13,-2,-6,3,-6,-6,-6
1501875740806513,2,14,-5,-19,-7,3,2,13
1501875740806513,1,15,-3,10,-8,-6,3,14
1501875740815443,3,5,5,6,-3,4,-2,1
1501875740815443,-2,-9,-27,-14,-17,-4,-1,-4
1501875740830454,-9,6,10,18,3,-4,-5,-21
1501875740830454,6,22,21,18,-2,2,6,25
1501875740831475,0,11,-20,-34,-4,-9,-8,-26
1501875740831475,-6,-54,-15,-2,4,-1,2,-13
1501875740852487,-4,7,6,-19,-8,-2,-11,-10
1501875740852487,-2,19,13,21,-5,3,8,16
1501875740854456,-3,-4,3,18,-4,-5,-7,-20
1501875740854456,2,7,0,-19,52,12,3,10
1501875740866488,3,8,4,-3,4,-1,-4,-17
1501875740866488,-2,5,3,11,9,-1,0,4
1501875740875458,2,-26,2,20,-22,-4,7,33
1501875740875458,-4,23,-7,-43,-25,-3,-8,-20
1501875740890457,5,-44,7,9,-10,0,0,10
1501875740890457,-5,14,-7,4,3,-6,-7,-13
1501875740891455,1,15,0,-38,10,3,3,4
1501875740891455,5,-12,5,25,19,1,7,33
1501875740912521,-7,9,3,9,-11,-1,-13,-64
1501875740912521,2,10,18,19,-7,-7,-2,13
1501875740914449,1,2,-22,16,-2,10,5,-31
1501875740914449,-6,-38,-13,2,-18,-6,-7,13
1501875740926484,0,22,9,-6,-29,-2,3,22
1501875740926484,-4,-26,-7,-7,36,-1,-1,-49
1501875740935472,-5,-4,4,1,-11,-3,-2,13
1501875740935472,12,27,6,11,0,2,3,7
1501875740950466,-3,-7,-5,16,-12,-7,1,1
1501875740950466,8,4,3,-15,-7,4,7,-6
1501875740951460,-20,-1,-5,-2,50,1,-14,10
1501875740951460,0,26,0,-17,-54,1,-10,-46
1501875740972493,-3,-24,-4,-9,20,-2,-1,3
1501875740972493,-2,1,-10,1,-24,0,4,26
1501875740974473,-2,16,9,-14,16,1,5,-9
1501875740974473,0,8,6,17,-10,-4,-1,19
1501875740986520,-5,-7,1,19,-11,-6,-6,-11
1501875740986520,4,39,17,2,34,5,-2,2
1501875740995489,14,-21,-6,-8,-19,5,15,36
1501875740995489,-15,-15,-1,25,-14,-8,-9,-44
1501875741009492,6,23,3,-33,3,6,2,14
1501875741009492,-1,-14,-13,0,3,0,-6,-17
1501875741011464,2,-6,-4,2,-10,-9,-6,-3
1501875741011464,4,67,18,-10,18,5,12,42
1501875741032474,-5,-49,-3,21,17,-1,4,10
1501875741032474,-4,16,-8,-21,-48,-10,-15,-12
1501875741034466,-2,12,1,29,49,2,4,7
1501875741034466,2,-13,-4,-29,-10,-1,1,-8
1501875741046455,-5,14,-6,-2,-19,-2,-1,5
1501875741046455,0,-7,-8,29,27,0,3,33
1501875741055457,8,28,17,-17,-24,2,7,-35
1501875741055457,-10,-43,-12,-26,-15,-8,-12,-25
1501875741070458,2,22,12,8,3,5,-2,-22
1501875741070458,5,6,-21,-19,-6,0,1,24
1501875741071484,-4,-68,-14,-8,1,-6,-4,15
1501875741071484,-4,-8,-8,16,7,-1,-2,-9
1501875741092503,7,17,-2,-15,-15,-2,4,-1
1501875741092503,-10,-16,5,4,-1,0,-4,-29
1501875741094458,5,21,22,14,-11,-4,3,32
1501875741094458,15,24,2,13,35,10,7,22
1501875741106496,-12,-46,-18,1,1,-5,-4,-2
1501875741106496,1,13,-5,-8,18,2,1,2
1501875741115487,-2,13,4,5,11,2,-4,-13
1501875741115487,-2,-25,9,1,-28,-5,6,19
1501875741130461,10,36,-6,16,23,0,5,15
1501875741130461,-5,-25,3,-1,-13,0,-8,-49
1501875741131463,-10,-21,-27,-9,-4,-5,-5,-9
1501875741131463,2,24,19,22,7,-2,-1,-17
1501875741152498,2,4,8,3,16,3,5,21
1501875741152498,3,-17,-16,-21,-12,-1,3,33
1501875741154462,0,18,6,10,-8,-1,-4,-30
1501875741154462,-7,-37,9,7,-8,-1,4,8
1501875741175483,-4,32,-12,7,26,1,-5,9
1501875741175483,1,-37,0,-17,-13,-3,2,7
1501875741176479,0,25,2,1,2,-1,-3,-9
1501875741176479,5,-17,-3,19,-8,-3,7,57
1501875741190477,-11,-2,-10,-31,-10,-1,-17,-106
1501875741190477,-2,15,-11,15,30,-5,-5,20
1501875741191472,8,-12,10,-1,-4,10,5,-28
1501875741191472,-9,-3,-7,8,-2,-4,-2,3
1501875741212527,-4,-16,-12,-9,-27,-3,3,31
1501875741212527,6,30,3,-43,18,1,-5,-20
1501875741214465,-1,14,12,6,-36,-2,-6,4
1501875741214465,-3,-55,-1,10,-20,-5,0,-4
1501875741234534,5,19,7,-2,46,9,2,4
1501875741234534,-10,-1,1,14,-13,1,-2,11
1501875741236498,6,-29,12,-18,-2,-3,4,25
1501875741236498,-12,-9,-8,-6,2,-2,-13,-14
1501875741249506,-6,-33,3,-5,0,-8,2,-16
1501875741249506,5,19,-13,-10,1,4,5,-7
1501875741251499,0,32,5,53,15,-4,-4,8
1501875741251499,0,3,-12,-64,-43,4,-1,-9
1501875741272536,0,-29,7,-12,3,-2,1,16
1501875741272536,3,26,16,6,34,3,0,14
1501875741274470,-5,-26,-9,7,-12,-7,-6,-17
1501875741274470,3,55,7,-17,12,5,5,-9
1501875741294539,0,-20,10,5,-25,-4,-1,5
1501875741294539,5,-13,2,1,-14,-2,7,10
1501875741296502,-6,17,-15,-23,-12,-6,-5,8
1501875741296502,-1,12,10,56,28,-2,-13,-7
1501875741309513,-2,20,-4,-50,8,3,4,1
1501875741309513,0,0,10,0,-29,-3,-1,-7
1501875741316537,-5,-23,-25,-5,-3,1,-1,2
1501875741316537,4,4,0,-13,34,5,1,0
1501875741332491,0,3,3,17,-20,-6,-2,11
1501875741332491,0,19,-8,0,7,-3,5,5
1501875741334473,-2,1,4,-1,-5,1,0,-3
1501875741334473,-2,-36,-18,2,8,0,-1,-6
1501875741354547,-2,22,10,23,-2,-7,-6,-25
1501875741354547,-6,-16,-19,-34,-10,5,-3,-19
1501875741356481,2,23,12,-7,1,-2,2,27
1501875741356481,3,-9,-14,2,-1,-6,0,-25
1501875741369519,0,7,0,7,-4,2,6,38
1501875741369519,-7,17,11,21,-1,-6,-8,-36
1501875741376507,-1,-43,-4,-22,-8,1,5,5
1501875741376507,1,2,-3,-1,31,-4,-5,9
1501875741392544,-2,-6,-13,14,-9,2,-3,0
1501875741392544,0,-10,-1,-15,2,1,-7,-19
1501875741394476,1,23,6,-5,-1,2,-1,-3
1501875741394476,-5,-36,7,-5,-43,-7,0,-10
1501875741414544,0,14,6,10,-4,-3,4,18
1501875741414544,-8,-38,-27,-8,21,1,-4,3
1501875741421504,-1,-32,-5,-9,-9,-5,-3,-6
1501875741421504,-5,-17,-7,2,13,2,2,0
1501875741429518,0,-19,-13,-16,-4,-8,-8,18
1501875741429518,-11,-28,25,49,-47,-6,4,-20
1501875741436515,5,17,-4,-38,59,14,4,6
1501875741436515,-2,19,-14,-20,-9,0,-9,-20
1501875741452522,-5,-28,3,23,18,3,1,-9
1501875741452522,7,32,6,-12,9,0,3,21
1501875741454480,3,8,6,33,-17,-4,7,15
1501875741454480,1,4,-12,-2,9,1,3,15
1501875741475495,-10,18,-1,-12,-15,2,-10,-55
1501875741475495,15,77,17,15,7,-6,2,24
1501875741476506,-10,-6,-13,-2,-12,1,-2,-7
1501875741476506,6,6,-6,7,21,-4,6,37
1501875741489503,-6,-3,0,-25,-23,-4,-9,-53
1501875741489503,-5,-8,11,23,13,4,-7,3
1501875741496550,-10,5,-18,-32,6,-2,-5,-12
1501875741496550,5,21,-1,7,-26,-5,0,8
1501875741512551,-2,-7,-11,-11,5,-5,0,53
1501875741512551,3,-12,6,8,-4,-1,-2,-7
1501875741514484,-1,-19,0,5,-1,0,-2,-3
1501875741514484,-5,1,7,-6,-9,1,3,2
1501875741535521,7,22,1,28,-3,-2,7,12
1501875741535521,-6,-33,-2,-7,-2,4,0,-30
1501875741536499,2,10,-5,-5,-1,-9,-4,-4
1501875741536499,-7,-26,-15,17,-21,-2,-6,-12
1501875741549522,-5,-10,24,-15,27,0,-3,-20
1501875741549522,0,6,22,25,20,3,5,6
1501875741556504,5,8,-35,-56,-25,-8,-1,4
1501875741556504,-4,3,5,7,8,3,1,-8
1501875741572556,3,16,-1,1,-22,-2,-2,-2
1501875741572556,-2,1,2,12,8,-3,-4,5
1501875741574487,1,-18,15,22,2,5,3,10
1501875741574487,2,-6,-20,-29,-10,-2,1,30
1501875741595507,5,21,-1,-3,-6,-1,-1,-37
1501875741595507,-10,-37,-10,-17,-1,2,-5,-6
1501875741596496,0,4,4,48,9,-5,-6,-10
1501875741596496,-7,1,12,-13,-11,0,-6,-17
1501875741609509,13,29,2,3,2,5,10,45
1501875741609509,5,2,-11,-18,-2,-4,0,23
1501875741616501,1,15,14,17,-2,2,7,-27
1501875741616501,-1,-10,1,29,-1,-3,-5,10
1501875741632512,-10,-30,-5,-29,24,4,-9,-6
1501875741632512,1,-10,-29,23,0,-2,2,7
1501875741634490,-3,-1,27,-11,-21,-4,-5,14
1501875741634490,6,24,-3,-13,-3,-1,2,-19
1501875741654561,-2,-3,-10,-9,-1,-3,1,12
1501875741654561,-3,-1,0,-6,-18,-1,-3,-6
1501875741656499,9,41,9,23,1,3,3,9
1501875741656499,-15,-19,20,-14,7,-1,-4,-12
1501875741668533,3,-33,7,22,-31,-6,-1,8
1501875741668533,0,-16,-13,-18,34,6,4,9
1501875741677517,0,11,-11,11,-12,-3,-1,-4
1501875741677517,1,20,-3,-40,16,-1,-2,7
1501875741692517,0,7,-18,5,-11,3,3,-18
1501875741692517,5,9,0,-15,-11,-2,1,0
1501875741698561,-6,-19,-4,4,2,-6,-4,9
1501875741698561,1,-4,-3,-5,4,7,4,-35
1501875741715535,-7,-7,9,24,13,-4,-6,16
1501875741715535,-12,-21,1,-25,4,2,-10,-14
1501875741717495,-5,-3,-46,-21,0,-5,-8,0
1501875741717495,3,15,16,7,-11,-2,4,0
1501875741728562,4,-9,10,23,-11,4,7,11
1501875741728562,1,0,1,-16,-4,-2,-2,-9
1501875741737496,-3,3,32,28,-6,-1,-3,16
1501875741737496,3,-13,-15,-26,13,-1,1,-10
1501875741752494,8,26,-1,12,15,7,6,-17
1501875741752494,-4,-49,-11,-1,-19,-5,-1,7
1501875741754498,-8,-8,24,7,7,1,-2,-6
1501875741754498,0,15,-3,4,-36,-4,-4,-5
1501875741775515,-6,-22,-12,-30,16,-2,-2,3
1501875741775515,2,23,-1,-2,-10,-6,5,13
1501875741776498,6,-13,4,3,33,9,1,-5
1501875741776498,2,5,13,29,9,-1,-3,5
1501875741788564,1,1,-17,-13,-42,-3,-3,-17
1501875741788564,-4,20,6,-13,13,-1,1,27
1501875741797498,2,-27,-12,-25,6,-4,1,-13
1501875741797498,2,17,-3,19,1,1,-2,-1
1501875741812569,-8,-42,7,3,4,-4,-5,-5
1501875741812569,-3,-2,-10,-8,-13,-2,-2,-11
1501875741814502,0,2,20,8,-9,2,3,5
1501875741814502,5,0,-3,-26,28,1,7,43
1501875741834563,0,25,3,-5,-27,-8,-15,-25
1501875741834563,1,13,23,31,18,3,0,-15
1501875741836500,-3,-19,-52,-56,1,1,0,6
1501875741836500,-2,-9,20,7,-24,-6,-3,-2
1501875741857572,1,12,1,27,5,0,7,25
1501875741857572,0,-8,8,-10,2,8,0,-25
1501875741859503,2,22,-3,9,-9,0,-1,-11
1501875741859503,1,7,6,-4,4,-1,-2,8
1501875741872541,-3,15,-9,-1,-18,-8,-4,4
1501875741872541,7,-22,20,-6,-57,-7,7,14
1501875741874505,-7,10,-8,1,71,6,1,-13
1501875741874505,-5,-12,-33,-1,-26,-2,-10,-31
1501875741894542,0,39,31,14,36,4,-3,6
1501875741894542,-16,-51,-52,-12,-36,-6,-2,-11
1501875741896518,2,12,16,1,-7,-2,2,20
1501875741896518,-5,-16,-17,-5,-9,-7,-4,-7
1501875741908569,1,-7,-6,-14,-1,2,-2,-5
1501875741908569,1,25,-4,-6,33,3,3,6
1501875741917518,-3,-1,-1,0,-25,-8,1,9
1501875741917518,1,-9,8,36,17,-3,-11,-32
1501875741932531,2,10,5,-30,-6,3,0,-15
1501875741932531,-7,-3,-3,-2,-10,-1,-4,5
1501875741934527,0,11,10,12,14,-2,-5,-8
1501875741934527,2,25,4,-4,-16,0,5,-22
1501875741954517,-6,-41,-9,-6,0,2,4,25
1501875741954517,-4,12,-29,-1,21,-6,-11,-39
1501875741956541,-3,-12,1,4,-19,0,-3,-5
1501875741956541,3,-3,0,-6,3,-2,4,17
1501875741968575,-3,-9,-7,12,-5,-6,2,-1
1501875741968575,2,24,6,7,-2,0,3,8
1501875741977509,2,-21,12,7,-5,-2,-2,-15
1501875741977509,-5,8,-1,-4,5,5,-1,-4
1501875741992513,-4,-28,-14,-18,-8,-1,1,23
1501875741992513,3,36,16,33,19,-6,-5,-17
1501875741994512,-4,-32,-18,-35,-37,-2,5,1
1501875741994512,2,3,10,-2,14,7,-2,9
1501875742014580,3,7,-4,-1,0,-1,-2,6
1501875742014580,0,9,8,7,-1,-4,-4,-7
1501875742016543,-5,-15,-16,-21,-5,-7,-7,1
1501875742016543,-1,-2,1,-12,0,3,5,2
1501875742028579,-2,-4,-8,3,-6,-3,-2,26
1501875742028579,2,-11,17,-12,-14,6,2,-28
1501875742037521,-3,-2,-6,21,28,-2,-1,-13
1501875742037521,1,-1,1,0,-22,-7,-2,16
1501875742052578,-4,-2,8,3,19,-1,3,-1
1501875742052578,8,8,2,11,-14,5,3,13
1501875742054514,0,16,-9,-22,-7,-1,-2,-3
1501875742054514,-10,-45,-11,1,-13,-4,0,10
1501875742074560,0,9,-4,-9,5,-1,-2,-21
1501875742074560,0,-12,3,-4,9,-4,-7,-5
1501875742076515,3,24,-1,2,-1,1,0,3
1501875742076515,-1,10,-3,5,4,-1,-2,1
1501875742097577,2,9,7,2,-12,-5,-1,-7
1501875742097577,-2,-20,-11,-17,13,1,0,4
1501875742099552,1,15,8,12,-4,1,2,23
1501875742099552,3,-4,-5,-2,-4,-1,-1,2
1501875742112518,-7,-8,-3,-3,8,-2,-7,-26
1501875742112518,1,-2,-2,7,-25,-6,-3,14
1501875742114528,-6,-1,-6,-16,-3,3,2,-18
1501875742114528,-2,-3,17,16,16,-1,-2,-25
1501875742134560,6,38,-14,-9,14,12,6,0
1501875742134560,-4,-30,-5,-7,-42,-10,-4,4
1501875742135520,-3,-20,5,12,24,4,-1,-13
1501875742135520,1,2,17,12,2,-4,-3,8
1501875742156565,-2,-12,-24,-11,-19,0,-2,-6
1501875742156565,1,12,-8,-18,29,-1,3,9
1501875742157554,4,6,19,32,-14,-6,-1,21
1501875742157554,-1,11,-7,-22,18,4,-1,-13
1501875742171591,-2,-1,12,38,10,-3,-3,-6
1501875742171591,5,8,9,-25,-2,8,11,41
1501875742172520,-2,-12,-2,22,-12,-2,-5,-10
1501875742172520,-6,25,-2,9,12,-3,-8,-54
1501875742194555,3,13,1,-17,4,0,2,18
1501875742194555,-8,-53,-25,4,-5,-1,-1,-10
1501875742194555,-4,-6,22,4,-3,-4,-3,-2
1501875742194555,5,12,1,-3,-36,-7,2,28
1501875742216590,-13,-19,-3,3,28,2,-6,-12
1501875742216590,2,14,10,20,36,3,-5,-17
1501875742217555,5,37,-1,-27,-3,1,-2,1
1501875742217555,-6,-26,-8,9,2,1,4,16
1501875742231556,5,8,8,-15,-30,-4,3,-4
1501875742231556,1,15,6,41,26,-10,-4,16
1501875742232526,-5,8,-12,-31,-11,4,-5,-20
1501875742232526,-3,-49,-2,-3,17,2,3,6
1501875742254586,4,2,1,22,-13,-3,8,21
1501875742254586,-6,5,1,-18,12,4,2,-12
1501875742255526,5,7,-23,7,-4,-6,-10,2
1501875742255526,2,15,-7,-14,-11,1,1,3
1501875742276566,-2,-22,1,-2,-1,2,1,0
1501875742276566,3,6,-8,-3,-18,-3,4,17
1501875742277561,-4,-26,3,-12,13,-2,3,6
1501875742277561,-6,-49,5,7,-1,-4,-8,-17
1501875742291569,-6,-17,-35,-23,-35,-7,-4,5
1501875742291569,4,18,-5,-31,-5,-1,-5,-3
1501875742292549,4,19,5,-2,-19,4,7,15
1501875742292549,-1,-6,-4,3,18,-1,1,47
1501875742314599,0,18,17,-11,-11,-2,-6,-48
1501875742314599,-12,-24,-9,9,-3,-3,-5,-6
1501875742315530,1,10,3,11,-24,-7,3,-9
1501875742315530,3,28,-9,-4,44,9,6,10
1501875742336572,-2,-24,13,8,7,-2,-4,-8
1501875742336572,-2,15,-9,-1,-11,0,-2,5
1501875742337530,1,4,0,0,6,-5,-1,-4
1501875742337530,-13,-41,-12,-5,-20,-8,-5,-11
1501875742351573,4,19,6,-34,-15,4,2,12
1501875742351573,2,-5,14,-5,-15,-1,-2,-12
1501875742352530,2,-27,-3,-8,10,0,-2,6
1501875742352530,2,8,0,-6,-15,1,4,-14
1501875742374596,-2,-1,-1,8,27,0,-1,21
1501875742374596,-4,-9,-4,5,20,3,9,16
1501875742375533,-5,5,7,16,-36,-5,-10,-43
1501875742375533,9,33,-8,-28,-8,-8,-11,-16
1501875742396600,2,-4,-7,-41,0,1,2,16
1501875742396600,-11,6,13,0,-25,3,-1,-34
1501875742397534,0,-28,10,-8,9,-2,4,19
1501875742397534,-2,49,-8,22,39,2,0,-11
1501875742411576,3,-9,-24,22,-6,-4,-7,6
1501875742411576,9,-4,2,10,19,-1,2,-28
1501875742412534,-9,-16,-5,-32,-36,5,1,9
1501875742412534,-10,-39,14,35,16,-5,-1,-19
1501875742434553,13,19,14,-7,9,3,4,34
1501875742434553,3,-2,-5,16,-7,-5,-4,23
1501875742435535,-5,18,-2,-10,-25,-4,-6,-39
1501875742435535,0,-23,-5,5,36,2,5,39
1501875742456603,-13,-10,-6,3,23,-4,-12,-60
1501875742456603,-3,7,8,0,-6,2,1,-5
1501875742457537,8,14,2,81,23,-6,-2,36
1501875742457537,-1,-5,-13,-88,-23,6,-8,0
1501875742471556,-8,2,-3,14,-22,-5,3,-4
1501875742471556,-3,-5,-8,-33,-4,-5,-3,1
1501875742479579,5,10,-13,7,16,7,14,30
1501875742479579,7,40,37,32,-16,-6,-6,-25
1501875742494603,-8,-74,-9,11,9,1,-3,-8
1501875742494603,-4,10,-6,6,-12,-4,-2,0
1501875742495539,-4,-3,-8,-48,-10,-3,-3,7
1501875742495539,8,37,2,4,-10,1,2,-3
1501875742516581,-8,1,29,44,-2,-5,-1,-1
1501875742516581,4,12,-16,-29,32,11,3,-17
1501875742517573,-8,-20,-6,-5,-10,-5,-8,-3
1501875742517573,2,8,8,22,-1,-2,1,19
1501875742531560,7,12,-3,-34,-52,3,7,2
1501875742531560,-3,-18,1,24,41,-1,-3,1
1501875742539579,-3,1,3,-5,23,-3,-6,-2
1501875742539579,0,3,-5,-6,-13,4,4,-8
1501875742554619,-6,4,-3,-2,19,-3,2,7
1501875742554619,5,-13,-18,5,-50,0,-1,7
1501875742554619,0,-5,1,-13,32,5,0,-5
1501875742554619,-2,-7,9,10,-37,-8,0,13
1501875742576611,2,38,-3,-6,58,2,-2,3
1501875742576611,-2,-25,0,5,-1,-1,-2,10
1501875742577582,-1,6,-7,-9,5,0,-3,-19
1501875742577582,-2,-8,-20,-17,-31,-4,-2,3
1501875742591558,4,20,2,9,-21,-1,1,2
1501875742591558,2,-2,5,-1,4,2,2,17
1501875742599587,-6,-11,5,-8,-3,1,0,-31
1501875742599587,-4,-6,0,-14,10,-1,-2,-6
1501875742614615,-1,1,-9,1,-9,0,-6,-9
1501875742614615,5,24,11,4,1,-2,1,9
1501875742614615,2,-14,-2,18,10,-2,3,1
1501875742614615,-3,3,-10,-31,-34,-3,1,-1
1501875742636621,-4,-22,-1,10,14,3,-6,-14
1501875742636621,-3,3,8,11,-7,-1,-6,5
1501875742637581,5,8,2,3,27,7,0,9
1501875742637581,-2,-2,-19,-3,-1,-3,-1,-2
1501875742651548,-2,-18,-5,9,3,-1,2,0
1501875742651548,2,6,2,-25,-16,-1,-1,-1
1501875742659589,-10,-9,15,34,-6,-2,4,-2
1501875742659589,1,-6,-1,-10,6,0,-5,0
1501875742674624,-1,-6,-15,0,-7,0,2,8
1501875742674624,-4,11,-3,-47,2,-4,-3,-13
1501875742674624,4,-13,-4,15,20,-3,-5,-3
1501875742674624,-2,11,13,27,-8,4,7,2
1501875742696588,1,15,2,-8,-11,1,4,6
1501875742696588,4,-35,8,19,-15,-14,-9,-12
1501875742697584,-2,8,-4,-28,-24,2,1,12
1501875742697584,-2,-20,-12,-10,19,0,-1,-1
1501875742711565,0,0,13,23,-3,1,-5,-12
1501875742711565,-3,9,4,8,3,-5,1,8
1501875742719591,-5,-9,-18,-23,-2,2,-4,-12
1501875742719591,0,-25,-9,30,1,-2,-2,2
1501875742734602,3,31,1,2,-11,0,0,7
1501875742734602,-1,-15,5,7,-8,2,4,6
1501875742734602,1,0,4,-13,6,-4,-1,11
1501875742734602,-4,-7,6,9,27,8,0,-27
1501875742756623,-1,11,12,-22,-11,-4,0,-10
1501875742756623,4,2,-8,-10,10,1,0,7
1501875742757586,2,-4,-14,8,-8,-3,-4,16
1501875742757586,-1,3,3,6,-19,-3,-3,2
1501875742771557,2,46,10,21,51,-9,-3,5
1501875742771557,-6,-22,-8,-33,-2,17,3,-37
1501875742779556,-7,-9,6,18,-6,-5,2,9
1501875742779556,1,6,2,-11,-7,0,2,2
1501875742794630,-4,-20,-8,3,9,-3,-6,-5
1501875742794630,3,40,-4,13,5,1,3,16
1501875742794630,6,-4,6,7,-7,-2,-1,-8
1501875742794630,-6,12,6,-12,5,-3,-3,-27
1501875742816630,-1,-10,-7,-2,-21,1,-3,19
1501875742816630,-9,-25,-8,18,8,-8,-4,2
1501875742817566,1,-5,9,5,8,5,1,-11
1501875742817566,1,-4,-5,0,-14,-3,2,14
1501875742831568,3,-12,-14,-35,-9,0,4,-7
1501875742831568,-2,10,6,3,1,-2,-7,-19
1501875742839598,-1,24,-1,-28,-31,-2,2,8
1501875742839598,2,-14,0,1,2,-2,0,10
1501875742854602,-8,-25,-11,-1,18,1,-2,1
1501875742854602,4,25,2,-7,-30,-1,3,13
1501875742854602,3,17,10,32,19,-1,-1,1
1501875742854602,-3,-25,-9,-11,7,-1,-2,-23
1501875742876585,3,-12,-2,-21,1,4,0,6
1501875742876585,-10,-23,-6,9,5,-3,1,28
1501875742877593,4,28,-1,12,10,2,0,-2
1501875742877593,-1,6,4,7,-5,-2,-3,12
1501875742891577,3,-7,12,1,0,-5,1,-21
1501875742891577,-6,-1,0,-2,-6,-6,-3,0
1501875742899595,-2,-11,-24,-13,-2,0,3,-6
1501875742899595,-2,-1,-9,-3,0,-4,-3,7
1501875742914562,3,10,-9,-39,-29,-5,-3,-2
1501875742914562,2,7,4,16,21,1,1,-2
1501875742914562,1,-9,0,-10,-22,-4,-4,1
1501875742914562,-8,-4,3,8,15,-2,-3,-3
1501875742936634,2,-7,-10,3,-2,1,-1,8
1501875742936634,-2,19,5,-3,9,6,-3,-17
1501875742937565,2,1,-1,3,7,-2,-3,2
1501875742937565,1,15,-2,-2,-9,-6,-4,-3
1501875742951583,-5,-28,-5,0,-21,0,1,-8
1501875742951583,3,-8,-4,-9,-7,-3,-5,12
1501875742959608,-6,-6,-1,-4,-3,-2,-2,-18
1501875742959608,2,15,8,35,2,-3,-1,8
1501875742974580,-2,-14,0,-15,11,0,-2,2
1501875742974580,2,4,-3,-5,-37,-7,-1,-6
1501875742974580,1,3,-8,-11,28,2,5,11
1501875742974580,-6,-26,-1,-8,2,1,-5,-22
1501875742996632,-1,-4,-7,8,-4,-4,-5,-13
1501875742996632,0,-8,-1,1,-12,-4,-3,-3
1501875742997601,-2,8,9,8,-24,-10,-4,1
1501875742997601,6,11,-4,-35,54,14,11,30
1501875743012602,2,11,11,16,-9,0,-8,-30
1501875743012602,-1,1,1,6,11,2,0,3
1501875743019582,-5,-9,-23,-2,-23,-3,-1,-3
1501875743019582,-1,7,1,-5,-26,-3,-5,2
1501875743034610,3,-5,-1,7,20,2,1,13
1501875743034610,1,7,2,-20,-2,2,1,-6
1501875743034610,-2,-2,7,17,1,2,-1,-13
1501875743034610,2,-3,1,-18,-16,2,3,25
1501875743056611,-1,17,1,-3,-13,-4,0,-6
1501875743056611,0,-15,-16,2,22,2,0,-12
1501875743057606,-2,-1,2,-16,12,-4,-4,6
1501875743057606,3,16,3,25,16,-2,1,11
1501875743079615,-2,-21,2,-20,-15,-1,1,-10
1501875743079615,-7,-3,0,1,-36,-9,-1,1
1501875743080614,-2,-3,-2,-12,29,1,-3,-3
1501875743080614,1,20,3,28,-5,0,-3,-23
1501875743094616,5,8,0,-8,4,3,4,22
1501875743094616,-8,-9,-5,-4,-12,-6,-5,-11
1501875743094616,-1,-6,-1,-4,-4,3,1,5
1501875743094616,-3,-14,0,-14,-3,-5,1,-13
1501875743116576,-1,9,0,21,9,0,1,8
1501875743116576,1,3,0,-3,3,-2,-2,-1
1501875743117575,2,-1,3,-1,-9,1,0,3
1501875743117575,0,13,1,4,3,0,0,2
1501875743139622,1,-1,3,7,-1,-3,-3,-7
1501875743139622,-4,-18,-7,-2,-1,3,-1,0
1501875743140597,-1,0,4,9,-1,-4,-2,5
1501875743140597,-3,-14,-4,-1,9,5,-1,-25
1501875743154649,1,17,-1,3,2,0,1,7
1501875743154649,3,4,13,29,16,-1,0,-3
1501875743154649,2,-10,-3,-20,-31,2,-1,-7
1501875743154649,-5,-10,-17,-36,12,5,0,4
1501875743176587,-4,1,-4,10,-21,-5,2,3
1501875743176587,2,-5,9,-7,13,3,2,-5
1501875743177612,0,0,-11,18,-32,-6,-4,-4
1501875743177612,1,10,4,-9,19,-3,-5,6
1501875743199581,-2,-27,-12,-5,6,0,-3,-11
1501875743199581,5,27,12,36,-23,-5,1,15
1501875743200579,-4,-19,-10,-31,38,10,4,6
1501875743200579,-5,-18,-1,7,-30,-5,0,-6
1501875743214649,0,6,2,-14,22,-1,-5,-13
1501875743214649,7,17,-3,4,-9,-3,-1,12
1501875743214649,-5,17,8,9,4,-3,-2,-9
1501875743214649,5,14,3,29,7,-2,2,4
1501875743236622,-4,-48,2,-13,-18,1,4,18
1501875743236622,-6,10,-14,-15,15,4,0,-27
1501875743237591,5,-13,-2,-8,-16,-6,-5,36
1501875743237591,-11,-5,-8,6,27,2,-4,-39
1501875743259623,4,56,14,12,-20,-7,-3,-3
1501875743259623,-7,-58,-8,-14,6,-2,-5,-6
1501875743260592,10,25,13,5,-1,-1,8,17
1501875743260592,-8,-77,-5,0,-43,-6,-7,-2
1501875743274656,-7,22,-2,11,1,1,-2,-1
1501875743274656,3,17,-1,-18,16,-8,-2,3
1501875743274656,-2,-4,-9,-10,18,7,2,-19
1501875743274656,5,-8,7,-18,-30,-2,2,18
1501875743296599,-5,-8,-8,3,-9,0,-2,-5
1501875743296599,-3,32,9,5,24,3,1,1
1501875743297586,-4,-61,2,19,7,-3,0,-7
1501875743297586,0,8,1,-20,0,-2,-1,-5
1501875743319633,-2,-6,2,2,7,6,0,11
1501875743319633,2,15,-16,-21,1,-4,-7,-3
1501875743320618,5,44,3,0,0,-1,-2,2
1501875743320618,-1,-2,-4,3,-10,-3,1,-4
1501875743334623,-13,-36,-13,-5,-21,-4,2,-2
1501875743334623,0,19,0,-15,3,3,2,5
1501875743334623,-4,-41,-1,6,-9,-4,-3,0
1501875743334623,12,26,4,8,-20,-5,-1,-3
1501875743364655,-21,-22,-24,-23,13,-7,-9,-13
1501875743364655,2,3,3,22,5,2,1,4
1501875743365629,2,9,2,-16,4,6,5,-4
1501875743365629,6,9,3,-11,-13,-2,2,23
1501875743379631,-4,-40,2,-5,-26,-4,-1,-1
1501875743379631,-5,-26,-9,3,23,-5,-7,-7
1501875743380609,0,19,0,0,-1,-2,2,12
1501875743380609,-8,-4,-8,6,15,-2,-5,-28
1501875743394626,13,75,15,-9,-5,1,3,0
1501875743394626,-9,-96,-9,-15,16,3,1,-6
1501875743394626,-12,-6,-8,-3,-9,-6,-3,-7
1501875743394626,-2,23,-1,-3,-3,-2,-2,6
1501875743416630,4,2,3,38,31,1,0,4
1501875743416630,8,86,23,-12,-25,2,3,-9
1501875743417593,3,-11,-6,15,22,1,-2,-1
1501875743417593,-6,-37,-7,-30,-24,4,4,26
1501875743439634,6,16,-5,1,15,2,-1,9
1501875743439634,-4,6,7,4,5,-2,-2,-13
1501875743440603,-1,-6,-2,2,23,3,-1,-17
1501875743440603,5,2,13,10,-11,0,-1,-4
1501875743454640,-6,-30,-17,1,6,-5,-2,9
1501875743454640,1,4,-2,8,-25,1,3,3
1501875743454640,-7,-59,-9,-16,-22,-4,-6,1
1501875743454640,6,61,15,23,26,1,1,4
1501875743476658,6,-1,2,-8,-5,1,0,-12
1501875743476658,-4,-28,-9,-6,6,-1,-4,-4
1501875743477629,3,43,3,6,-6,-3,1,-6
1501875743477629,-2,-16,-8,-5,-8,2,2,5
1501875743499609,1,-3,11,17,26,1,3,-1
1501875743499609,1,12,-6,-8,-5,3,0,3
1501875743500596,3,19,7,4,-16,-2,-1,6
1501875743500596,-6,15,-2,7,7,-2,-5,-17
1501875743514657,-5,13,5,-17,-1,1,-2,-13
1501875743514657,-1,-29,-11,5,-23,-4,-2,6
1501875743514657,-4,41,6,3,-5,0,0,-7
1501875743514657,0,-45,-15,-4,-5,-6,-3,1
1501875743536672,-5,-4,4,0,-2,1,0,-8
1501875743536672,6,42,7,1,-32,-2,2,18
1501875743537636,-10,-71,-11,9,17,-3,-1,-17
1501875743537636,-10,8,-5,-16,0,1,-13,-34
1501875743559641,12,47,16,18,-29,-2,-1,-3
1501875743559641,-15,-80,-30,-43,45,-2,-1,16
1501875743560613,3,8,4,-10,-18,1,-8,-22
1501875743560613,2,-14,5,13,-1,-6,3,9
1501875743574603,-1,-13,-1,-4,-17,-5,-2,0
1501875743574603,1,26,8,-4,-24,-3,-2,-3
1501875743574603,1,-12,-10,2,16,3,3,7
1501875743574603,-1,-1,-4,0,14,2,-1,1
1501875743596645,-4,-14,-4,13,1,-3,-2,10
1501875743596645,0,4,1,-10,-26,2,2,-3
1501875743597636,-2,1,-3,4,9,0,-3,1
1501875743597636,6,14,8,-4,-9,0,2,0
1501875743619646,-1,-2,-5,-10,4,-1,-2,0
1501875743619646,1,-9,1,11,0,-4,-4,-5
1501875743620635,-1,32,-2,-7,-10,-5,-4,-6
1501875743620635,-1,-37,-2,8,4,1,3,7
1501875743633673,-6,-15,-10,-4,11,-2,-2,-1
1501875743633673,-2,-14,-3,5,-10,-1,0,0
1501875743641626,5,26,3,-3,11,0,-2,-3
1501875743641626,0,17,1,0,-4,-3,-2,1
1501875743656646,-1,-8,-5,-12,6,3,1,0
1501875743656646,-1,3,4,13,3,0,-1,-8
1501875743657640,-4,-5,-1,-15,-21,-4,-2,6
1501875743657640,2,22,-3,-4,10,0,0,4
1501875743679649,2,-22,3,-2,9,0,0,-4
1501875743679649,-2,-7,-2,8,10,4,-1,-4
1501875743680616,-3,-2,0,-2,-13,-4,0,-1
1501875743680616,-3,-3,-2,-1,-3,-3,-2,0
1501875743693636,1,19,0,-7,2,0,-1,-2
1501875743693636,5,0,3,9,3,-1,3,12
1501875743701649,4,1,-1,-5,-4,0,3,-5
1501875743701649,-4,0,-2,-2,-2,-2,-7,-18
1501875743716670,0,9,-3,-5,7,2,0,8
1501875743716670,-9,-29,3,3,0,-2,-4,-9
1501875743717642,2,-2,-1,-2,-14,0,1,9
1501875743717642,4,20,0,-1,13,-2,2,3
1501875743739653,-1,-8,-4,-1,-4,-2,-1,-4
1501875743739653,3,31,4,7,3,1,-1,0
1501875743740636,-2,-6,2,-4,-8,0,0,4
1501875743740636,0,-15,-2,22,9,-2,-1,22
1501875743753677,-3,5,-3,-18,10,10,-6,-51
1501875743753677,1,15,5,-3,-3,-1,0,-3
1501875743761653,1,-22,6,13,-3,-1,0,-15
1501875743761653,0,9,4,-10,-9,1,1,14
1501875743776654,-2,-8,-4,4,-6,-4,1,18
1501875743776654,-2,0,-4,-2,-2,-4,-2,-8
1501875743777648,0,12,1,3,3,-1,0,-2
1501875743777648,0,8,0,-4,-1,-1,2,-1
1501875743799656,2,-4,4,0,-17,-5,1,6
1501875743799656,0,17,0,4,3,-1,4,-10
1501875743800614,-4,-7,-4,23,13,-9,-4,22
1501875743800614,-2,-22,-17,-39,16,18,4,-28
1501875743813676,-4,-18,0,-3,6,-4,-3,-2
1501875743813676,-1,-17,-4,-10,-15,-2,3,12
1501875743821678,-4,4,3,7,-2,-3,-4,-25
1501875743821678,-1,12,0,2,-11,-4,0,-4
1501875743844629,2,-10,-1,1,-11,-2,-4,2
1501875743844629,-2,4,0,7,4,0,-5,13
1501875743845619,2,9,-1,-9,-20,-2,0,2
1501875743845619,-5,-15,3,10,24,-6,-6,-8
1501875743859628,3,1,-8,-21,16,8,-2,10
1501875743859628,1,6,1,9,-7,-3,-6,-1
1501875743859628,7,21,2,5,15,6,-1,19
1501875743859628,-12,-60,-3,-1,-53,-12,-5,8
1501875743873688,-3,13,-7,-8,23,-2,-4,-10
1501875743873688,-3,-11,-7,-14,4,0,-5,-8
1501875743881619,-3,-18,3,-3,-8,0,-1,-10
1501875743881619,6,31,7,14,-1,2,3,10
1501875743896689,0,0,2,0,-11,-4,1,8
1501875743896689,-1,9,-3,-2,-4,-1,1,-11
1501875743897655,0,-8,-4,-9,12,2,1,4
1501875743897655,-2,-2,-3,-3,-24,-6,-3,6
1501875743919632,0,-1,-1,6,21,0,1,-6
1501875743919632,-1,3,0,1,6,3,0,-4
1501875743919632,1,20,1,2,4,-1,-2,1
1501875743919632,-2,-16,-6,-11,0,2,0,-3
1501875743933662,2,-1,3,3,-21,-6,1,3
1501875743933662,-2,2,0,3,0,-1,1,0
1501875743941690,-6,-5,-5,-10,3,-2,-4,-6
1501875743941690,3,18,6,8,0,-1,3,-1
1501875743956690,-3,-10,-6,-2,-5,-2,1,7
1501875743956690,-2,-14,0,-1,3,0,-1,-3
1501875743957635,1,-9,-5,-5,-2,1,-2,-5
1501875743957635,0,13,-2,-2,9,-1,-3,-3
1501875743979661,5,27,6,13,-7,-2,2,1
1501875743979661,-6,-30,-6,-2,-2,-3,0,1
1501875743979661,-5,-5,-3,-8,-3,-2,-1,-1
1501875743979661,3,6,0,2,2,2,-1,-1
1501875744002659,-3,1,1,4,0,-1,-3,0
1501875744002659,2,0,0,-2,-5,0,-2,-3
1501875744003628,-2,1,-2,-3,-1,-1,0,-1
1501875744003628,0,-3,-2,-6,3,0,-2,-1
1501875744016667,-1,-4,0,-2,-9,2,1,1
1501875744016667,1,3,-1,-2,1,-1,-2,-3
1501875744017661,-1,-6,-1,1,1,-1,0,-2
1501875744017661,-1,3,0,-1,1,0,0,-1
1501875744039642,-1,-2,-2,0,-4,-1,-3,-2
1501875744039642,2,2,1,0,0,-4,-2,0
1501875744039642,-1,0,-3,-4,-1,0,-1,0
1501875744039642,-1,-6,-2,0,0,-1,-1,-1
1501875744062693,-2,5,2,0,-4,-1,-1,-2
1501875744062693,0,3,1,1,7,2,0,-2
1501875744063630,-3,-7,-3,-4,-5,-2,0,-1
1501875744063630,-2,-2,-3,-4,4,-2,1,-2
1501875744078642,1,8,2,3,-5,-3,2,-1
1501875744078642,-2,-1,-3,-3,-6,-2,-1,-4
1501875744078642,-2,-16,-1,4,15,-1,-3,-2
1501875744078642,-1,-2,-2,-6,-2,1,-5,0
1501875744099632,1,-2,0,-1,-1,1,-3,1
1501875744099632,1,6,1,-2,-10,-1,-3,1
1501875744099632,-1,2,0,-2,-7,-2,-3,-1
1501875744099632,-2,-4,-2,0,-2,-3,0,-1
1501875744122666,-3,0,0,0,-1,0,-1,0
1501875744122666,-2,0,-3,-2,3,0,0,0
1501875744123634,-1,-4,-2,-1,-3,0,-1,-2
1501875744123634,-4,0,2,2,1,-1,-5,-5
