timestamp,emg1,emg2,emg3,emg4,emg5,emg6,emg7,emg8
1501876276851371,-39,18,20,12,8,8,-1,22
1501876276851371,-19,-66,-7,6,-7,-6,-8,10
1501876276852338,6,88,81,-27,19,16,2,-12
1501876276852338,22,-44,-1,22,-7,-6,13,49
1501876276853355,19,33,-44,-74,-55,-8,14,-3
1501876276853355,-19,-21,-18,17,33,1,-17,35
1501876276856407,6,2,-8,8,-15,7,-12,0
1501876276856407,-24,-25,13,-19,11,4,-8,-42
1501876276863356,5,-22,10,41,6,0,7,41
1501876276863356,-3,29,19,-41,-28,-3,11,23
1501876276872376,-5,-128,-78,38,-16,-19,-9,-75
1501876276872376,3,88,15,0,14,8,-15,-1
1501876276878358,-3,-79,-6,43,17,-3,4,22
1501876276878358,6,77,1,-25,14,1,7,14
1501876276893401,8,-62,-27,-31,-18,-7,-9,63
1501876276893401,1,21,-21,-40,-36,-3,10,-1
1501876276901342,-29,-90,0,7,13,-9,-14,-2
1501876276901342,27,-1,23,26,44,14,11,36
1501876276916390,-19,-5,27,40,-21,-4,7,43
1501876276916390,27,80,15,-42,12,1,8,31
1501876276924346,47,16,-22,-35,4,11,2,21
1501876276924346,5,4,-12,-5,-20,-10,-4,-35
1501876276937387,16,113,15,23,-2,-13,-6,-34
1501876276937387,-7,47,28,31,32,21,-5,-46
1501876276980343,-4,34,40,-2,-10,-2,1,-9
1501876276980343,7,52,65,17,-17,-7,3,88
1501876276984383,6,74,-57,29,35,7,-3,-80
1501876276984383,3,-67,3,-41,2,-8,1,21
1501876276984383,7,11,-9,55,31,10,-7,10
1501876276984383,5,44,-15,-15,-16,-6,4,33
1501876276985344,19,-16,50,12,-19,-4,-8,-7
1501876276985344,-34,11,-50,-4,-6,-3,-4,-1
1501876276990363,13,88,57,8,6,-5,3,28
1501876276990363,-32,-80,-44,6,12,7,2,-10
1501876276997411,15,54,36,-10,-15,-5,-3,16
1501876276997411,-1,8,-10,57,-14,2,-3,-14
1501876277005377,22,-27,-7,-17,19,-9,0,19
1501876277005377,-1,-17,24,23,9,8,-10,-69
1501876277020384,0,-39,2,-8,8,5,11,46
1501876277020384,3,39,36,-3,-37,-7,1,-10
1501876277027412,-1,84,33,77,20,-5,-7,-15
1501876277027412,1,-25,-58,-49,41,19,1,-18
1501876277051359,-17,-50,-34,33,-26,-8,-7,-2
1501876277051359,19,54,25,-58,16,3,6,23
1501876277052380,-4,18,-34,28,-37,2,5,-2
1501876277052380,19,37,46,-9,14,-3,10,53
1501876277067387,-27,-52,23,-5,-1,1,-11,-18
1501876277067387,53,95,29,3,-7,3,12,30
1501876277068361,-55,-126,-53,-4,-23,-13,-4,-60
1501876277068361,2,23,-1,29,15,-1,-1,-36
1501876277088350,16,11,-6,-34,-11,-4,-1,60
1501876277088350,-9,84,19,0,-12,-14,-14,-59
1501876277089351,8,-47,51,12,46,25,10,24
1501876277089351,-1,24,-31,6,-23,-10,0,24
1501876277111393,-11,22,37,12,-2,-1,-1,-33
1501876277111393,1,-45,-55,55,7,-2,4,27
1501876277112361,1,-10,-43,-107,-34,-8,-10,4
1501876277112361,-3,-24,-1,24,19,2,0,-14
1501876277126369,-12,11,42,-16,-23,-2,9,29
1501876277126369,4,-54,-37,-18,17,12,2,16
1501876277126369,-19,-9,-25,24,-34,-15,-11,-23
1501876277126369,2,-35,18,-33,2,-5,-12,-8
1501876277148390,0,-31,-39,-25,14,-3,-4,32
1501876277148390,-29,-4,42,102,12,2,2,-24
1501876277149365,32,2,-28,-52,3,-4,0,-12
1501876277149365,-11,60,-32,-42,-47,-4,-9,-10
1501876277171420,-4,-12,-16,-5,18,-3,-2,-53
1501876277171420,-13,-75,-8,-2,-1,3,-7,32
1501876277172390,18,28,-6,5,1,4,9,22
1501876277172390,4,22,74,50,-9,-12,-7,-32
1501876277185399,-9,-25,37,17,15,10,4,-10
1501876277185399,8,56,-31,-73,-2,-3,-5,-2
1501876277186393,1,-64,17,-30,-2,4,4,19
1501876277186393,3,-3,-32,-12,-5,-8,1,19
1501876277208398,-3,25,-34,36,6,3,8,42
1501876277208398,-2,45,43,-7,-4,-5,-8,-42
1501876277209369,-21,-10,28,-2,-9,-2,-3,3
1501876277209369,14,60,8,26,18,5,2,-18
1501876277232386,-10,-31,-53,-68,-1,-9,-9,11
1501876277232386,7,-31,11,73,-14,-6,6,18
1501876277232386,-8,-14,6,-79,-16,4,2,-23
1501876277232386,-1,-11,-47,39,11,10,-2,14
1501876277246390,-1,9,34,-14,-37,-4,-1,-15
1501876277246390,0,-9,-27,-17,30,4,1,-8
1501876277246390,6,-23,-5,27,-2,-8,1,7
1501876277246390,-19,-104,-2,-14,-4,-4,1,20
1501876277268425,30,64,20,5,-2,-1,7,23
1501876277268425,-13,-68,-3,53,-12,0,-17,-64
1501876277269372,11,69,-6,51,24,7,8,3
1501876277269372,-3,-5,19,-38,-19,2,-1,8
1501876277291427,-13,34,-13,16,-3,-4,-3,-31
1501876277291427,-2,-71,5,-54,4,-7,8,33
1501876277292390,-1,-32,-59,-12,12,7,0,16
1501876277292390,9,38,32,16,2,1,2,-6
1501876277305423,9,-21,18,-1,-7,-4,2,34
1501876277305423,-17,-50,-41,11,-9,-7,-17,-39
1501876277313403,-12,23,10,-2,-3,3,1,16
1501876277313403,2,-18,-21,-22,5,-11,-9,-28
1501876277328403,1,-44,51,82,32,11,5,-13
1501876277328403,2,37,-35,-81,-4,3,5,20
1501876277329377,9,46,29,1,-45,-16,-5,55
1501876277329377,0,34,-9,0,26,11,-3,-73
1501876277351432,4,8,-42,-7,12,0,3,6
1501876277351432,15,68,42,21,-3,5,12,34
1501876277352398,-26,-36,5,61,4,-6,-13,-88
1501876277352398,9,6,-19,-69,-39,-15,1,70
1501876277365373,2,26,-7,9,15,-3,-13,-42
1501876277365373,-6,-12,31,5,-2,4,10,17
1501876277373434,-8,37,5,-26,19,1,-13,-15
1501876277373434,-10,-40,-22,27,-3,3,0,-10
1501876277388410,7,-6,-5,-12,2,-6,1,13
1501876277388410,-10,2,4,24,0,-2,-4,0
1501876277389367,8,78,-24,-83,-29,-10,4,-3
1501876277389367,-17,-87,43,20,17,4,-3,16
1501876277411427,-2,31,-49,-28,-16,4,-2,-4
1501876277411427,-1,2,10,-10,-10,-7,9,44
1501876277412402,2,13,18,52,45,18,-4,-13
1501876277412402,-5,7,-16,-6,-7,-6,-2,-19
1501876277425368,-8,-17,-24,-53,-24,-12,-3,1
1501876277425368,24,9,39,17,19,1,7,32
1501876277433411,3,-11,1,-6,-23,4,2,-9
1501876277433411,-5,15,24,76,30,1,0,-2
1501876277448404,-1,31,11,-12,-7,11,-3,-23
1501876277448404,2,-51,-35,6,-4,-3,1,-6
1501876277449383,-9,-2,-34,-60,-35,-15,-12,5
1501876277449383,6,7,3,32,24,4,2,-14
1501876277472409,8,25,9,34,-1,-4,10,57
1501876277472409,-7,10,14,4,16,10,-3,-29
1501876277472409,-4,-5,-9,5,-6,-7,-8,-37
1501876277472409,-5,-2,-2,-32,-13,-9,0,-5
1501876277485436,-7,12,-17,-15,3,4,-2,-8
1501876277485436,16,12,16,-47,-22,1,7,6
1501876277493437,-3,-30,-20,36,31,0,-5,-18
1501876277493437,9,23,18,-4,-9,0,5,32
1501876277508429,1,-28,-25,-23,5,-5,-13,-49
1501876277508429,-24,29,12,-3,0,-5,-8,3
1501876277509387,-5,-36,1,21,-23,-3,11,-5
1501876277509387,8,-30,10,-33,17,9,-8,0
1501876277531375,-17,-47,5,24,-23,-16,-8,-7
1501876277531375,0,-8,-27,19,35,14,1,17
1501876277532425,-8,38,27,5,-10,1,-3,-19
1501876277532425,11,1,6,5,1,-2,10,64
1501876277545443,7,-16,2,-26,-18,-1,1,-12
1501876277545443,-6,20,-32,16,-1,-6,-11,-9
1501876277553441,-13,-21,72,60,15,3,15,24
1501876277553441,-3,-10,-52,1,-33,-12,-19,-65
1501876277568436,5,54,26,-22,15,14,5,12
1501876277568436,-9,-46,-40,34,-13,-8,-13,-57
1501876277569389,7,6,16,-5,3,8,10,30
1501876277569389,-4,9,-33,-13,-15,-11,-1,3
1501876277591436,4,18,14,5,-28,-8,-2,-7
1501876277591436,12,30,57,-36,29,8,3,18
1501876277592412,3,-11,-36,18,21,4,2,25
1501876277592412,-6,-8,24,-29,-25,-9,1,-12
1501876277605447,-10,-21,2,21,15,-1,-6,12
1501876277605447,-8,-4,-42,-17,-14,-11,-2,-7
1501876277613417,5,-33,0,-4,15,-1,-4,-26
1501876277613417,9,73,11,12,-30,-2,3,15
1501876277628439,11,29,-4,-15,65,14,2,1
1501876277628439,-4,-32,4,18,-25,-6,-5,6
1501876277629395,4,3,-10,-38,-7,0,-1,34
1501876277629395,-8,41,-3,6,-9,-4,5,-8
1501876277651443,-7,-74,18,19,-10,1,-1,-30
1501876277651443,2,26,-15,-29,-10,0,0,6
1501876277652411,27,13,-4,35,23,7,14,52
1501876277652411,-38,-10,3,-6,-16,-7,-20,-43
1501876277665415,-8,-12,-11,31,-8,-8,-2,20
1501876277665415,10,16,33,-23,0,-4,-2,-6
1501876277673394,-5,-12,18,-23,35,11,1,6
1501876277673394,-3,-7,-26,-21,-3,2,-1,-50
1501876277688446,-3,0,-9,45,4,-6,4,14
1501876277688446,7,-31,-1,-32,-60,-4,-6,-5
1501876277689421,-13,-42,14,-57,28,-4,-13,-35
1501876277689421,16,-12,20,35,27,1,9,39
1501876277711385,-14,-1,-43,-45,-24,4,5,-3
1501876277711385,15,11,2,37,18,0,4,-6
1501876277712384,10,38,-9,38,-35,-18,-17,4
1501876277712384,2,-19,25,-47,24,15,11,35
1501876277734386,-10,-22,-1,-17,0,-5,-4,-33
1501876277734386,-1,31,4,-8,1,2,1,14
1501876277734386,-1,-35,-28,24,11,3,2,2
1501876277734386,-9,-20,-2,-2,-7,-7,-15,-33
1501876277748387,17,30,37,6,-10,-2,3,6
1501876277748387,-18,-18,-20,12,-6,-4,-1,-19
1501876277749388,-8,15,10,-35,-21,-14,-6,13
1501876277749388,-1,-6,-40,-39,23,2,-7,7
1501876277771428,5,22,12,-11,-9,9,5,7
1501876277771428,-29,-29,-41,-8,-6,-9,-19,-50
1501876277772401,9,21,5,2,16,12,8,-31
1501876277772401,5,30,24,44,-25,-11,7,4
1501876277794409,-10,-23,-91,-16,-23,-9,-7,4
1501876277794409,13,2,-13,-40,-2,-3,2,4
1501876277794409,6,36,28,51,22,1,7,91
1501876277794409,10,-47,13,-6,8,15,8,-1
1501876277808450,0,17,-35,35,19,1,-12,-38
1501876277808450,-8,-11,51,42,7,6,3,-15
1501876277809401,-6,-23,-28,-6,-46,-11,-5,46
1501876277809401,1,7,-9,26,-12,-11,-7,-69
1501876277831425,-12,-4,13,-63,12,5,9,49
1501876277831425,-2,58,26,4,8,0,-10,-21
1501876277832417,11,-44,-39,-54,-17,-9,4,71
1501876277832417,-23,7,14,53,-44,-6,-20,-49
1501876277854406,29,67,62,67,78,11,10,38
1501876277854406,-11,-21,-23,-90,-34,-10,-10,7
1501876277854406,0,-24,-21,9,3,6,14,17
1501876277854406,-6,3,-20,-38,0,-3,0,-15
1501876277868457,-3,-1,31,-36,-33,-7,-8,-36
1501876277868457,11,17,-7,-6,34,11,9,0
1501876277869396,-16,-8,-31,9,-30,-6,-7,-88
1501876277869396,21,36,-8,4,12,-5,0,93
1501876277891443,-5,-38,9,33,-7,4,-1,-66
1501876277891443,7,-3,40,60,5,2,9,44
1501876277892425,-2,34,-38,-87,16,-2,-13,-31
1501876277892425,-11,-26,-11,26,-8,0,10,-2
1501876277914413,-1,-20,0,-12,28,1,2,10
1501876277914413,0,7,24,49,-24,-9,-11,-5
1501876277914413,7,24,17,30,-20,-1,-6,-37
1501876277914413,-4,-24,1,-10,10,9,12,18
1501876277928441,-7,-12,13,42,15,-6,0,-8
1501876277928441,0,32,-58,-93,-42,-5,-3,-5
1501876277929411,10,1,-8,4,36,4,7,94
1501876277929411,-15,-24,-11,-22,3,5,-6,-71
1501876277950432,2,-28,22,16,-23,-9,5,19
1501876277950432,-3,14,-5,21,-2,7,5,21
1501876277959413,4,-16,42,24,18,-2,-5,-46
1501876277959413,-11,-25,-11,-10,1,2,-6,30
1501876277974419,-1,34,-25,-68,-32,-6,-2,25
1501876277974419,-9,-55,-22,17,12,2,7,4
1501876277975402,-4,-2,1,-85,-20,-4,-5,-55
1501876277975402,-12,3,1,118,-6,-10,-5,-29
1501876277996465,4,1,3,-27,-10,8,-6,2
1501876277996465,15,25,13,17,25,-2,-2,17
1501876277998414,-14,-43,-20,78,-9,-1,2,-40
1501876277998414,10,26,2,-36,-17,-2,-5,5
1501876278010442,-2,-9,-3,32,9,-4,1,45
1501876278010442,-1,9,9,0,2,1,0,-62
1501876278019416,2,-14,5,17,12,-1,3,53
1501876278019416,16,21,14,21,5,1,4,-4
1501876278034422,7,-16,28,34,-6,1,8,81
1501876278034422,-15,-48,-25,-18,14,-11,-6,-64
1501876278035415,-7,34,18,30,2,12,-10,-23
1501876278035415,11,3,-14,-15,8,-1,6,96
1501876278056443,-17,-24,-26,-35,-7,-1,-11,-60
1501876278056443,1,-5,6,-31,-26,-5,4,37
1501876278058405,-3,25,2,-11,-3,-5,-4,-44
1501876278058405,14,7,25,-16,-1,5,2,15
1501876278070447,-8,-24,-37,68,20,-5,0,17
1501876278070447,6,20,39,41,-6,-5,-5,-14
1501876278079418,-18,-57,-16,14,5,-1,7,28
1501876278079418,7,-5,11,-32,10,2,-2,-45
1501876278094434,7,30,-28,-86,2,5,6,21
1501876278094434,-5,7,-8,1,25,1,-5,-20
1501876278095409,0,-13,28,20,-19,-11,-7,7
1501876278095409,-7,14,-16,-19,9,3,-4,-29
1501876278116482,1,-37,-11,26,-35,-16,-9,-27
1501876278116482,-9,9,-4,9,11,7,-1,38
1501876278118444,17,45,44,-13,-9,6,8,17
1501876278118444,0,-40,-20,10,16,-4,3,38
1501876278130450,-5,10,-10,-8,-18,-1,-6,-28
1501876278130450,-3,-7,-11,-31,-15,-2,-2,-55
1501876278139422,5,43,-2,83,-37,-5,-3,-4
1501876278139422,-2,-22,28,53,28,10,7,10
1501876278154410,-10,-6,-43,-3,-3,-1,-11,-2
1501876278154410,1,-17,4,-20,-23,-8,3,43
1501876278155411,8,15,22,42,27,2,-4,-22
1501876278155411,-19,-43,-53,-51,-30,-11,0,88
1501876278176424,8,19,46,34,-3,3,-2,-5
1501876278176424,-9,-32,-10,52,10,1,4,26
1501876278178413,-8,7,-31,-79,-12,-7,-10,-8
1501876278178413,17,14,20,2,1,-1,5,-7
1501876278190449,-12,-16,24,-1,11,-8,-10,-12
1501876278190449,6,19,-7,-2,-13,1,7,26
1501876278199429,-2,-5,-18,-23,-26,-1,-5,-56
1501876278199429,1,-2,18,27,26,-9,-1,25
1501876278214431,6,-4,-8,-64,15,4,-2,-12
1501876278214431,-4,4,-1,15,10,4,-8,-59
1501876278215416,-6,-42,9,4,-20,-1,2,-3
1501876278215416,1,30,22,5,16,5,9,3
1501876278236482,8,-9,-10,-23,-37,-10,-7,-32
1501876278236482,8,20,12,6,16,0,-1,24
1501876278238427,2,-28,-21,-67,20,10,14,32
1501876278238427,-17,17,-5,-18,-9,-10,-16,-51
1501876278259434,-10,-4,22,95,9,5,4,-9
1501876278259434,12,3,0,-22,-5,-3,-4,29
1501876278260418,-17,11,-46,-24,-6,6,-8,-31
1501876278260418,0,-5,25,-58,-3,-5,1,56
1501876278274429,6,30,-6,-24,-7,-1,-1,-67
1501876278274429,-10,-20,-9,13,-1,-5,-5,-35
1501876278275432,0,-9,35,8,-16,-8,-3,-14
1501876278275432,6,-3,-55,-45,-15,0,5,26
1501876278296486,5,23,23,36,0,-1,2,-12
1501876278296486,7,-9,10,-58,6,3,9,47
1501876278298421,-1,17,5,26,36,5,-2,-12
1501876278298421,1,8,15,47,-27,-1,-5,-3
1501876278319433,6,6,-16,-32,7,-1,3,25
1501876278319433,0,-17,-46,-9,15,9,3,12
1501876278320421,-2,-16,-14,-13,-20,-13,2,49
1501876278320421,-4,-1,6,20,-4,-1,-7,-23
1501876278334438,1,-18,37,19,1,1,5,-22
1501876278334438,-7,-23,-20,-71,-9,0,4,27
1501876278335421,-1,20,2,32,-4,3,4,-20
1501876278335421,-1,-9,-11,5,3,-1,-7,-16
1501876278356491,5,20,20,1,20,5,6,37
1501876278356491,-5,-6,-46,35,8,-11,-10,-4
1501876278358436,3,-8,-2,16,0,7,2,25
1501876278358436,-2,21,5,4,-20,-6,4,-50
1501876278379424,-4,0,-3,56,28,3,-5,6
1501876278379424,-10,-19,27,9,-14,-1,4,13
1501876278380434,13,16,28,11,-15,-10,0,60
1501876278380434,-10,10,-23,8,12,1,-11,-106
1501876278393493,-2,-8,-2,18,7,8,8,36
1501876278393493,5,26,-11,29,-14,-5,-10,-36
1501876278400453,-10,20,20,-33,7,-6,0,2
1501876278400453,7,1,-5,-2,-16,2,-3,42
1501876278416470,-4,-5,-1,-48,9,-3,2,4
1501876278416470,-1,-6,10,43,1,6,-2,-33
1501876278418426,5,0,-6,8,33,0,3,-2
1501876278418426,-5,9,23,-6,-11,-3,-11,-29
1501876278439446,-11,-41,-73,-82,-24,-9,-3,-5
1501876278439446,6,31,10,33,23,1,-8,-1
1501876278440429,-5,-8,-5,-8,-8,-4,-4,-6
1501876278440429,10,-9,-7,-8,-2,0,11,22
1501876278453500,4,14,15,24,-21,-1,1,38
1501876278453500,-8,4,-25,-18,10,-2,-8,-44
1501876278460466,0,-14,19,-23,-19,0,4,-5
1501876278460466,-4,-10,-27,33,-2,-3,-2,11
1501876278476471,-4,32,37,-4,38,15,-1,-27
1501876278476471,7,-16,5,-5,-37,-6,8,61
1501876278478442,-4,-4,-4,-14,12,-2,-6,-31
1501876278478442,1,3,15,-29,24,1,-1,-15
1501876278499452,13,33,13,61,-15,-6,0,70
1501876278499452,-8,-42,0,-46,5,2,1,-11
1501876278500432,-7,-17,1,14,1,3,3,26
1501876278500432,5,8,-4,-37,-8,-7,-4,-6
1501876278513503,-12,-9,-26,-11,-16,-4,-8,-45
1501876278513503,9,19,43,94,17,1,2,18
1501876278520506,-9,-9,-55,-52,-4,-5,-7,-9
1501876278520506,-3,-5,22,-7,-2,10,5,-4
1501876278536501,-2,-38,10,-1,-17,-4,-5,9
1501876278536501,-4,-2,19,-2,13,-7,1,-2
1501876278538446,2,2,-21,2,-29,6,7,-16
1501876278538446,4,-36,-10,-25,40,-2,3,67
1501876278559446,13,13,10,-25,0,-4,5,-16
1501876278559446,-6,9,-3,3,-43,-7,-14,1
1501876278560436,6,-2,31,36,27,-2,-3,2
1501876278560436,-11,16,10,-8,-6,10,2,-47
1501876278573477,1,10,-40,18,-25,-8,1,39
1501876278573477,3,-11,12,-8,14,-8,-4,-20
1501876278580436,-2,-9,3,1,18,13,-2,0
1501876278580436,1,4,2,46,10,4,2,17
1501876278596471,0,6,27,-1,2,2,2,2
1501876278596471,-4,6,-7,15,-5,1,0,-43
1501876278598440,0,-3,-2,-22,3,-5,-6,17
1501876278598440,3,4,6,-8,-12,-1,4,4
1501876278619462,-1,-13,-5,-2,0,5,-3,-20
1501876278619462,1,9,-27,-3,7,1,4,21
1501876278620448,2,27,30,20,34,-4,-8,-31
1501876278620448,-7,-28,-7,-28,-20,1,1,17
1501876278633478,3,19,0,8,25,3,11,10
1501876278633478,-20,-31,5,-30,-26,3,-9,-6
1501876278640486,15,17,-2,12,-9,-13,-4,8
1501876278640486,-5,-3,-6,36,1,-1,3,21
1501876278656441,-14,-30,-13,-71,-1,-1,-7,-4
1501876278656441,-5,11,7,-17,-13,-1,-2,-18
1501876278658443,5,10,-21,-4,5,3,1,-34
1501876278658443,0,-28,-25,-2,-16,-2,-1,12
1501876278686487,-2,11,10,1,-18,-6,6,35
1501876278686487,5,1,13,25,-26,-7,2,-33
1501876278688445,-11,-23,-29,-55,31,8,-4,23
1501876278688445,12,28,50,79,3,-1,-1,-6
1501876278693481,-8,-36,-48,-7,2,-4,-11,-31
1501876278693481,11,17,-17,-42,-1,2,13,65
1501876278700487,-16,-13,5,-10,-36,-8,-11,-48
1501876278700487,-5,15,-2,10,18,-3,-7,-25
1501876278716489,-1,-12,-16,-20,-9,-3,1,11
1501876278716489,4,19,15,11,12,4,3,30
1501876278718444,6,6,5,10,-22,-2,5,19
1501876278718444,-9,-7,-10,-3,13,-2,-7,-39
1501876278739458,-7,5,4,-36,-15,-3,-4,-23
1501876278739458,1,-22,-29,-58,-3,3,1,-8
1501876278740445,9,16,15,15,-23,2,3,58
1501876278740445,-1,-28,-48,-36,14,3,2,1
1501876278752495,0,-2,25,37,2,-6,-1,2
1501876278752495,2,14,10,-3,-7,-1,2,-9
1501876278761462,-20,-43,2,-7,27,-1,-7,-46
1501876278761462,-3,3,-15,-8,-16,2,-4,22
1501876278776480,2,-6,12,22,6,4,5,-35
1501876278776480,-6,-11,4,-21,0,-1,-10,-14
1501876278778459,-11,24,0,39,-6,-6,0,-5
1501876278778459,-6,-2,-2,-21,-13,-9,-1,-9
1501876278799448,4,17,-4,2,21,1,-1,-1
1501876278799448,-4,16,2,42,-1,1,1,1
1501876278800460,7,-25,26,-30,9,-2,2,17
1501876278800460,-5,-10,-17,-26,-6,-3,-5,-5
1501876278812514,-1,15,14,64,-33,-7,-7,-27
1501876278812514,4,-9,-30,-39,10,1,5,23
1501876278821456,9,15,-4,0,11,4,9,32
1501876278821456,-14,-12,-14,-3,5,0,-7,-45
1501876278836516,12,19,46,21,16,4,-2,-12
1501876278836516,-4,-22,-41,-7,22,4,3,-4
1501876278838465,-2,0,11,32,-27,-3,0,28
1501876278838465,6,21,17,-17,-6,-7,0,26
1501876278859511,-5,10,-11,22,-15,2,-2,-8
1501876278859511,3,-35,28,-11,19,5,9,18
1501876278861485,-12,-1,-43,-11,-16,-15,-16,-51
1501876278861485,6,-1,23,22,-1,10,1,15
1501876278872510,-1,2,-15,-18,6,-2,-3,0
1501876278872510,-4,-3,8,12,7,-8,-9,5
1501876278881491,-6,-2,1,15,-6,0,3,-9
1501876278881491,1,8,-20,6,-30,-6,-4,-47
1501876278896490,-8,7,3,-20,5,-3,-6,10
1501876278896490,-2,-10,-24,-14,4,-3,-2,4
1501876278898478,18,37,11,-14,-13,0,11,14
1501876278898478,-19,-3,12,-17,-5,-1,-17,-9
1501876278919474,1,-20,1,32,-3,-6,2,33
1501876278919474,-4,0,27,27,-27,-5,-8,-38
1501876278920456,-9,-13,-44,-4,29,5,-3,9
1501876278920456,15,19,8,-3,-13,-2,17,5
1501876278932499,3,3,-6,-19,13,-3,-10,-14
1501876278932499,-2,5,24,49,7,5,2,-8
1501876278941477,-1,-14,11,25,12,1,0,-7
1501876278941477,2,-1,-6,-17,-6,-4,9,22
1501876278956527,1,0,-14,-5,6,3,2,16
1501876278956527,-2,16,13,-16,-12,3,-1,-12
1501876278958457,3,-9,-7,10,9,2,3,18
1501876278958457,-1,3,-12,8,-46,-13,-9,-8
1501876278978469,-9,-24,-19,-10,62,16,3,-12
1501876278978469,14,42,22,16,43,6,18,58
1501876278980491,-18,-27,-38,-4,-4,-7,-17,-60
1501876278980491,1,0,10,15,-13,2,0,14
1501876278992518,4,8,-4,-41,-17,0,-1,-14
1501876278992518,0,-8,19,7,-8,-10,4,21
1501876279001491,3,5,-30,-9,-24,4,5,8
1501876279001491,6,28,36,-3,-1,-4,0,26
1501876279016502,-5,8,14,12,30,0,-3,5
1501876279016502,4,-14,-17,12,-23,8,7,-31
1501876279018469,6,16,9,-19,16,-2,4,13
1501876279018469,-4,-19,7,-3,17,1,-13,-45
1501876279039472,-1,2,12,2,-42,-10,2,10
1501876279039472,-7,8,0,-8,6,-9,-14,-18
1501876279040462,-14,-59,-9,30,-22,2,-4,-19
1501876279040462,10,31,3,5,10,-7,-2,15
1501876279052497,1,-12,-14,-38,7,-3,0,-15
1501876279052497,-16,-36,-7,6,13,3,-9,4
1501876279061465,4,21,23,-21,-32,-6,0,23
1501876279061465,-3,-14,-12,35,54,14,6,-24
1501876279076530,-6,-24,-25,-14,-68,-19,-7,24
1501876279076530,9,22,-23,-60,6,1,2,-3
1501876279078465,-7,-6,16,-16,-5,-6,-14,-15
1501876279078465,-10,-12,0,27,-18,-8,-8,-5
1501876279099485,7,39,0,-17,11,10,13,11
1501876279099485,0,-43,29,27,-14,-7,-14,-9
1501876279100466,-4,9,-53,-40,44,5,-1,-8
1501876279100466,0,8,6,6,-21,1,1,-49
1501876279112533,4,-26,-8,63,31,2,-2,15
1501876279112533,5,40,-22,-62,-8,-1,0,31
1501876279121514,2,-24,24,13,-26,-7,5,17
1501876279121514,-4,-18,-8,-17,30,3,-2,2
1501876279136514,8,11,-6,10,-2,6,-1,20
1501876279136514,2,33,6,34,-18,2,6,1
1501876279138472,10,14,-4,1,-1,8,7,47
1501876279138472,-15,-49,4,-4,-14,-9,-13,-4
1501876279159479,-2,-26,-18,-7,2,-1,-2,-20
1501876279159479,2,17,-21,25,24,2,-1,9
1501876279160479,-12,-1,20,24,-32,-5,-9,-50
1501876279160479,10,26,14,-33,2,-1,12,32
1501876279181472,-7,-2,-6,-80,7,1,-3,-41
1501876279181472,-12,-35,-5,24,-68,-6,-10,23
1501876279183470,5,12,28,-6,82,1,6,16
1501876279183470,10,11,-36,-22,-34,1,5,3
1501876279196483,-4,6,34,61,21,-3,2,-12
1501876279196483,-2,4,-3,-8,-14,-1,2,-44
1501876279198471,4,2,14,-10,21,7,6,-3
1501876279198471,1,1,8,-2,-4,-3,-7,-2
1501876279219473,1,-9,-33,-37,-40,-6,4,47
1501876279219473,-3,10,18,7,51,-1,-8,-69
1501876279220474,-5,9,26,29,-46,-1,4,29
1501876279220474,-4,-46,-36,-14,22,6,-3,10
1501876279241488,-9,-6,-9,0,-24,-5,-5,-6
1501876279241488,9,-3,18,23,-7,-2,7,45
1501876279243475,-1,0,-4,12,23,-2,-11,-75
1501876279243475,3,5,14,15,10,3,9,37
1501876279255478,-20,-11,2,29,6,-5,-13,-49
1501876279255478,9,-10,9,9,14,4,2,27
1501876279264475,1,23,-26,-28,-20,-6,-7,9
1501876279264475,6,1,-19,-68,-17,1,10,27
1501876279278533,-2,-12,15,1,-5,-11,-11,-22
1501876279278533,-16,21,-12,6,33,4,-7,-19
1501876279280509,3,-14,6,-1,17,0,-1,14
1501876279280509,-9,-3,6,43,-11,-4,0,1
1501876279301510,3,4,-5,3,-23,9,6,15
1501876279301510,-2,5,-9,16,29,-5,1,-3
1501876279303513,-5,-17,-28,-46,-17,-6,0,-4
1501876279303513,0,-4,8,-24,-19,-5,-6,4
1501876279315518,2,12,2,-20,-1,3,1,5
1501876279315518,0,-1,13,2,-9,-1,7,19
1501876279322521,2,-1,4,35,-4,-3,-4,16
1501876279322521,5,-20,-13,20,-2,3,1,12
1501876279338553,1,5,-7,-16,22,-5,0,-3
1501876279338553,-7,-4,5,-2,4,5,3,28
1501876279340512,-8,-15,-12,-7,-40,-4,-3,6
1501876279340512,3,24,25,5,13,0,2,6
1501876279361522,2,15,17,11,-3,-1,-5,-37
1501876279361522,8,-12,-22,13,-3,-6,5,37
1501876279363485,-6,-31,-13,-36,-17,-2,-1,-9
1501876279363485,-9,9,1,6,5,-2,-9,-29
1501876279384501,5,-3,-4,-8,-7,0,13,37
1501876279384501,-9,21,-2,15,-14,-8,-22,-74
1501876279385483,0,-23,1,21,-18,-2,-4,-8
1501876279385483,0,1,-15,-14,34,0,0,22
1501876279398559,-15,-22,9,-2,17,4,1,-24
1501876279398559,-3,5,2,-39,-19,-6,5,22
1501876279400516,4,3,32,42,-13,-3,-4,-5
1501876279400516,-1,8,-40,-28,-2,-1,0,9
1501876279421547,-2,-15,1,8,3,-1,-4,-12
1501876279421547,-1,-16,-15,-4,21,2,-4,-23
1501876279423485,-4,13,7,-24,-18,-3,-1,-1
1501876279423485,5,8,11,14,14,0,3,17
1501876279435486,7,34,14,8,3,5,-2,17
1501876279435486,1,-32,-26,-3,-6,6,6,-5
1501876279442558,0,4,-20,-20,13,3,5,28
1501876279442558,-8,10,12,6,-52,-10,-6,-28
1501876279458525,2,-22,6,-3,43,2,-3,-23
1501876279458525,2,15,8,-28,-8,-2,-3,-2
1501876279460519,-6,-1,-13,31,11,-6,-10,-25
1501876279460519,2,4,-1,29,13,10,1,-34
1501876279481535,-4,-8,3,-3,-23,-8,-4,41
1501876279481535,7,1,22,-6,-9,4,4,-4
1501876279483530,-5,22,35,2,7,-1,0,-20
1501876279483530,-9,-21,-37,0,-2,-6,-4,-2
1501876279495549,8,-24,16,34,-2,-4,6,8
1501876279495549,-12,-30,-26,-15,-29,-1,-6,6
1501876279502530,8,19,2,15,43,7,6,15
1501876279502530,-2,13,14,-20,3,7,7,21
1501876279518554,-2,13,2,1,-14,-1,-6,-4
1501876279518554,-4,-13,-20,8,-2,-7,0,2
1501876279520501,1,-9,-8,-21,-13,0,-1,1
1501876279520501,2,34,-1,9,-10,-2,2,11
1501876279541554,0,-8,1,-10,14,3,-2,20
1501876279541554,-1,-9,8,-13,7,-1,5,8
1501876279543491,7,32,0,11,-3,0,-2,-25
1501876279543491,-2,-41,11,-37,14,-3,0,9
1501876279555554,3,5,-14,1,-49,-3,9,8
1501876279555554,1,11,-5,3,69,11,-5,-1
1501876279562525,-5,-11,1,12,21,0,0,37
1501876279562525,-4,7,16,-2,-9,0,-7,-29
1501876279578493,-8,7,-17,-19,-35,-4,-4,-11
1501876279578493,7,17,-7,-18,10,-5,7,47
1501876279580495,-1,-11,-10,8,-8,2,5,-11
1501876279580495,-1,3,9,-8,11,1,-5,-50
1501876279601528,-5,-20,14,1,15,-6,-3,13
1501876279601528,3,33,-16,16,-34,-7,-4,15
1501876279603494,-2,17,25,-21,-42,-2,-7,-46
1501876279603494,-4,-7,-22,27,70,-1,0,21
1501876279615508,3,12,-22,-20,8,3,0,-26
1501876279615508,-8,-18,12,-6,-21,-2,-5,20
1501876279622529,10,-5,7,1,-17,-8,8,19
1501876279622529,-2,14,5,17,16,8,4,15
1501876279638503,-6,-11,-6,-16,-17,-1,-2,-4
1501876279638503,-2,-5,10,16,-21,-13,-6,-19
1501876279640499,0,15,-12,-40,41,5,-9,-20
1501876279640499,-5,-16,-10,12,-32,-6,-3,-3
1501876279661515,5,10,20,40,-1,3,5,25
1501876279661515,0,1,-1,-71,-13,-1,3,-10
1501876279663498,-4,-3,-9,23,-5,-5,-6,2
1501876279663498,9,7,-1,-48,-1,-4,-4,3
1501876279675536,-3,32,14,20,-8,1,-4,-12
1501876279675536,-5,-60,-14,7,4,1,2,-9
1501876279684502,3,2,3,-18,-13,0,4,12
1501876279684502,-5,-6,-5,-5,-13,-3,-2,2
1501876279698535,0,4,10,1,7,-4,-8,0
1501876279698535,5,28,16,13,26,1,-4,-13
1501876279700511,-1,-4,-18,-4,32,2,1,6
1501876279700511,-6,-23,-34,20,-47,-6,6,23
1501876279721573,-5,-3,-8,-4,24,-1,-6,-37
1501876279721573,0,8,23,7,3,6,-5,-46
1501876279723530,-3,-5,-7,10,17,-3,-5,-4
1501876279723530,11,24,10,14,-13,0,3,-4
1501876279735520,-1,-8,-3,-1,3,3,5,24
1501876279735520,-14,-1,-3,-4,-1,-3,-13,-28
1501876279744539,-2,3,3,-2,-20,-4,8,20
1501876279744539,1,-5,17,20,-9,-2,0,-25
1501876279758537,7,1,-21,-25,48,2,1,20
1501876279758537,-3,-12,7,1,-24,2,-1,0
1501876279760504,-7,-24,-30,6,-7,-3,-8,-12
1501876279760504,0,7,7,-1,24,3,2,17
1501876279781507,-5,-12,-9,-29,-55,-8,-2,-22
1501876279781507,-2,-4,-5,19,32,-4,0,-20
1501876279783506,12,9,21,15,-7,5,4,25
1501876279783506,-15,-32,-15,-3,19,-5,-6,-47
1501876279795535,5,25,39,-4,-14,1,7,29
1501876279795535,-3,-22,-11,-4,-1,-2,2,-39
1501876279804507,2,-1,-30,-6,-28,-1,-1,36
1501876279804507,2,1,14,24,15,-1,-5,21
1501876279818581,-9,9,-4,-22,-8,3,-11,-47
1501876279818581,6,20,-8,7,-14,-3,3,31
1501876279820517,-1,-6,9,47,1,1,5,-11
1501876279820517,-4,-7,-3,-65,-7,-3,0,-3
1501876279841549,1,-15,-30,-5,5,-4,4,3
1501876279841549,10,20,5,11,-16,1,6,64
1501876279843525,-15,-9,16,-6,-5,-1,-15,-108
1501876279843525,-12,5,13,28,15,-9,-9,-4
1501876279855535,-7,-35,-14,-9,0,5,-3,1
1501876279855535,5,6,4,-6,-1,3,8,16
1501876279864544,9,15,22,-9,-35,-2,0,22
1501876279864544,15,-8,-29,22,36,6,20,81
1501876279878544,-22,4,11,-5,-12,-9,-35,-99
1501876279878544,-7,-2,-24,15,6,4,0,-4
1501876279880514,2,-22,-10,-39,20,0,1,14
1501876279880514,5,27,14,5,-37,-5,-1,-14
1501876279901548,1,-10,-15,17,8,4,7,16
1501876279901548,4,5,34,23,2,-2,-2,0
1501876279903527,-6,0,-18,-46,-1,0,1,-15
1501876279903527,7,2,-6,15,-3,1,-2,9
1501876279915514,20,31,0,-13,11,10,17,62
1501876279915514,-6,-38,8,-7,-7,2,-3,-38
1501876279924544,-7,2,-13,13,-19,-3,-2,30
1501876279924544,-4,11,12,32,38,1,-8,-37
1501876279938576,-2,-10,-33,-58,-49,-10,2,-13
1501876279938576,-2,3,-24,18,45,3,-2,5
1501876279940543,8,23,29,-7,-11,-3,1,28
1501876279940543,0,-51,-14,-23,-30,-1,2,17
1501876279961536,-10,-12,-5,14,8,-8,-7,-6
1501876279961536,6,15,-11,-24,-25,-8,-1,36
1501876279963516,-5,-17,-8,4,46,18,7,-7
1501876279963516,0,15,8,-8,-21,-4,0,37
1501876279975560,3,19,28,18,23,5,-2,-40
1501876279975560,-1,-27,-1,-15,-54,-9,-3,-3
1501876279984517,-7,2,-17,7,51,-1,-4,-6
1501876279984517,-1,-6,0,-6,3,5,4,-5
1501876279998561,3,36,17,31,-33,-4,6,17
1501876279998561,0,-36,5,-10,39,1,-1,12
1501876280000550,3,-1,51,42,-12,-3,-4,-4
1501876280000550,-4,0,-90,-78,-18,-6,-5,-4
1501876280021563,1,-19,8,3,-5,-5,-1,-29
1501876280021563,-10,34,-7,-17,-5,0,-3,-5
1501876280023519,6,-10,8,10,26,2,10,11
1501876280023519,-4,3,-9,19,-31,-3,-9,1
1501876280035525,-3,-4,-11,7,-29,-6,-4,9
1501876280035525,-1,17,-6,-6,57,8,-2,-19
1501876280044521,-4,-4,39,-7,-18,0,5,11
1501876280044521,-2,4,10,-5,-2,-1,1,-47
1501876280058589,-2,11,-8,-3,-16,-5,-1,58
1501876280058589,3,-15,10,9,8,-1,-11,-12
1501876280060531,-3,3,-21,-4,-8,-3,-3,-2
1501876280060531,4,1,11,-25,-15,0,-4,5
1501876280081524,-2,-16,-19,-4,27,-1,4,18
1501876280081524,2,8,10,0,-8,-1,5,-3
1501876280083524,-3,0,-19,-35,-20,1,-2,9
1501876280083524,1,2,32,41,7,-2,1,-12
1501876280095538,-1,-14,-4,-1,60,1,1,27
1501876280095538,3,17,10,-2,-28,-3,-2,-4
1501876280104560,-2,-9,-42,-12,-8,-8,-1,-12
1501876280104560,-9,-1,12,3,6,3,-4,20
1501876280118525,5,11,48,4,2,-6,-6,-11
1501876280118525,-4,-17,-84,1,0,4,-3,-25
1501876280120557,-2,-6,13,1,-4,-2,-4,1
1501876280120557,5,8,16,4,6,-3,3,-10
1501876280141595,2,-10,0,8,-31,-8,6,37
1501876280141595,-12,-10,-1,8,-5,-3,-5,-28
1501876280143527,-3,6,-28,-13,26,0,-3,6
1501876280143527,-9,-13,-15,-28,5,-2,-9,4
1501876280163527,4,22,-5,18,3,0,-8,-29
1501876280163527,-6,-13,21,5,-22,-6,3,5
1501876280165536,2,14,-4,10,-11,0,2,-3
1501876280165536,5,-29,17,0,28,0,2,18
1501876280178600,-6,-6,-1,7,33,4,0,-7
1501876280178600,1,5,3,4,6,3,7,34
1501876280180537,2,17,-2,-8,-3,0,-5,-22
1501876280180537,2,6,26,30,-23,-2,0,-43
1501876280201572,-6,-33,-31,-31,-17,-5,-5,13
1501876280201572,0,20,-3,-3,-9,-7,-4,-3
1501876280203536,-5,-19,11,27,2,-2,-3,4
1501876280203536,1,12,-39,-18,-6,-2,8,-11
1501876280223570,-2,-12,-7,-28,-8,-1,-2,-8
1501876280223570,3,11,27,3,15,5,1,17
1501876280225531,-1,-5,-16,-7,-42,-4,-2,1
1501876280225531,-3,-21,-7,5,45,3,-1,1
1501876280238532,-3,-9,0,16,-1,3,0,-52
1501876280238532,1,0,16,2,-2,-6,-2,-28
1501876280246538,-1,-14,9,5,-1,-2,1,18
1501876280246538,-7,15,-3,7,-10,9,6,-10
1501876280261598,12,0,-2,-33,2,0,-1,25
1501876280261598,2,-5,-2,6,-18,-3,1,3
1501876280263533,3,12,2,48,27,-6,-1,7
1501876280263533,-12,1,10,-11,-31,-4,-9,-65
1501876280284551,-5,-6,32,29,17,7,8,23
1501876280284551,5,6,-47,-50,-24,-2,2,4
1501876280285567,-6,-9,24,2,4,-1,-2,14
1501876280285567,2,6,-12,-7,-1,-4,-8,-9
1501876280298538,-5,7,-2,24,10,-1,-1,-50
1501876280298538,0,31,39,-4,-47,6,-1,25
1501876280305555,-2,-43,-31,-8,45,3,0,-16
1501876280305555,4,17,19,0,-14,4,1,40
1501876280321606,4,0,-12,-28,4,3,3,7
1501876280321606,1,-4,-2,15,5,-5,-2,20
1501876280323536,0,5,16,32,-4,1,-3,-21
1501876280323536,4,16,31,28,-7,0,0,19
1501876280344582,-4,-4,-21,-6,-14,-3,-5,-16
1501876280344582,-3,-12,0,-17,17,-4,-7,22
1501876280345570,-1,23,-4,-10,-4,6,0,-3
1501876280345570,-4,-20,1,-38,1,-2,0,-16
1501876280358579,0,15,-12,19,0,-8,1,20
1501876280358579,1,13,-2,21,9,8,14,9
1501876280365551,-13,-26,-3,-40,-18,-11,-22,-51
1501876280365551,8,6,11,26,-4,11,9,16
1501876280381582,3,-17,-1,-9,9,-2,-3,12
1501876280381582,-12,-2,-10,5,-14,-8,-9,-52
1501876280383546,9,21,-2,13,2,-2,4,38
1501876280383546,2,0,-7,-53,-15,-2,1,2
1501876280403612,-8,-29,-2,72,-29,-6,-6,-2
1501876280403612,-12,-37,-14,-36,8,2,-4,-9
1501876280405540,-7,20,-1,-11,3,3,6,-3
1501876280405540,-1,0,4,19,25,-3,-7,-7
1501876280418561,-1,14,-5,-37,-26,2,5,7
1501876280418561,8,-16,28,12,28,1,11,32
1501876280425558,-5,-10,-11,-11,2,-2,-11,-44
1501876280425558,-1,12,-15,9,-14,-5,2,34
1501876280441616,-10,2,4,31,48,0,-8,-40
1501876280441616,6,-3,16,1,-15,-1,-4,4
1501876280443551,5,4,-4,-5,-6,1,9,10
1501876280443551,-7,-13,-2,-15,1,-6,-9,-13
1501876280463610,-1,7,13,-1,-49,2,6,26
1501876280463610,6,1,-25,6,50,1,-1,16
1501876280465553,-3,6,4,-23,10,7,4,-22
1501876280465553,-6,-19,10,44,-23,-4,-5,-11
1501876280478613,1,4,5,7,14,-1,2,-17
1501876280478613,-9,14,6,-14,-30,-8,-13,-34
1501876280485562,13,4,8,57,25,10,9,21
1501876280485562,-8,-19,-39,-59,-37,-10,-2,19
1501876280501614,-5,-21,0,1,60,-2,-9,-25
1501876280501614,0,8,7,-38,-19,3,-3,-28
1501876280502559,5,14,9,7,-3,1,1,20
1501876280502559,1,6,10,-1,12,3,0,-2
1501876280523621,9,3,14,1,-17,-6,7,22
1501876280523621,-14,16,25,33,-3,2,0,-21
1501876280525548,-5,-10,-8,-39,10,-1,-3,2
1501876280525548,-2,-13,-1,24,19,0,-1,-39
1501876280538621,4,3,-29,-68,-32,-7,-3,26
1501876280538621,5,0,-6,27,31,1,6,20
1501876280545550,1,-1,31,-21,-33,-4,-2,1
1501876280545550,3,16,-20,33,13,2,2,-7
1501876280561606,-2,-14,9,-2,-3,0,1,-19
1501876280561606,3,-12,-13,-16,-7,0,2,27
1501876280563551,-1,-1,-8,-3,13,0,2,35
1501876280563551,5,17,1,-15,-54,0,0,-38
1501876280583594,-3,10,16,52,93,15,-7,-26
1501876280583594,-3,-6,-16,-26,-22,-10,-3,-1
1501876280585561,-3,7,8,-1,-26,-4,1,-5
1501876280585561,4,-8,-23,1,35,0,-1,39
1501876280598620,14,1,-11,4,-33,1,2,6
1501876280598620,-9,-5,4,10,8,-3,-2,5
1501876280605565,-10,-13,-23,-21,-1,-8,-7,-36
1501876280605565,-3,7,15,6,-5,-6,-9,-39
1501876280621598,-2,-2,7,14,-14,3,5,-6
1501876280621598,8,3,-26,2,5,-1,0,22
1501876280627592,-2,-9,-10,-22,-15,-7,-2,7
1501876280627592,-7,-11,-2,28,23,2,1,-27
1501876280643621,-5,11,-6,-28,-18,4,-6,14
1501876280643621,2,-5,12,29,0,-1,6,1
1501876280645556,-6,6,2,-11,-8,4,-5,-31
1501876280645556,3,-23,-33,-26,-5,-12,-6,38
1501876280657571,-5,-2,7,6,20,3,2,16
1501876280657571,1,10,-8,-1,-10,2,5,-7
1501876280666588,-3,-7,13,22,11,-5,-5,-35
1501876280666588,4,18,14,39,-25,1,-1,4
1501876280681602,-7,-5,-10,-28,14,-7,-2,4
1501876280681602,2,-7,3,-6,-12,-4,-6,-25
1501876280682595,5,-15,-13,5,19,4,5,39
1501876280682595,-14,4,18,-20,0,3,-2,-47
1501876280703625,4,-2,-4,2,-25,-6,0,26
1501876280703625,10,-6,-3,3,-20,0,2,-5
1501876280705559,-7,19,-5,6,15,1,-1,-24
1501876280705559,-6,-13,3,-13,4,-3,2,19
1501876280717599,-4,3,10,7,2,2,2,9
1501876280717599,-8,-20,-6,-30,3,-7,-10,-20
1501876280726560,6,7,-4,24,-24,-12,-3,-14
1501876280726560,1,7,-7,-19,31,15,5,29
1501876280741561,4,-5,3,-7,-27,-3,3,-37
1501876280741561,-4,20,-35,-12,3,2,-5,-8
1501876280742577,0,-12,-8,28,-20,-4,6,40
1501876280742577,-4,-12,-3,-11,1,-6,-7,5
1501876280763596,5,4,10,-29,-4,0,-1,1
1501876280763596,-5,1,38,9,-1,-1,0,11
1501876280765572,0,8,-26,1,5,3,2,-8
1501876280765572,3,0,-9,-72,-4,-6,-1,12
1501876280777607,-3,-17,6,14,-21,-2,1,-2
1501876280777607,-6,-11,-41,12,-19,-9,-7,-13
1501876280786596,8,10,18,15,72,17,13,25
1501876280786596,2,-1,-5,31,-13,0,-8,-8
1501876280801632,-8,7,-22,-33,18,3,-2,10
1501876280801632,2,2,21,-7,-13,-2,-8,-37
1501876280802576,2,-11,23,39,-12,-3,-2,11
1501876280802576,6,17,-9,-22,-12,1,5,6
1501876280823630,1,-1,18,44,-11,-3,-3,12
1501876280823630,-15,-30,1,-10,7,-2,2,5
1501876280825567,4,15,2,-9,-9,-1,-3,20
1501876280825567,-3,-26,7,36,7,1,3,13
1501876280837608,10,23,-38,-15,-4,-2,2,5
1501876280837608,8,-16,2,24,20,5,4,36
1501876280846575,-10,-18,-5,-33,-13,-11,-11,-23
1501876280846575,-4,4,19,3,-21,-2,5,4
1501876280861567,-8,-2,4,43,51,6,-4,-37
1501876280861567,6,12,-10,-59,-21,-4,-7,-3
1501876280862606,-2,-7,9,18,-7,5,4,11
1501876280862606,0,-2,-6,-10,18,-3,-1,-13
1501876280883632,-7,5,4,-9,-12,-5,-2,-5
1501876280883632,14,5,-2,14,3,2,-4,-7
1501876280885579,-6,-2,-24,-18,-33,-7,-3,-12
1501876280885579,-7,-2,21,27,39,2,0,16
1501876280897638,9,6,-5,15,-8,-3,2,10
1501876280897638,-10,-13,20,-4,8,2,-4,-3
1501876280906607,-2,19,-12,-3,2,-4,-2,-12
1501876280906607,5,-4,5,17,14,7,2,-22
1501876280921603,-5,-2,-20,-11,-15,-3,-4,9
1501876280921603,1,21,29,27,-5,-5,5,8
1501876280923572,0,-21,-35,-14,-7,6,2,12
1501876280923572,3,3,11,-22,-17,-8,-13,-15
1501876280943635,-7,0,0,-17,-7,0,-5,-11
1501876280943635,1,5,-21,10,-3,3,3,5
1501876280945581,-3,-3,47,43,19,0,2,2
1501876280945581,2,-7,-35,-71,-17,-2,-1,-25
1501876280957633,5,1,11,0,3,1,5,23
1501876280957633,-15,-29,4,24,12,-5,-10,-16
1501876280966607,4,1,-4,-27,-7,-6,-2,5
1501876280966607,0,7,23,19,-4,-3,-1,13
1501876280981575,9,18,0,-2,-6,1,6,16
1501876280981575,-18,-35,-6,-8,-15,-3,-4,-30
1501876280982577,-2,-4,-10,-11,15,2,-1,5
1501876280982577,-5,0,15,17,6,1,1,-30
1501876281003640,-4,-2,-13,15,-10,-2,-3,-8
1501876281003640,4,14,0,19,8,2,0,5
1501876281005585,-7,-4,-10,-30,-26,-13,-12,-19
1501876281005585,3,5,-8,-7,6,12,12,39
1501876281017611,-4,-4,-2,19,0,-1,-1,-46
1501876281017611,4,-6,-1,-9,-5,-1,4,16
1501876281026589,5,-11,-14,9,-12,-3,8,34
1501876281026589,-11,6,15,-21,10,-11,-22,-32
1501876281041620,-10,-4,-1,1,-3,-1,-8,-47
1501876281041620,1,-3,-7,-10,-11,0,-2,9
1501876281042578,-1,20,-4,-4,20,4,-1,0
1501876281042578,3,16,12,29,1,3,9,17
1501876281063618,5,-34,-28,-58,-20,-5,-2,4
1501876281063618,3,34,24,48,29,-5,-2,20
1501876281065592,2,-2,-14,-33,-10,5,2,-4
1501876281065592,8,15,19,23,4,1,1,-18
1501876281086643,-12,-16,-5,17,-5,-2,-3,3
1501876281086643,4,22,1,-29,1,-4,9,-4
1501876281087611,-1,-12,-1,29,-19,-3,-5,36
1501876281087611,0,18,5,8,10,-2,4,2
1501876281101646,-2,12,-9,-5,9,7,-12,-34
1501876281101646,0,-12,9,-20,-12,-3,-1,18
1501876281102592,-6,2,10,-15,5,-1,-2,-32
1501876281102592,0,-9,-34,27,-10,-5,2,18
1501876281123625,1,-10,6,-65,-17,-7,1,25
1501876281123625,3,6,-28,-16,23,15,3,-13
1501876281125597,5,-1,13,4,-5,-1,3,13
1501876281125597,-3,-10,2,-7,6,-4,-6,9
1501876281146642,-3,-16,-10,5,-6,-5,-1,29
1501876281146642,-4,6,-12,-1,-10,-3,-3,-4
1501876281147598,-5,-10,17,3,5,-1,-3,-29
1501876281147598,1,3,-22,-33,-20,0,2,31
1501876281161625,-1,-1,10,-3,18,-3,-3,-11
1501876281161625,-6,-14,0,18,-6,-1,0,-32
1501876281162626,3,-6,-9,-10,-8,-2,-4,-11
1501876281162626,-2,-16,-15,3,0,-5,7,10
1501876281183634,-5,13,16,16,-6,3,-12,0
1501876281183634,9,21,14,-8,9,6,6,13
1501876281185598,-4,-2,-34,-12,-8,-4,-7,-7
1501876281185598,1,-39,-2,0,-2,1,-3,-8
1501876281206588,-2,0,7,3,0,-2,13,39
1501876281206588,-5,0,6,-5,9,1,-7,-30
1501876281207591,3,4,0,5,-8,1,-2,-14
1501876281207591,-3,3,-13,-14,-3,-6,-2,-5
1501876281220650,2,-4,13,13,10,-2,0,1
1501876281220650,-9,-11,2,-4,-13,3,-1,2
1501876281227660,-1,-5,-5,-9,-11,-2,2,5
1501876281227660,-6,4,10,31,17,4,-5,-4
1501876281243632,9,3,7,13,27,5,5,3
1501876281243632,-2,-4,-14,-1,-13,-3,1,17
1501876281245590,-2,4,8,-2,18,7,2,-11
1501876281245590,0,-1,-8,0,-17,-7,-1,-2
1501876281266659,-3,-11,-4,-1,-17,-7,3,32
1501876281266659,8,8,15,-18,1,-4,2,8
1501876281267609,-4,-4,2,-15,-3,-5,-10,-38
1501876281267609,-3,-13,16,6,-2,6,-5,-9
1501876281280652,1,16,0,1,5,0,1,8
1501876281280652,0,11,-5,-2,1,0,3,5
1501876281287659,-7,-43,-11,-6,-4,-7,0,-1
1501876281287659,-4,10,12,18,12,-1,0,6
1501876281303636,-4,3,-13,6,-3,2,-4,-34
1501876281303636,5,-10,16,-1,2,0,6,1
1501876281305604,1,11,-30,-1,16,0,-5,6
1501876281305604,1,5,23,23,-13,-4,2,1
1501876281326635,-2,-17,-4,-6,-12,1,-1,35
1501876281326635,-9,7,-5,2,-6,-9,-8,-62
1501876281327604,5,17,18,9,11,6,-2,23
1501876281327604,-2,11,-15,-19,-3,1,-3,-10
1501876281340662,0,-26,-16,12,2,-5,4,6
1501876281340662,2,-4,0,0,-12,0,-1,28
1501876281347637,4,12,15,-5,-1,-4,-4,-14
1501876281347637,-2,-3,-8,-16,-22,0,4,34
1501876281363634,-4,-1,7,8,6,-5,-1,-16
1501876281363634,-4,-4,-26,13,23,6,-6,-23
1501876281365600,-4,-14,0,-34,-27,-5,0,-12
1501876281365600,0,3,-10,-18,4,-1,1,17
1501876281386664,0,30,37,8,-10,1,-4,-22
1501876281386664,4,-29,-14,10,1,-3,4,36
1501876281387613,-2,16,4,8,-1,-2,3,39
1501876281387613,-5,-30,-18,-7,2,-3,-2,-55
1501876281400637,-5,-20,-9,-33,1,2,0,5
1501876281400637,-8,0,-2,-4,17,0,-3,-5
1501876281407661,3,3,17,16,-19,-5,1,-14
1501876281407661,0,15,-12,3,-1,5,1,4
1501876281423614,1,-15,4,13,10,-1,3,-10
1501876281423614,-2,0,-28,-32,-9,-5,-18,16
1501876281425612,-12,-16,1,15,8,0,1,-19
1501876281425612,0,4,21,15,2,-6,-10,-19
1501876281446615,2,20,-1,-11,3,9,4,6
1501876281446615,9,-3,-19,0,-8,-6,10,8
1501876281448611,-4,-13,6,-11,-35,-9,-4,19
1501876281448611,2,-20,-9,8,48,9,5,3
1501876281460668,-1,19,2,-1,-18,-3,0,23
1501876281460668,-19,-33,7,13,12,-2,-7,-20
1501876281467642,7,15,1,-21,-7,0,-1,-7
1501876281467642,2,6,-10,5,-17,-1,3,15
1501876281483643,-7,-41,-3,-15,0,0,-3,-5
1501876281483643,0,19,12,3,-27,-4,-10,-7
1501876281485605,-4,0,-2,5,34,4,-9,-26
1501876281485605,-1,17,-21,-22,-12,-9,-6,5
1501876281506669,-1,-31,-20,18,-8,-3,0,2
1501876281506669,1,26,14,5,-14,4,8,6
1501876281507640,2,-4,-6,-6,14,6,7,44
1501876281507640,-3,4,-11,-12,1,-1,-8,-30
1501876281520638,3,13,4,17,1,-4,-3,-14
1501876281520638,2,11,20,-12,-9,-3,-3,10
1501876281527669,3,4,-19,1,6,-3,5,-5
1501876281527669,-7,-12,14,1,3,1,1,34
1501876281543679,-2,20,0,-10,-8,-1,-6,-58
1501876281543679,0,-18,-8,6,-5,-1,-3,-8
1501876281545607,-5,4,10,15,1,-8,-1,0
1501876281545607,5,0,4,-17,-2,5,6,23
1501876281566649,1,-5,5,5,-12,0,5,41
1501876281566649,-5,-2,2,-5,20,1,-8,-35
1501876281567608,-1,-14,-10,39,-23,-13,-6,-3
1501876281567608,-2,-8,10,-20,9,12,10,-10
1501876281580618,0,16,13,-14,2,0,-6,-4
1501876281580618,7,29,6,8,0,6,4,-15
1501876281588687,-3,-40,-17,-22,3,-2,-1,4
1501876281588687,-10,-2,-10,-6,-11,-11,-9,-23
1501876281603610,-4,3,-15,3,0,-3,-2,-7
1501876281603610,3,12,-7,-14,-15,-4,5,12
1501876281605645,-2,4,6,6,14,8,1,-4
1501876281605645,6,7,5,7,-14,-5,-2,11
1501876281626673,-4,-5,-36,-16,8,-3,-3,-32
1501876281626673,-3,-25,21,18,4,-6,-3,6
1501876281627622,-2,9,5,-1,-16,6,2,-14
