timestamp,emg1,emg2,emg3,emg4,emg5,emg6,emg7,emg8
1501875781976160,-21,-49,14,-46,-3,-3,-5,-26
1501875781976160,2,6,-1,0,-1,0,-6,-37
1501875781977142,-13,21,-11,56,-18,1,1,-4
1501875781977142,-8,-13,16,-46,-16,-2,-7,-71
1501875781977142,9,11,-29,-63,-18,-8,-6,-23
1501875781977142,11,-37,44,44,25,-3,12,69
1501875781981153,-25,3,-22,-68,-45,-13,-10,-54
1501875781981153,-1,-9,-17,-4,54,3,4,34
1501875781988164,11,49,45,13,8,5,-3,77
1501875781988164,3,14,-12,-16,-13,-5,0,0
1501875782000144,4,-49,14,-36,-23,-2,1,60
1501875782000144,-2,15,1,8,23,5,-4,-50
1501875782003164,10,-10,-12,43,34,10,7,67
1501875782003164,-5,55,-12,13,-9,6,6,-49
1501875782020123,4,-20,6,1,6,-3,6,38
1501875782020123,-14,-10,32,-14,-21,0,5,27
1501875782027146,17,-12,-34,-2,-3,2,8,45
1501875782027146,-28,-64,-20,42,0,-13,-25,-79
1501875782042156,-9,-10,11,80,30,-7,-15,-22
1501875782042156,12,26,-26,-13,-37,-1,5,27
1501875782048144,-15,14,-29,27,-25,-6,-4,-50
1501875782048144,4,-16,-5,-72,-22,-3,16,19
1501875782063151,5,71,44,-76,7,7,-13,-8
1501875782063151,8,-28,-79,36,32,20,3,26
1501875782104148,13,38,23,-68,-22,-1,4,13
1501875782104148,-4,-58,-3,-52,-13,-5,8,30
1501875782105116,-13,-23,-33,40,-43,-11,-24,11
1501875782105116,-3,-24,11,-34,30,5,1,-17
1501875782106115,3,-8,31,67,5,7,7,-1
1501875782106115,4,28,-22,27,-16,-8,-9,-10
1501875782108175,8,-29,-10,-69,9,4,12,47
1501875782108175,-8,7,-2,-7,-4,-5,-15,-36
1501875782117115,-6,-42,-12,33,-14,-10,-8,29
1501875782117115,5,29,15,15,14,15,18,12
1501875782123178,0,76,27,27,-25,-13,-8,-72
1501875782123178,15,-24,-29,-49,-4,16,4,31
1501875782140118,-3,-16,-26,66,12,1,6,49
1501875782140118,-13,3,-25,-68,-14,-8,-8,-60
1501875782146133,-2,-38,-11,78,-13,-10,-2,-1
1501875782146133,18,7,30,-1,-29,-11,23,83
1501875782155118,-15,-23,30,62,28,9,-24,-105
1501875782155118,-3,-1,-2,-6,34,7,9,34
1501875782177191,1,12,-15,-33,-3,1,-17,-65
1501875782177191,5,24,0,27,-67,-14,12,39
1501875782178119,16,-36,33,-18,-6,5,-6,81
1501875782178119,-14,6,-40,-25,24,1,-8,1
1501875782191139,10,12,69,52,4,-3,1,11
1501875782191139,-6,-6,-65,18,24,7,7,7
1501875782200120,-1,41,27,-56,-4,0,7,-19
1501875782200120,6,0,10,-13,-12,-12,-15,-34
1501875782214182,-2,-23,-12,-56,-3,6,28,60
1501875782214182,-7,24,-17,-20,18,3,3,-47
1501875782216131,-19,-23,-85,-36,-36,-24,-40,-81
1501875782216131,7,36,31,55,17,7,-2,5
1501875782237192,0,-3,28,-13,16,12,8,22
1501875782237192,-2,-15,17,34,41,-4,-1,-33
1501875782238123,8,44,-28,-101,7,1,28,84
1501875782238123,-15,-81,7,49,-1,-11,-22,-82
1501875782251138,-13,-28,-22,-20,-15,-1,-11,30
1501875782251138,-7,9,26,43,14,11,11,20
1501875782260126,25,94,-16,27,-43,-1,22,54
1501875782260126,-1,-47,-18,-28,30,-3,-40,-26
1501875782274165,8,30,-11,-23,25,16,5,20
1501875782274165,-26,-50,12,-35,1,-17,-25,-38
1501875782276161,12,5,28,0,-1,7,18,26
1501875782276161,-12,29,-73,-58,-63,-7,13,27
1501875782304197,-16,32,-2,29,64,-1,-12,-91
1501875782304197,13,4,13,37,-24,-2,-9,-3
1501875782306127,-15,-61,20,14,11,-1,2,-20
1501875782306127,2,-9,-2,8,4,-2,3,-12
1501875782311145,-2,4,7,-3,15,-2,13,60
1501875782311145,7,42,-33,17,-7,1,-5,-13
1501875782320128,3,-32,20,56,9,-4,-9,-3
1501875782320128,7,2,27,-1,-2,3,13,26
1501875782334169,-12,5,7,8,-64,-17,-5,0
1501875782334169,18,26,-29,-18,30,18,25,82
1501875782336128,-22,14,11,-36,-6,-11,-49,-115
1501875782336128,9,-34,2,36,-68,1,1,65
1501875782357200,8,65,14,-16,59,1,7,14
1501875782357200,-10,-56,-19,41,7,0,-12,4
1501875782358143,-16,-7,-34,7,-15,-7,5,-19
1501875782358143,-2,25,39,16,-1,1,15,33
1501875782371150,4,58,22,29,-27,-11,-14,-42
1501875782371150,-11,-48,-7,-28,15,2,-16,-38
1501875782380131,6,-9,-9,19,26,2,9,23
1501875782380131,-12,7,-2,-34,4,5,7,-36
1501875782394172,11,-41,-15,46,-24,-5,-4,17
1501875782394172,3,12,14,-31,-26,-5,2,-16
1501875782396143,-18,-67,-27,-78,62,2,-14,-9
1501875782396143,3,15,0,39,13,-2,-4,9
1501875782417133,18,21,-37,26,0,9,16,45
1501875782417133,-21,-25,34,-5,-49,-13,-16,-67
1501875782419133,-10,6,-22,-9,-24,-6,-2,-26
1501875782419133,10,-3,33,18,35,5,10,6
1501875782431154,-5,-4,-11,-25,-11,2,-3,-21
1501875782431154,13,17,6,-1,26,-3,2,17
1501875782440135,2,-12,28,28,1,10,14,36
1501875782440135,4,62,-9,-17,-11,-13,-19,-3
1501875782454197,-20,-71,18,-29,5,0,-5,27
1501875782454197,-9,23,-38,17,-35,-2,4,3
1501875782456156,8,2,41,24,20,9,11,34
1501875782456156,7,81,-29,-48,-28,-2,-2,-45
1501875782477203,-15,-70,24,44,4,-2,1,9
1501875782477203,1,13,-22,-65,-9,4,-2,-4
1501875782478137,-2,-24,-10,-13,-15,-11,-12,-51
1501875782478137,11,15,18,35,4,12,10,44
1501875782491159,-1,-32,19,-39,-8,2,0,-15
1501875782491159,-1,5,8,28,36,-6,1,18
1501875782500138,20,56,34,50,-38,0,8,25
1501875782500138,-18,-28,-14,-78,-8,1,-5,17
1501875782514176,-3,-20,1,20,-13,-11,-7,-25
1501875782514176,4,0,44,21,71,22,8,17
1501875782516174,8,49,-52,-54,-20,-9,0,6
1501875782516174,-13,-73,39,24,13,4,-7,-33
1501875782537210,3,0,-48,19,13,-1,9,-1
1501875782537210,-7,-25,29,-11,-26,-18,-15,-15
1501875782538174,-3,-9,-51,-26,-16,-2,0,12
1501875782538174,-2,-5,46,45,42,5,11,18
1501875782551160,11,16,3,-49,-23,9,7,12
1501875782551160,-7,21,-57,-56,-44,-11,-10,-19
1501875782560141,17,16,17,6,97,8,7,47
1501875782560141,-21,-35,-26,-9,-51,-15,-16,-25
1501875782574187,-9,21,36,-27,33,0,-7,-51
1501875782574187,3,-26,-20,29,-2,-2,3,1
1501875782576152,-19,-27,5,-56,-37,-7,-12,-6
1501875782576152,16,25,-46,0,7,6,22,45
1501875782597211,5,6,-22,10,-15,-5,-5,4
1501875782597211,-5,-8,35,26,-8,-8,-17,-18
1501875782598150,9,25,20,2,37,7,9,3
1501875782598150,-2,-24,-15,-23,15,6,1,9
1501875782611158,0,26,15,-4,-8,2,-5,18
1501875782611158,-6,-4,-30,19,-28,-6,-1,-10
1501875782619188,3,-7,2,13,-27,5,6,-28
1501875782619188,-8,3,11,5,-3,-7,3,28
1501875782634158,1,-13,-20,-37,16,-1,-9,-27
1501875782634158,6,18,-2,73,-7,-4,1,16
1501875782636178,8,29,4,7,-14,-1,-5,-1
1501875782636178,-4,9,-16,-32,-43,-10,-4,-8
1501875782657215,-6,9,-12,37,-7,5,-6,-13
1501875782657215,2,-12,22,-58,65,11,7,53
1501875782658174,-11,34,11,18,-43,-3,7,-6
1501875782658174,14,-59,-8,24,69,2,-15,-59
1501875782671166,-19,-14,6,37,-32,-10,0,35
1501875782671166,7,49,9,-29,-20,6,1,-8
1501875782679149,-15,-34,-58,-38,-37,-7,-6,5
1501875782679149,2,-2,18,36,-9,-6,0,-30
1501875782694176,2,37,3,2,30,4,-2,-9
1501875782694176,12,6,27,3,-5,4,11,14
1501875782696160,-5,-30,8,1,-32,-14,-12,-7
1501875782696160,-3,24,-4,-4,-15,7,9,54
1501875782717151,3,-8,-12,-25,67,7,4,-26
1501875782717151,-21,-40,-2,15,-39,-9,-20,-44
1501875782718155,5,-1,-37,-55,9,-4,-5,-20
1501875782718155,6,-34,-31,16,27,0,7,41
1501875782739193,-6,7,0,60,-16,-5,-3,13
1501875782739193,-4,-3,21,-37,-7,-7,-8,-28
1501875782741183,-4,-6,17,61,29,13,7,-24
1501875782741183,1,-4,1,-2,-22,-3,-10,-17
1501875782754213,9,1,-7,-51,-20,-4,7,47
1501875782754213,0,-27,24,46,27,-1,11,23
1501875782756159,-14,-23,-37,28,-6,2,-14,-25
1501875782756159,1,39,19,-48,11,-2,-3,-3
1501875782777192,1,-1,-1,-30,-6,-7,-2,-5
1501875782777192,-3,-14,-24,8,18,0,-1,-1
1501875782778153,8,40,22,16,-9,2,6,34
1501875782778153,-2,-15,28,65,19,-8,-5,-30
1501875782799195,-1,11,-4,-83,3,12,-2,-1
1501875782799195,-3,-2,-14,-12,-24,-8,-3,-16
1501875782801158,9,25,32,36,49,9,13,18
1501875782801158,-11,10,-30,6,-30,-3,-2,-5
1501875782814199,11,-25,23,16,-16,-6,1,-11
1501875782814199,1,27,36,-9,27,10,0,29
1501875782816161,-2,-23,-2,1,-3,-1,0,8
1501875782816161,5,15,-17,-11,-14,-6,-2,-3
1501875782837195,-8,-22,11,56,-4,5,-3,-20
1501875782837195,-1,-7,-44,-94,-15,-5,1,-17
1501875782838170,-1,28,56,27,5,-4,-4,32
1501875782838170,5,-19,25,23,22,6,2,12
1501875782858198,0,2,-72,-42,-30,-7,9,43
1501875782858198,-3,10,8,4,13,6,-12,-64
1501875782867160,-5,-9,-5,-5,9,2,1,-5
1501875782867160,2,28,25,24,-22,-8,6,24
1501875782874193,-1,-16,-7,22,11,7,-3,-38
1501875782874193,11,38,-6,21,10,3,3,28
1501875782876172,-2,24,-21,-16,-14,-5,-3,-10
1501875782876172,-3,-67,-25,-23,-13,0,6,24
1501875782897169,-14,7,-7,-46,-2,-9,-12,-31
1501875782897169,-5,-15,15,13,12,3,12,21
1501875782898162,-3,1,0,2,-1,-4,-11,-30
1501875782898162,4,22,6,-15,-12,-1,-8,5
1501875782919166,7,-3,31,38,-2,-2,4,12
1501875782919166,3,3,-32,-41,-7,3,1,48
1501875782921197,-5,-6,-1,58,30,-9,-5,-52
1501875782921197,-11,-32,-23,-61,5,8,0,4
1501875782934180,7,4,41,20,-1,2,-1,-3
1501875782934180,-1,16,-16,21,-13,-2,3,22
1501875782941183,2,10,0,-22,-10,-5,-2,9
1501875782941183,-14,-18,1,31,-15,-3,1,-18
1501875782957204,2,25,-25,-20,7,1,-3,14
1501875782957204,5,-33,35,10,28,0,-4,-35
1501875782959166,-5,-22,-58,-45,-32,-5,4,19
1501875782959166,1,20,18,47,54,13,-3,-50
1501875782979228,-2,10,7,3,-5,-10,1,24
1501875782979228,-8,21,45,-8,-27,-3,1,-29
1501875782981177,1,-45,-3,-2,-43,-10,-4,-1
1501875782981177,-7,5,4,-7,28,3,-12,-10
1501875782994187,-6,-28,-36,13,9,0,-5,-12
1501875782994187,-4,23,-16,30,4,-4,-5,-6
1501875783000209,1,-23,23,-11,-19,4,16,46
1501875783000209,7,22,2,2,-32,-11,-14,-31
1501875783017189,-4,4,-3,-34,1,-6,-9,-52
1501875783017189,9,6,-19,14,-2,3,4,24
1501875783018168,-9,31,48,19,15,3,-1,-6
1501875783018168,3,-50,-21,22,11,2,7,26
1501875783039210,-5,-40,-30,35,-21,-6,-7,-4
1501875783039210,-5,7,-6,-3,-10,-2,1,3
1501875783041180,-4,20,8,27,40,6,4,-8
1501875783041180,11,4,32,-53,-1,7,9,22
1501875783054248,-11,-1,-26,88,-33,-9,10,58
1501875783054248,10,-9,-17,-64,12,9,-6,-28
1501875783061203,-10,-13,0,49,-20,-11,-9,-1
1501875783061203,7,22,30,-54,4,-3,-6,-27
1501875783076171,-3,15,-23,-51,13,15,9,9
1501875783076171,-11,-15,21,16,-21,-11,1,5
1501875783084219,-3,-22,-5,-11,23,5,-4,-15
1501875783084219,-8,36,15,89,-51,-10,5,17
1501875783099238,18,-19,-5,-39,35,7,-4,-9
1501875783099238,-10,-8,-18,-5,-19,-10,-4,-5
1501875783101173,5,-14,-15,-76,-35,5,0,-24
1501875783101173,-12,-23,-19,37,35,-10,-8,-19
1501875783122247,8,31,67,0,13,3,5,11
1501875783122247,-10,-4,-47,39,-30,-9,-6,4
1501875783123176,-9,-7,-7,-65,6,0,-4,10
1501875783123176,17,35,-3,-29,11,3,0,-16
1501875783135241,-5,4,-14,44,-24,-5,-3,-4
1501875783135241,-2,-28,40,30,12,4,11,18
1501875783144220,3,24,-16,-24,12,-1,1,-5
1501875783144220,-3,7,16,16,-25,-4,-8,13
1501875783159214,1,-14,-7,-24,-1,6,-1,-12
1501875783159214,3,-22,-52,-58,-36,-11,-2,42
1501875783161211,-3,16,-2,50,36,6,-4,-30
1501875783161211,-9,-26,26,-9,6,0,2,35
1501875783182243,-3,-32,-6,11,-12,-5,-3,-26
1501875783182243,4,31,20,-14,23,3,2,21
1501875783183178,-2,-19,-5,10,-28,-9,-1,-27
1501875783183178,1,24,-34,-19,29,4,-4,7
1501875783195224,-1,1,43,-25,2,2,5,14
1501875783195224,-1,-23,-41,2,-10,-5,-4,-24
1501875783204255,11,12,10,-19,-3,-4,0,17
1501875783204255,-1,19,17,20,-54,0,8,-3
1501875783219253,-17,-42,-30,-25,34,-1,-8,-3
1501875783219253,5,-30,39,45,19,9,-1,-25
1501875783221191,3,-4,13,14,8,-1,6,45
1501875783221191,-8,-10,-26,-5,-39,-8,-13,-51
1501875783242180,3,28,-7,20,15,4,0,11
1501875783242180,0,36,8,-6,-16,-6,4,14
1501875783248180,-3,-31,-8,2,-5,-1,-8,-7
1501875783248180,0,7,-13,-9,19,-5,-6,5
1501875783264181,12,16,32,-6,-11,1,4,-15
1501875783264181,-7,1,9,16,26,-9,-5,28
1501875783266182,0,19,-32,9,12,12,5,36
1501875783266182,-3,0,-17,-99,-2,3,2,-64
1501875783279249,1,-28,-12,4,-27,-10,-3,14
1501875783279249,2,19,-8,38,-18,-7,-1,-8
1501875783286201,-7,-23,35,4,-15,-7,-11,-50
1501875783286201,2,-6,-33,26,36,10,15,39
1501875783302195,-6,14,11,18,-14,-6,-21,-54
1501875783302195,2,4,14,34,-21,6,4,6
1501875783303184,3,26,18,13,27,0,-1,10
1501875783303184,-5,-20,8,1,2,3,5,9
1501875783324219,4,3,-8,-39,0,-2,4,0
1501875783324219,-4,-6,21,27,-2,1,-7,11
1501875783326186,4,23,-5,22,-15,-6,8,21
1501875783326186,1,-10,-50,-35,34,1,-2,38
1501875783339227,-11,4,23,9,26,5,-2,-23
1501875783339227,2,-20,-57,-94,-22,-10,-9,-21
1501875783341199,2,-10,24,3,15,11,5,1
1501875783341199,11,41,31,30,-23,-4,7,-1
1501875783362258,-14,-40,-11,0,-29,-7,-14,22
1501875783362258,6,32,52,-27,40,5,-5,-11
1501875783363189,-5,-24,-82,-61,-1,-3,-3,-3
1501875783363189,-1,11,13,40,-10,-5,-1,41
1501875783384231,4,14,9,-27,-7,-1,-3,-21
1501875783384231,-6,15,34,60,-16,-3,1,-6
1501875783386201,-3,13,-26,-25,-2,-2,-6,-10
1501875783386201,1,-70,14,-2,8,-2,-1,-14
1501875783399254,-1,0,-11,22,-17,-2,4,35
1501875783399254,5,-9,11,27,71,12,5,-11
1501875783406227,10,53,32,17,-7,-2,-4,16
1501875783406227,-10,-34,-35,-25,-10,-1,-1,-8
1501875783422259,-5,2,6,-6,-13,-7,-1,-27
1501875783422259,-4,-20,2,28,5,0,-10,-33
1501875783423194,0,-2,-18,-73,-31,-5,-4,15
1501875783423194,-11,1,14,-13,13,-2,-4,-54
1501875783444249,22,1,25,11,-22,4,10,18
1501875783444249,-14,13,-61,-47,17,-5,-2,14
1501875783446204,-18,-44,-18,4,-10,-4,-15,-20
1501875783446204,6,6,34,39,-5,3,-4,14
1501875783459206,-1,33,-32,-40,9,-1,7,0
1501875783459206,10,19,19,-8,-23,0,0,5
1501875783466226,6,-5,9,5,29,1,7,60
1501875783466226,-11,-15,5,30,35,-2,-13,-14
1501875783482235,-9,20,0,22,3,-4,-2,-11
1501875783482235,15,9,10,43,-46,-8,0,-29
1501875783483211,-18,-24,-7,-34,30,4,-7,30
1501875783483211,4,41,13,14,-20,-7,-2,11
1501875783504260,2,-47,9,33,23,6,12,31
1501875783504260,-9,-13,6,-28,12,3,-4,-15
1501875783506202,4,0,-18,42,-27,-7,15,46
1501875783506202,-10,-6,-13,-48,-8,2,-16,-90
1501875783519211,6,23,-18,3,-1,-5,-11,-2
1501875783519211,3,7,0,0,-13,-3,8,48
1501875783525263,3,-23,27,20,21,9,4,-16
1501875783525263,-2,-11,-15,14,-30,-3,0,43
1501875783542269,6,26,9,-30,15,2,2,0
1501875783542269,-11,-9,-12,-18,-2,-1,-5,-14
1501875783543199,15,18,16,-2,-1,-2,3,16
1501875783543199,5,15,30,44,-8,-3,8,-2
1501875783564263,-12,-5,-60,-43,10,0,-10,-31
1501875783564263,0,12,22,3,-11,3,8,44
1501875783566211,0,14,0,13,-30,0,-3,-91
1501875783566211,0,20,-18,-42,35,4,5,17
1501875783579260,8,-20,18,35,-3,-2,-4,7
1501875783579260,-15,-11,1,-38,6,-4,-11,-17
1501875783585241,-15,-43,12,41,-62,-3,2,-2
1501875783585241,7,-7,8,-1,42,-1,-1,32
1501875783602241,-15,22,-13,-25,-1,0,-14,-71
1501875783602241,9,8,-23,11,7,0,2,19
1501875783603202,6,5,-18,14,-31,-12,-4,-20
1501875783603202,-1,23,-8,-5,-6,-4,-1,25
1501875783624214,-7,-31,-11,-36,9,-3,0,14
1501875783624214,6,43,20,10,5,2,-1,-11
1501875783626202,-2,-61,-7,-17,6,5,6,-27
1501875783626202,-13,-10,-25,0,11,2,-1,7
1501875783639230,6,9,-6,-20,-8,-1,12,47
1501875783639230,-9,-10,13,13,-8,-1,-13,-33
1501875783645262,3,6,35,18,-15,-3,2,25
1501875783645262,-8,-12,-37,-7,7,0,-13,-69
1501875783662215,-11,-31,1,-20,-3,-7,-2,8
1501875783662215,4,-28,7,25,24,3,1,25
1501875783663206,-6,-4,-48,-76,-4,-10,-4,-25
1501875783663206,4,34,26,-9,-31,-4,0,-26
1501875783684271,-4,9,-30,-53,21,2,-6,-6
1501875783684271,-6,-11,-4,43,-9,-2,4,-9
1501875783686219,6,8,10,35,46,-1,2,-6
1501875783686219,2,8,-21,-36,-16,7,1,25
1501875783699283,6,-34,32,58,-11,0,8,22
1501875783699283,-18,-19,-44,-66,-27,-7,-3,-63
1501875783705247,0,23,28,19,9,-1,-6,1
1501875783705247,2,-18,-9,-46,-20,-2,17,55
1501875783722250,13,9,30,39,30,3,-4,-4
1501875783722250,-19,-29,-45,-20,8,-10,-11,-41
1501875783723208,-4,17,23,59,5,3,-9,2
1501875783723208,6,-32,2,15,-25,-8,3,3
1501875783744220,5,6,4,42,-3,8,6,4
1501875783744220,4,-15,12,-14,-2,5,7,18
1501875783746221,2,53,0,7,14,-4,-3,-3
1501875783746221,0,-33,7,-4,-7,3,-16,-17
1501875783758251,0,-3,-16,-3,-26,-3,2,14
1501875783758251,4,23,-16,26,-14,-2,5,25
1501875783767245,8,-16,5,5,17,2,2,14
1501875783767245,-5,22,21,45,27,4,1,-6
1501875783789281,-7,-30,-12,-35,-3,-3,-4,2
1501875783789281,-2,-2,-44,-49,-4,-7,-10,1
1501875783791225,4,33,11,-22,-17,-5,-2,-24
1501875783791225,2,-53,3,20,-12,3,6,36
1501875783804282,-10,12,25,28,12,-4,-4,-17
1501875783804282,8,7,16,34,-11,8,13,18
1501875783806226,8,37,-24,-16,12,-1,-3,-21
1501875783806226,-13,-29,20,26,14,-2,-4,26
1501875783818284,-2,54,-20,10,-20,-4,1,-15
1501875783818284,8,-36,-6,-2,-22,4,12,73
1501875783827247,-19,-34,-16,1,30,-5,-15,-65
1501875783827247,0,26,-17,-10,-13,-3,-13,-64
1501875783842286,4,8,13,24,15,1,3,13
1501875783842286,3,24,27,5,10,-4,-7,-31
1501875783843253,-2,-11,-17,-10,-13,5,4,33
1501875783843253,5,15,10,10,-28,-7,7,-9
1501875783864258,-8,-12,0,-19,-24,-2,-11,-18
1501875783864258,4,23,26,15,60,4,3,-12
1501875783866231,-9,-46,-9,-15,-13,-1,-7,21
1501875783866231,8,14,-8,-9,30,6,3,14
1501875783878275,5,27,-2,23,-12,0,2,-2
1501875783878275,-2,-51,5,-4,-7,0,3,38
1501875783887254,-7,-12,1,-1,-5,-3,-8,-65
1501875783887254,-2,5,13,17,-11,-5,1,14
1501875783902265,5,-12,1,-15,34,6,17,56
1501875783902265,-14,22,-26,-54,-5,-3,-25,-60
1501875783903222,-2,-16,1,28,-28,-4,2,25
1501875783903222,2,38,4,-27,46,0,-2,-8
1501875783924227,3,-15,3,-7,-8,-3,-2,-16
1501875783924227,-5,-6,26,8,0,1,2,2
1501875783926232,2,-20,-38,-37,-1,3,5,24
1501875783926232,-7,-16,-8,7,-34,-8,2,23
1501875783938259,-4,-10,7,19,15,4,-6,-36
1501875783938259,4,15,15,7,-1,-10,-4,-9
1501875783947234,13,40,18,-29,-8,-2,5,-2
1501875783947234,-12,-40,-14,52,-2,1,-3,24
1501875783962262,2,-2,-1,-57,12,-3,-8,-16
1501875783962262,2,-6,-10,-36,-45,-2,-4,-2
1501875783963223,-9,-19,-15,5,12,10,0,-35
1501875783963223,6,27,-3,15,-4,1,1,21
1501875783984224,-7,-23,12,-12,-9,-9,-7,-12
1501875783984224,4,29,-32,-10,15,5,5,-4
1501875783986237,-6,-6,32,0,-15,0,5,16
1501875783986237,5,6,2,-33,-4,-6,2,-8
1501875783998260,-7,11,12,20,-11,-2,-8,-7
1501875783998260,6,-5,1,37,-9,1,3,-1
1501875784007247,-4,-7,27,12,44,-5,1,9
1501875784007247,4,27,-29,-27,-6,5,2,12
1501875784022270,7,37,-2,27,-6,-2,2,-1
1501875784022270,-3,-34,8,11,-9,-4,-3,-9
1501875784023226,-3,17,8,27,-1,5,5,4
1501875784023226,5,20,-1,-3,24,3,-3,-49
1501875784044294,4,16,42,17,-10,2,3,31
1501875784044294,1,-43,-67,-61,55,0,13,37
1501875784046239,-13,0,25,13,-11,-4,-17,-35
1501875784046239,-6,-42,-12,-36,-26,-5,3,28
1501875784058228,-10,-27,-24,4,-4,-3,-3,5
1501875784058228,12,30,35,52,-32,-3,-5,-25
1501875784067240,-2,-23,-24,-25,31,2,-3,1
1501875784067240,0,24,25,26,6,-3,-5,-14
1501875784082307,2,-18,-39,-49,-10,-6,-2,6
1501875784082307,-10,37,38,33,-3,0,3,-2
1501875784083230,16,12,-34,-26,-19,0,12,48
1501875784083230,-10,-41,6,-3,-2,0,-15,-51
1501875784104273,6,16,0,16,0,0,6,11
1501875784104273,2,-4,2,-4,34,4,-1,-1
1501875784106243,-9,-16,7,23,-22,-3,1,4
1501875784106243,-9,-45,-2,-2,5,0,-6,-9
1501875784118309,-1,25,-3,-11,14,-6,0,13
1501875784118309,0,-31,-9,7,9,0,-2,-10
1501875784127268,-11,-22,-4,5,-18,-3,4,-28
1501875784127268,-5,3,-17,-51,-20,-7,-12,34
1501875784142273,-3,-4,-37,-10,-4,1,-3,-16
1501875784142273,-3,7,14,33,-13,-5,-2,-1
1501875784143241,14,54,11,-8,17,8,16,45
1501875784143241,0,-32,8,6,-14,-4,-5,-57
1501875784164300,3,0,7,16,23,14,3,0
1501875784164300,-4,-8,-18,-3,-8,1,-1,11
1501875784166246,2,15,27,-10,-1,-5,-4,21
1501875784166246,1,39,-41,4,-14,-3,2,-25
1501875784178306,-2,-43,0,-40,-17,2,1,-11
1501875784178306,-9,-5,24,-2,16,-6,-9,-10
1501875784187269,-2,-2,-34,-7,-59,-5,-4,-3
1501875784187269,8,23,6,-6,58,9,7,22
1501875784202295,-2,16,-6,22,-10,-6,5,0
1501875784202295,-1,-27,-9,-12,-10,-4,-2,20
1501875784203237,3,-17,2,-28,19,-2,0,-7
1501875784203237,-2,14,-4,18,-33,0,-1,9
1501875784224303,-4,-3,11,16,8,-5,-6,-25
1501875784224303,-4,-22,-23,-45,14,4,0,8
1501875784226250,-1,-11,3,3,-6,-2,-6,-14
1501875784226250,-6,6,4,36,-3,-7,4,-12
1501875784247298,-2,-17,13,-14,-16,3,-3,-5
1501875784247298,1,11,-35,-3,-24,-9,1,13
1501875784248241,-6,-4,-7,26,21,-1,-15,-15
1501875784248241,5,13,35,-7,38,0,5,16
1501875784262282,3,28,12,0,-9,3,6,15
1501875784262282,3,-18,4,22,11,5,-2,-5
1501875784263242,4,47,-14,12,21,-2,0,-2
1501875784263242,-2,-59,-35,49,-22,-5,-4,5
1501875784284282,1,7,24,-10,-8,1,6,15
1501875784284282,2,14,5,-24,-2,6,3,-11
1501875784286254,4,4,13,6,-6,-1,4,44
1501875784286254,-9,0,5,6,-28,-5,-8,-42
1501875784307243,-5,-4,-4,17,25,8,2,7
1501875784307243,-3,10,27,29,-16,3,1,3
1501875784308243,5,-10,-31,-39,-2,0,5,22
1501875784308243,-2,-1,4,-35,-9,-6,-18,-44
1501875784322271,-5,12,-9,6,-10,-4,-6,2
1501875784322271,-1,2,-7,16,4,-3,0,-8
1501875784323247,1,-20,15,21,16,2,-4,-6
1501875784323247,17,45,19,-23,5,6,13,37
1501875784344246,-10,-19,-18,0,0,-5,-5,-12
1501875784344246,11,35,-1,3,-19,0,2,3
1501875784346248,-14,-36,-5,-4,18,7,0,-13
1501875784346248,1,-9,-17,-14,-28,-7,2,17
1501875784367251,-3,-6,1,-29,-9,-1,1,-13
1501875784367251,10,48,8,-17,-1,-2,4,14
1501875784368248,1,-2,-18,19,-7,-5,-6,-46
1501875784368248,-6,-2,6,2,31,4,3,16
1501875784381246,8,12,6,12,11,7,-1,14
1501875784381246,-9,-54,-8,-14,-3,-6,-5,-22
1501875784388250,2,-2,10,-11,0,-2,-4,8
1501875784388250,-6,-4,-8,-1,-27,-1,-1,-9
1501875784404263,2,3,-13,15,11,-6,5,27
1501875784404263,-4,-14,7,-40,23,5,-6,-33
1501875784406248,4,14,2,44,-4,-1,1,17
1501875784406248,-4,-4,12,-40,-4,2,-1,-18
1501875784427277,-6,-45,-9,-33,-5,-5,-1,8
1501875784427277,-11,7,25,35,-23,-7,-6,-6
1501875784428260,-1,-5,-2,-11,-9,-8,0,8
1501875784428260,5,24,0,36,-24,5,15,42
1501875784441293,-1,19,17,-15,33,2,-13,-62
1501875784441293,-2,-33,-37,-7,-18,-4,-4,21
1501875784448320,2,-7,-13,-24,-2,2,2,1
1501875784448320,2,7,-16,10,6,-7,1,33
1501875784464293,-4,8,13,-22,-10,-3,-6,-54
1501875784464293,1,1,1,3,0,1,1,7
1501875784466278,2,14,3,-2,4,-1,1,12
1501875784466278,10,10,17,33,-11,-7,-2,-5
1501875784487295,-14,-30,-22,16,3,2,-2,-13
1501875784487295,-6,-19,-5,-33,34,4,-6,-4
1501875784488255,-11,-8,34,9,-17,-6,-7,-14
1501875784488255,5,13,-15,-8,18,7,7,15
1501875784501257,-12,-26,-10,31,-26,-7,-7,-11
1501875784501257,9,31,4,-5,13,8,3,-6
1501875784508295,9,23,-21,-10,7,0,2,7
1501875784508295,-12,-64,21,19,17,-7,-13,-1
1501875784524324,1,20,5,-19,-27,-6,-1,-12
1501875784524324,-7,-1,-28,-6,-34,-4,0,11
1501875784526288,3,6,16,8,36,10,3,-21
1501875784526288,11,15,-4,-14,-5,-1,7,3
1501875784547326,-1,0,-10,20,10,-2,-3,12
1501875784547326,-1,17,9,27,-15,-7,-3,2
1501875784548257,-7,4,-7,-31,-25,3,3,7
1501875784548257,-10,-11,2,2,47,-4,-6,6
1501875784561325,5,-2,-5,-11,8,4,-1,7
1501875784561325,8,-7,13,7,-29,-7,-2,10
1501875784568294,-14,-41,-12,-16,26,-4,-1,6
1501875784568294,-5,37,8,-1,-28,5,-8,-40
1501875784584299,22,25,-31,-31,-8,-6,2,44
1501875784584299,-10,-3,5,-13,17,0,3,6
1501875784586286,7,8,11,38,37,4,0,-6
1501875784586286,-21,-38,-9,-53,-36,-4,-9,-22
1501875784607289,8,14,1,30,-14,-6,0,25
1501875784607289,-9,-23,-8,-12,8,-1,0,-12
1501875784608275,8,30,-3,-6,10,-5,7,-1
1501875784608275,4,-14,12,16,-5,4,-6,1
1501875784621325,-9,-7,0,-13,19,1,5,15
1501875784621325,6,19,11,27,9,0,-4,-8
1501875784628276,-5,-29,-5,-15,-46,-11,-1,17
1501875784628276,6,24,9,11,26,7,3,-21
1501875784644327,-6,-25,-4,0,-22,-5,0,-31
1501875784644327,-2,4,4,0,-11,3,7,22
1501875784646275,3,-7,9,11,13,6,-2,3
1501875784646275,5,9,-6,3,22,0,-2,11
1501875784667309,-6,-12,9,-8,-28,-5,-3,7
1501875784667309,-5,13,5,1,15,0,-1,-12
1501875784668264,-1,21,-5,3,-20,-5,0,-29
1501875784668264,-1,-23,16,-18,1,-4,-7,20
1501875784681327,4,23,-16,37,-2,3,1,1
1501875784681327,-2,-32,-4,-5,1,-5,-4,-5
1501875784688306,-7,1,4,-12,-5,-1,-9,-15
1501875784688306,4,17,17,13,-27,-10,9,12
1501875784712308,2,19,28,21,32,16,3,-9
1501875784712308,11,12,1,-16,2,-2,1,6
1501875784713268,-1,-15,-10,9,18,-7,0,5
1501875784713268,-5,-8,-3,9,8,13,2,-27
1501875784727308,5,-27,-17,-25,-21,-12,10,59
1501875784727308,-18,-2,-17,-29,-6,-2,-27,-86
1501875784728268,6,9,5,8,-1,3,-6,3
1501875784728268,-1,17,-1,1,-9,-3,5,-4
1501875784740310,2,-6,11,6,13,1,7,-4
1501875784740310,4,-9,-17,-6,19,1,6,43
1501875784749288,-2,-18,-23,-29,-34,-3,-2,5
1501875784749288,1,-9,-8,-5,3,-3,-4,0
1501875784764302,2,7,22,-7,-10,1,8,21
1501875784764302,-3,46,5,29,-1,-3,-9,-5
1501875784766270,-8,-33,-20,3,26,3,-4,6
1501875784766270,1,5,-9,-26,-3,0,6,5
1501875784787311,2,-9,4,33,-8,-5,-1,13
1501875784787311,6,18,17,9,14,10,10,25
1501875784788272,-9,-1,-1,19,23,-2,-12,-1
1501875784788272,1,-6,-9,-10,-45,-5,-3,4
1501875784800313,-4,16,0,-27,17,1,-4,-5
1501875784800313,3,-35,15,5,-14,-3,2,24
1501875784809291,-7,5,-34,37,-25,-1,-6,-30
1501875784809291,-1,6,8,-63,13,0,5,9
1501875784824343,-4,11,-17,11,6,-1,-14,-11
1501875784824343,-5,-36,-9,-2,-5,-2,10,12
1501875784826292,4,26,29,-6,-30,-2,-4,-19
1501875784826292,-5,2,-26,18,0,-7,-14,-30
1501875784847346,5,6,14,-11,25,6,-1,-13
1501875784847346,-8,-33,-26,-17,-19,-7,-2,-7
1501875784848278,6,-2,5,-13,-24,1,5,8
1501875784848278,-6,-3,-3,30,-8,-1,5,22
1501875784860312,-8,3,-13,-17,12,0,-6,-24
1501875784860312,3,21,14,21,8,-10,-9,-16
1501875784869291,2,19,10,22,-3,11,6,1
1501875784869291,4,-3,4,-13,-4,0,1,29
1501875784884286,-2,-20,7,13,2,-5,0,5
1501875784884286,-2,38,9,-17,-27,1,-3,-58
1501875784886286,-2,-13,19,-13,6,-3,5,11
1501875784886286,-5,8,-8,10,6,-3,-13,-27
1501875784907351,-4,-19,1,23,1,-9,-3,29
1501875784907351,3,24,-8,4,-17,0,5,7
1501875784908292,0,-37,22,-6,30,2,-5,4
1501875784908292,0,5,1,6,-25,-1,5,0
1501875784920327,-2,8,-8,-11,61,5,-3,-19
1501875784920327,4,-6,20,1,-12,-2,2,18
1501875784929296,2,20,-32,-9,9,-4,3,37
1501875784929296,0,-10,6,15,-14,1,3,-30
1501875784944342,-9,-1,7,21,-24,-9,-21,-32
1501875784944342,1,-23,-47,11,6,8,9,34
1501875784946294,-1,12,16,-60,17,4,-4,-17
1501875784946294,-1,-12,-1,-17,-1,-1,6,7
1501875784967282,2,-11,-2,11,-25,-7,-5,9
1501875784967282,-1,13,0,6,29,2,-3,-2
1501875784968283,-6,-13,-5,-37,-30,-4,-1,-15
1501875784968283,4,32,-4,7,12,-1,1,8
1501875784980323,-3,-44,5,-33,-11,6,5,2
1501875784980323,5,5,10,54,9,-2,4,7
1501875784989300,-4,-12,-27,-14,10,-7,-7,2
1501875784989300,1,28,14,-2,-19,-1,-3,3
1501875785004326,-5,-41,-13,-12,2,6,12,18
1501875785004326,-3,-22,-2,-33,-35,0,-9,-38
1501875785006317,3,15,16,16,23,1,3,-10
1501875785006317,-1,-32,8,4,14,4,2,36
1501875785027326,3,33,3,1,-39,-14,-12,-43
1501875785027326,-1,-37,-40,-12,14,1,7,12
1501875785028286,-7,-4,16,-2,-30,-3,-4,-7
1501875785028286,4,2,-11,-17,24,-2,-6,0
1501875785040324,7,47,1,2,4,7,11,4
1501875785040324,1,-17,-12,-34,9,-6,-1,11
1501875785049298,-1,18,23,27,-10,-6,4,-15
1501875785049298,-4,-4,-9,22,-3,1,-9,2
1501875785064357,-5,-23,-17,-28,-6,-2,-7,-18
1501875785064357,2,39,14,8,-12,-1,-2,-2
1501875785066319,-1,-22,11,29,-6,4,-1,2
1501875785066319,-4,-9,-15,-24,5,1,2,-9
1501875785087330,2,3,8,13,5,0,4,14
1501875785087330,-8,8,6,11,-10,-7,-12,-38
1501875785088289,11,2,-3,-4,-26,-3,13,81
1501875785088289,-13,-18,-11,-11,69,-3,-24,-93
1501875785100332,-1,-23,-8,9,-2,-1,-6,1
1501875785100332,-3,-9,33,9,-13,1,11,29
1501875785109300,2,10,-52,-45,-8,-7,-7,-45
1501875785109300,0,10,24,-11,-13,-2,-5,15
1501875785124340,-4,4,-1,9,-14,-2,3,1
1501875785124340,-3,-4,14,-4,9,-2,-6,-10
1501875785126322,3,-2,18,44,19,5,7,10
1501875785126322,-4,2,-19,-28,-22,-4,2,-5
1501875785147339,-4,0,13,-19,-2,3,-1,-19
1501875785147339,3,28,12,2,-16,-9,1,17
1501875785148294,-4,-23,-17,38,24,9,-6,1
1501875785148294,2,-3,-3,-12,12,-4,4,7
1501875785169321,2,2,2,-21,-7,1,3,15
1501875785169321,-3,0,-9,-4,0,-2,-3,-3
1501875785171327,1,15,4,-11,-2,2,3,-16
1501875785171327,3,-5,8,25,16,0,13,25
1501875785183358,-10,3,4,-20,-10,-6,-24,-12
1501875785183358,1,-17,4,0,-5,3,-6,-2
1501875785192314,-7,-10,-37,-24,14,-3,-8,-9
1501875785192314,3,0,-7,11,-21,2,9,32
1501875785207367,3,10,-2,12,0,-2,12,-7
1501875785207367,5,20,-15,-24,12,9,2,23
1501875785208303,-1,-8,5,-4,-20,-6,-10,-15
1501875785208303,-6,-20,-5,3,-2,0,1,-3
1501875785229368,1,8,-9,8,-15,-8,3,18
1501875785229368,-5,-13,-8,-11,21,1,2,-8
1501875785231309,-3,4,8,-2,-49,-6,1,4
1501875785231309,8,21,1,10,42,4,0,-8
1501875785244366,0,-7,8,17,-9,0,0,10
1501875785244366,-9,-14,-30,25,6,-3,-2,-2
1501875785246309,3,10,-12,-29,-16,-8,-6,-3
1501875785246309,-4,-6,24,28,-8,3,0,9
1501875785267343,8,33,-4,-11,15,4,6,12
1501875785267343,-7,-22,-4,-3,-11,-5,-6,-33
1501875785268302,1,30,17,20,6,1,-1,2
1501875785268302,-4,9,-17,-2,-13,-4,-13,-34
1501875785289366,-3,-55,-2,3,12,4,1,-1
1501875785289366,2,15,18,0,-6,-1,4,16
1501875785291299,-1,-13,-6,-1,18,2,-1,-8
1501875785291299,-5,-13,9,-23,-5,5,3,6
1501875785304319,1,8,7,-2,-17,-2,-1,3
1501875785304319,8,24,1,-19,-8,-2,2,29
1501875785310339,-11,-30,-41,-30,20,-1,0,-42
1501875785310339,1,4,0,-17,-4,-2,-5,-11
1501875785327374,-6,-5,-15,10,-4,-1,-2,-12
1501875785327374,3,19,17,-12,-11,1,-1,-6
1501875785328312,-1,-1,-2,4,-10,-7,0,7
1501875785328312,5,-5,-6,8,11,6,5,10
1501875785349368,-10,10,-9,21,35,1,-4,-14
1501875785349368,-1,13,6,3,9,4,4,10
1501875785351335,-7,-18,-4,-43,-21,2,-7,-15
1501875785351335,1,-13,-3,4,-67,-4,1,5
1501875785364323,6,7,16,-1,44,-3,-5,1
1501875785364323,1,-16,-3,19,-4,2,5,22
1501875785370355,-4,9,-5,63,18,0,-1,16
1501875785370355,-6,-3,10,-53,-13,0,4,5
1501875785387377,1,-2,-10,-6,-11,0,-4,-24
1501875785387377,2,-6,9,-21,1,-3,-2,-10
1501875785388307,-5,-14,-4,3,17,1,0,15
1501875785388307,10,13,1,24,-17,-9,2,11
1501875785409344,0,8,17,21,34,11,6,14
1501875785409344,-9,-35,-34,-1,8,-1,-2,-9
1501875785411342,2,12,13,8,-5,0,-5,-4
1501875785411342,-1,-9,7,6,16,-1,4,18
1501875785424328,0,11,-12,-29,-24,-4,-5,-11
1501875785424328,-3,-15,9,34,-27,-2,-7,-19
1501875785430346,0,14,-4,-27,6,-4,4,26
1501875785430346,-6,-6,2,13,12,0,-4,-38
1501875785447378,1,-29,-11,-12,-12,-1,1,-20
1501875785447378,-1,10,-6,-13,14,-1,-1,1
1501875785448309,-3,-2,-3,29,-21,-11,1,9
1501875785448309,6,17,26,6,14,4,-7,0
1501875785469343,-7,-34,-20,4,-12,-3,-2,5
1501875785469343,-1,5,-17,-12,0,-1,-4,-13
1501875785471342,4,5,15,20,26,0,1,-4
1501875785471342,-4,21,-17,-5,-15,-2,5,3
1501875785483338,-5,-36,9,5,-11,1,-1,12
1501875785483338,1,-7,24,-6,-6,-6,0,16
1501875785490383,3,15,-1,-8,-9,5,-4,-3
1501875785490383,-2,6,-6,0,26,-4,0,-13
1501875785507390,-2,12,-2,12,-18,-5,-1,-1
1501875785507390,-1,-4,-7,-31,20,-2,-1,3
1501875785508321,2,-13,5,-3,-12,3,2,-1
1501875785508321,-4,-20,-9,1,-9,-6,-5,12
1501875785529376,1,31,7,9,8,-2,1,17
1501875785529376,-7,-36,1,17,-9,-4,-5,-39
1501875785531345,5,24,9,-21,-12,0,6,19
1501875785531345,-11,-18,-13,-8,33,1,-14,-33
1501875785543354,3,0,10,10,-21,-11,-2,38
1501875785543354,-3,-1,10,19,24,9,-6,-35
1501875785550351,-10,-23,-36,-22,-8,-4,-8,-27
1501875785550351,1,11,-3,0,-11,-4,-2,7
1501875785567332,2,1,-11,-11,-5,-2,2,-3
1501875785567332,-12,-28,6,31,14,-6,0,-4
1501875785568317,1,0,15,-5,-61,6,4,-12
1501875785568317,11,-3,1,-9,65,4,11,28
1501875785589318,-7,7,5,-7,-12,-1,-12,-11
1501875785589318,5,29,-12,-23,0,2,0,6
1501875785591318,-7,-5,12,14,-14,-7,1,-14
1501875785591318,0,-10,8,-1,-8,-1,-4,14
1501875785604321,6,37,-15,-14,-9,-2,7,2
1501875785604321,-12,-36,-21,-4,21,2,-2,-8
1501875785610358,-1,3,12,10,4,-2,-4,-3
1501875785610358,-1,6,19,11,-12,1,12,22
1501875785634334,-10,-9,-9,-2,2,-5,-14,-41
1501875785634334,5,11,3,-4,-50,-2,-1,15
1501875785636319,-4,0,-7,-11,60,7,2,15
1501875785636319,4,-8,0,46,-36,-6,0,-13
1501875785649392,-2,-16,-21,-65,-15,-6,0,-7
1501875785649392,4,15,0,-17,-3,3,5,37
1501875785651353,-5,-23,3,6,-7,-11,-10,-34
1501875785651353,-9,4,-17,-6,-4,2,-13,-24
1501875785663385,7,7,11,24,9,12,8,5
1501875785663385,2,9,-8,-19,0,1,0,-6
1501875785672323,5,0,-6,1,5,-4,0,29
1501875785672323,-6,-16,4,-20,-8,-9,4,32
1501875785687386,-8,-4,2,22,40,1,-10,-61
1501875785687386,1,5,2,-5,-8,1,1,7
1501875785688324,4,8,15,20,46,17,6,4
1501875785688324,3,12,-9,0,-38,-6,-4,-6
1501875785709323,-3,-40,22,16,-29,-4,3,10
1501875785709323,2,24,-11,-42,-13,-8,-5,-21
1501875785711346,0,-2,4,7,14,-4,-5,-4
1501875785711346,-9,-14,-16,3,16,7,4,17
1501875785723393,1,3,-6,-2,-12,-1,1,-6
1501875785723393,-5,-16,4,9,-2,-9,-7,-22
1501875785732336,5,36,2,1,-22,0,4,16
1501875785732336,-2,-9,-8,-26,4,-3,-5,-31
1501875785747391,-1,3,2,41,15,6,1,17
1501875785747391,2,-19,3,-17,-21,-6,5,19
1501875785748330,-1,-5,5,0,15,3,-7,-43
1501875785748330,4,10,-6,-2,-8,-1,2,10
1501875785768366,-3,-15,-13,-19,0,1,5,9
1501875785768366,0,6,4,33,-21,-2,-5,5
1501875785777339,-1,-19,4,-5,-2,2,5,32
1501875785777339,10,20,7,-42,11,6,3,-53
1501875785783369,-9,-17,1,3,1,-4,-6,4
1501875785783369,-4,13,-26,20,12,-1,2,9
1501875785792329,1,6,-4,-19,-12,-6,-8,16
1501875785792329,-7,-41,11,28,17,-1,-1,-1
1501875785807356,4,27,9,-11,-28,-2,4,13
1501875785807356,6,-4,0,11,39,5,2,-5
1501875785808342,-2,0,-10,-15,5,-4,-1,10
1501875785808342,-2,15,4,1,-28,-7,-6,-16
1501875785829370,3,-19,-12,-8,27,2,6,10
1501875785829370,-9,6,2,-14,2,1,-7,-29
1501875785831331,0,-3,9,19,-26,-4,-5,-7
1501875785831331,5,13,-9,28,21,4,5,35
1501875785843392,-4,37,-3,-22,-16,-4,1,-19
1501875785843392,2,-29,-1,-10,-32,-3,-5,-33
1501875785852345,-4,-7,-4,0,9,-3,-2,-11
1501875785852345,-6,-2,-1,-20,1,2,0,-2
1501875785867341,3,14,5,8,4,-2,2,7
1501875785867341,4,19,-4,-5,15,5,10,11
1501875785868332,-8,-33,-2,3,-28,-10,-9,12
1501875785868332,-6,-10,-11,-4,-10,-3,-7,3
1501875785889373,5,3,3,3,7,3,2,6
1501875785889373,1,18,15,9,-4,1,3,10
1501875785891334,3,0,-6,-14,17,4,8,18
1501875785891334,4,15,10,22,-52,-10,-2,-4
1501875785903398,-6,-16,-37,-22,39,5,-4,-22
1501875785903398,0,3,0,-4,-11,0,-6,-2
1501875785912346,-3,-6,7,-4,19,1,2,-8
1501875785912346,2,-3,-1,2,-3,0,-1,5
1501875785927415,1,11,6,5,-17,-5,5,11
1501875785927415,1,-9,7,8,13,-3,2,6
1501875785928338,-1,-13,-7,1,-24,0,0,-19
1501875785928338,-3,-6,-20,-13,21,-2,-4,-2
1501875785949403,2,1,6,8,-17,2,0,13
1501875785949403,-1,-3,-2,4,8,-1,-3,11
1501875785951370,2,1,3,-4,9,2,1,0
1501875785951370,1,13,11,18,19,-1,-1,9
1501875785963379,4,18,6,-12,-7,0,3,-4
1501875785963379,-13,-26,-24,-7,34,-5,-5,-5
1501875785972374,7,10,4,16,-14,1,3,13
1501875785972374,-1,-9,-1,0,11,2,7,1
1501875785987411,-11,-1,2,10,7,-6,-23,-36
1501875785987411,0,7,3,-28,-15,1,1,1
1501875785988349,4,18,3,3,-10,-4,-3,-20
1501875785988349,-4,-15,-25,-32,8,3,-1,23
1501875786009404,0,-27,10,-9,-55,-6,6,13
1501875786009404,1,-1,12,49,61,7,4,2
1501875786011375,-5,9,-4,-21,-35,0,-6,-22
1501875786011375,1,-3,-7,-5,9,1,-2,-6
1501875786023409,3,44,3,25,15,-2,-1,-2
1501875786023409,2,-26,2,-11,-14,-3,-2,2
1501875786032354,-3,-2,2,16,24,1,3,-6
1501875786032354,0,1,1,-18,-29,0,1,10
1501875786047386,2,-7,-8,-8,-22,1,5,19
1501875786047386,-6,1,-2,-7,42,-1,-11,-6
1501875786048349,5,34,-3,-14,15,-2,1,25
1501875786048349,-7,-38,8,9,-20,-5,-5,-42
1501875786069344,-2,-7,4,-1,-8,-2,0,21
1501875786069344,3,3,-11,-13,-1,0,5,7
1501875786071377,-5,-11,0,18,2,-2,-4,-18
1501875786071377,-3,11,-21,-15,20,1,0,9
1501875786092363,-2,-13,8,-1,-2,-2,-2,-12
1501875786092363,1,19,5,5,-22,-4,1,1
1501875786093347,-6,-34,-18,-34,6,0,-6,15
1501875786093347,-4,-29,1,17,-17,-3,-5,-33
1501875786106389,1,-1,6,-27,15,-5,-6,5
1501875786106389,-1,0,16,30,-16,-1,3,-35
1501875786113409,-7,-3,-16,-24,-13,3,-2,12
1501875786113409,-1,16,-1,-1,13,-4,-1,5
1501875786129409,-3,-10,-20,-12,20,5,3,7
1501875786129409,-2,-9,18,13,-10,-4,2,24
1501875786131381,10,26,8,9,-1,-2,5,-4
1501875786131381,0,-5,-2,17,-38,-5,-2,-4
1501875786152391,-6,3,4,3,25,9,0,-7
1501875786152391,0,18,-7,-12,-2,-2,-1,23
1501875786153350,-2,-6,23,19,-2,-3,2,-19
1501875786153350,6,18,-23,-7,-7,-1,-5,31
1501875786167362,1,-6,-4,0,-2,-3,4,-14
1501875786167362,6,-18,4,4,-25,-3,-2,-19
1501875786168352,-4,15,-10,-11,12,1,-2,7
1501875786168352,4,5,10,18,19,-1,2,8
1501875786189413,0,6,22,34,5,3,1,7
1501875786189413,4,10,-11,-13,1,2,7,13
1501875786191386,-5,-18,-23,-11,-5,-4,-5,-29
1501875786191386,-11,-15,19,6,-19,-2,-3,-23
1501875786212387,4,3,-18,1,1,-4,1,20
1501875786212387,-6,12,9,-12,-13,-5,-5,-14
1501875786213354,1,-5,3,21,-11,-3,5,31
1501875786213354,-7,-11,-20,-13,14,-4,-13,-43
1501875786225396,-5,-1,7,-31,-32,-9,-6,3
1501875786225396,-2,-2,-7,6,-1,3,6,-2
1501875786234390,-1,-5,18,26,2,0,-16,-57
1501875786234390,-1,14,1,9,7,9,6,17
1501875786249372,-1,14,-15,-27,-11,-5,-1,-25
1501875786249372,-1,-31,-6,-1,-14,-5,-7,40
1501875786251368,6,26,-1,-10,-20,-1,6,10
1501875786251368,-5,-37,6,12,33,-1,-1,15
1501875786272369,-2,-3,3,14,2,1,-2,3
1501875786272369,1,-2,-9,-22,6,1,-1,-17
1501875786273367,-2,-12,-5,-12,4,2,2,20
1501875786273367,2,17,6,9,0,-5,-2,8
1501875786286396,1,-15,0,24,10,0,1,14
1501875786286396,-9,-12,-5,-23,-34,-7,-1,-9
1501875786293431,-1,5,2,-3,-22,3,8,24
1501875786293431,14,18,15,13,58,15,4,-11
1501875786309419,-4,-21,-33,-33,-37,-4,-6,-14
1501875786309419,0,19,9,17,20,0,-3,-6
1501875786311395,-2,17,-6,-15,-2,-2,-7,-11
1501875786311395,1,-31,5,-14,-35,-1,6,27
1501875786332387,2,35,8,12,5,-1,1,-2
1501875786332387,-3,14,-15,2,4,-4,-11,-26
1501875786333362,8,-17,-8,-5,9,-5,1,23
1501875786333362,-7,1,3,14,-32,-6,-2,-10
1501875786346421,7,4,18,-3,38,9,6,20
1501875786346421,-6,-5,0,-7,-3,3,-2,-49
1501875786353442,-5,-4,1,-4,6,-3,-4,-7
1501875786353442,1,20,-11,-1,-48,-8,-6,11
1501875786369406,-3,-13,8,19,14,2,-2,-34
1501875786369406,5,16,2,-4,-11,-2,4,24
1501875786371397,0,-45,-10,5,38,3,1,-19
1501875786371397,-11,-13,-8,-19,-3,-1,-3,7
1501875786392369,-1,-9,-8,-7,-34,-1,3,2
1501875786392369,-4,5,13,12,9,3,-4,10
1501875786393373,3,14,-11,20,13,-3,-1,-8
1501875786393373,-1,-24,-10,-24,2,-4,-5,1
1501875786406429,-3,-29,-1,-12,-2,2,-3,5
1501875786406429,-5,-8,-10,-10,2,0,-2,0
1501875786413403,-2,22,22,18,-9,0,4,6
1501875786413403,-3,30,-25,-4,26,-2,-2,-1
1501875786429436,-1,-23,-1,-11,17,-1,-3,-3
1501875786429436,2,15,1,-2,-46,-6,-3,14
1501875786431400,-3,-23,-2,-21,81,2,3,13
1501875786431400,-8,21,4,25,-16,-7,-5,-68
1501875786452376,-4,-4,-30,-59,-2,-8,-9,-5
1501875786452376,-1,-31,-9,10,22,1,-2,8
1501875786453368,-1,3,10,-19,-54,-3,-1,-10
1501875786453368,1,2,15,11,-18,1,1,25
1501875786466434,6,39,18,27,13,-2,-1,0
1501875786466434,-2,-33,-34,-17,7,-1,-2,-10
1501875786473371,1,43,-16,-7,2,-6,2,3
1501875786473371,-4,-59,-6,-15,-11,2,-3,18
1501875786489441,-5,-5,4,0,7,1,-8,-45
1501875786489441,2,6,10,-5,-56,-3,2,-17
1501875786491405,-2,-1,6,23,9,0,-3,18
1501875786491405,5,22,-2,-7,21,6,0,-24
1501875786512391,4,-8,-16,7,-31,-5,3,36
1501875786512391,-4,-21,3,-8,39,-2,-10,-17
1501875786513370,-10,-27,-3,10,-13,0,-3,-20
1501875786513370,15,42,15,-2,-7,-2,3,12
1501875786525438,-5,-20,2,1,3,3,7,21
1501875786525438,3,28,2,4,-33,-9,-3,-7
1501875786534372,3,4,12,19,14,7,1,-3
1501875786534372,1,-15,-18,-36,20,0,7,28
1501875786549418,-3,7,13,7,-29,-2,-5,-15
1501875786549418,2,-7,6,9,69,-4,3,34
1501875786551373,-5,-12,0,-8,-17,-3,-7,-40
1501875786551373,0,9,1,-20,-10,-2,-2,-4
1501875786572403,0,8,5,10,32,1,1,-16
1501875786572403,-7,-3,-5,0,-33,-6,-2,7
1501875786573375,3,-19,-16,-15,-11,-4,-1,13
1501875786573375,-7,-9,0,10,-8,-4,1,9
1501875786585411,2,9,-3,4,18,-1,-2,-6
1501875786585411,8,36,3,-7,11,7,3,4
1501875786594376,-9,-37,7,-4,-9,-4,-3,0
1501875786594376,-1,14,-5,19,-3,3,1,-16
1501875786609448,-3,10,-4,12,-15,-8,5,31
1501875786609448,3,-19,-6,-18,62,1,-3,4
1501875786611376,7,22,0,7,-22,0,-10,-17
1501875786611376,-3,4,21,-10,-10,-2,0,-2
1501875786632395,-5,-4,-8,-2,6,-2,-4,-14
1501875786632395,2,-1,-10,-6,-23,1,9,20
1501875786633378,-8,0,4,9,-12,-8,1,14
1501875786633378,7,17,13,-11,46,5,-6,-31
1501875786645390,-4,-41,-13,-6,-10,-2,-2,11
1501875786645390,-4,-6,-3,4,-16,0,-1,-1
1501875786654388,-3,-4,2,7,-15,-5,1,9
1501875786654388,-2,16,4,8,-11,2,1,-3
1501875786669446,6,12,-1,-11,13,5,3,-1
1501875786669446,-5,-7,-1,17,-1,-5,-5,0
1501875786671401,1,13,3,26,-19,3,-6,-10
1501875786671401,-2,-23,-6,-20,37,4,4,7
1501875786692396,4,7,4,15,-22,-1,3,4
1501875786692396,-9,-14,4,4,-20,-2,-7,-14
1501875786693384,4,2,3,-13,-16,3,2,16
1501875786693384,2,16,-28,-7,-12,-3,-2,5
1501875786705397,-9,-15,-3,-10,-10,-4,-5,-21
1501875786705397,-4,-22,2,13,0,4,2,-3
1501875786714392,-9,-24,-6,-4,13,-4,-6,-13
1501875786714392,-2,12,1,-3,-5,0,1,17
1501875786729383,2,-4,11,-18,5,-3,1,17
1501875786729383,-2,4,-1,1,-10,-4,-4,-48
1501875786731383,-3,9,-15,-3,33,7,-3,-21
1501875786731383,-5,-13,9,24,-7,-8,-3,-7
1501875786752395,2,-1,-7,10,-7,6,2,8
1501875786752395,4,11,11,5,24,0,4,22
1501875786753394,4,5,-4,-21,-37,-6,-2,10
1501875786753394,-5,-2,5,23,22,7,-3,-39
1501875786765424,-1,8,0,-15,6,0,-3,-11
1501875786765424,2,3,1,2,-14,5,7,2
1501875786774421,0,-12,-10,-10,10,-6,-3,40
1501875786774421,4,11,5,5,-7,-6,-1,14
1501875786789447,0,0,3,24,-12,-4,-4,-3
1501875786789447,1,11,-4,-33,16,5,4,5
1501875786791417,3,9,12,-1,4,-1,3,-10
1501875786791417,-7,-9,3,-8,-15,-1,-7,1
1501875786812403,-3,-32,-20,1,1,-4,-2,12
1501875786812403,3,16,1,13,-19,-6,-3,5
1501875786813393,-8,-16,-14,-29,43,7,4,10
1501875786813393,4,-1,-2,-1,-27,-3,3,-6
1501875786825451,-5,16,13,13,-27,-5,-4,-20
1501875786825451,11,33,0,6,54,10,-2,-5
1501875786834409,-5,-47,-24,4,-33,-9,-2,13
1501875786834409,-4,-10,3,-21,-15,0,4,15
1501875786849423,-2,-19,-17,0,22,-2,-6,-1
1501875786849423,-6,-5,5,-4,-14,-1,0,3
1501875786851393,-1,8,4,10,16,-3,-6,-31
1501875786851393,1,2,-14,-12,-8,4,3,2
1501875786872407,1,9,10,6,8,-3,0,4
1501875786872407,-1,-3,-7,-3,-17,-4,-1,6
1501875786873392,0,12,11,9,-20,-5,-3,-12
1501875786873392,0,-22,-4,0,29,5,0,11
1501875786885432,3,20,16,11,-2,1,6,8
1501875786885432,-1,-14,-20,-23,-17,-2,-12,3
1501875786894423,4,10,7,0,-5,-1,-2,-12
1501875786894423,-1,8,-5,-1,-1,-5,-3,-7
1501875786909432,0,19,12,11,6,1,0,-4
1501875786909432,-3,-35,-4,-9,-2,-1,2,-2
1501875786911423,2,16,-1,-3,10,2,3,23
1501875786911423,3,-1,-1,10,-11,-2,1,1
1501875786932411,-7,-31,-12,-22,20,-1,-3,-29
1501875786932411,-5,7,12,16,-15,-4,-3,-10
1501875786933397,0,7,17,-3,-5,2,0,-2
1501875786933397,1,-3,-26,-8,6,-6,-2,7
1501875786945462,6,14,0,-5,-2,1,3,19
1501875786945462,-7,-6,3,26,3,-1,1,-15
1501875786954428,5,5,-11,-27,1,1,-1,23
1501875786954428,-4,0,12,-1,-18,-3,-2,-12
1501875786969429,-3,-9,-5,-5,-1,-2,0,0
1501875786969429,3,3,-8,-10,-43,-8,-8,0
1501875786971399,-7,12,9,8,29,9,5,1
1501875786971399,-3,-33,9,19,-9,-6,-3,-19
1501875786992410,-1,-19,-4,11,3,6,-3,-12
1501875786992410,1,8,-5,-36,-5,-2,2,3
1501875786993416,-5,-10,-10,-2,-8,-4,0,3
1501875786993416,1,13,7,4,18,-2,-5,-28
1501875787005473,-5,2,-1,-7,-12,-2,-2,-8
1501875787005473,0,6,-4,8,8,1,2,10
1501875787014437,1,-6,-2,6,-1,-3,-5,-11
1501875787014437,-1,-4,-11,-16,2,2,3,22
1501875787029438,5,5,-5,-3,-5,-2,-2,13
1501875787029438,-12,17,2,-2,-2,-5,-4,-20
1501875787031423,1,-20,-9,2,10,0,0,-3
1501875787031423,1,10,12,5,-12,-2,1,14
1501875787052422,6,-6,-6,-8,5,2,0,4
1501875787052422,5,2,7,-2,3,0,-1,-9
1501875787053402,-3,-5,12,20,-21,-4,-1,-12
1501875787053402,-7,-13,-5,9,17,0,-1,-7
1501875787074450,0,17,6,0,-27,0,-2,-9
1501875787074450,3,-14,-10,3,70,9,6,26
1501875787076439,1,11,3,0,-16,-6,-2,-4
1501875787076439,0,-3,-28,-7,-8,-1,0,16
1501875787089416,-1,13,4,-3,-28,-4,-4,-17
1501875787089416,-8,-18,1,8,1,-7,-4,-13
1501875787091403,0,5,-1,-29,17,3,4,0
1501875787091403,-2,2,6,4,-1,1,0,-10
1501875787119447,-1,-9,-8,-4,5,-4,-1,12
1501875787119447,-2,-12,6,6,-6,1,-2,2
1501875787121419,-2,-4,-16,-8,-2,-1,-3,-15
1501875787121419,7,8,10,-8,6,0,2,4
1501875787134454,-6,11,13,3,-19,-5,-1,-5
1501875787134454,5,-2,1,1,15,4,-4,-19
1501875787136442,-4,-6,0,12,-8,-3,1,2
1501875787136442,0,-12,0,-4,-5,1,-4,-4
1501875787149451,-5,12,2,-6,18,-1,-1,5
1501875787149451,6,21,1,-7,-6,3,8,38
1501875787151417,4,9,-9,-5,-10,-3,-5,-26
1501875787151417,-8,-4,5,5,-28,-2,-5,-19
1501875787172426,-1,-13,4,13,37,2,2,5
1501875787172426,3,9,5,5,-21,2,4,1
1501875787173409,-4,-17,-8,-4,10,-1,1,5
1501875787173409,1,4,5,12,-16,-1,2,15
1501875787194471,-3,-10,-12,-17,16,0,-5,-5
1501875787194471,1,10,13,-2,-15,-1,-2,-5
1501875787196410,3,5,15,6,-31,-1,3,16
1501875787196410,0,-10,-17,-12,25,1,-3,-6
1501875787209453,0,-8,-10,-3,-23,-3,-2,10
1501875787209453,-4,-6,0,12,14,0,-3,-4
1501875787215450,1,6,7,4,3,1,0,-5
1501875787215450,-2,19,6,0,-3,-1,3,6
1501875787231429,-6,-12,-13,-14,16,0,-2,-5
1501875787231429,2,-13,-12,4,-14,-5,-5,21
1501875787239453,-7,1,6,0,-15,-5,-6,-40
1501875787239453,-3,-8,1,20,36,9,5,4
1501875787254480,6,28,14,-1,-4,0,0,-4
1501875787254480,-9,-41,-11,-9,-6,0,-3,-16
1501875787256417,-3,-7,-7,2,28,1,1,16
1501875787256417,-2,3,-4,-14,-19,-3,-6,-6
1501875787268461,3,4,6,2,-9,0,2,-5
1501875787268461,2,4,8,4,-14,-7,-1,-1
1501875787275480,-2,3,-27,-15,13,2,-5,1
1501875787275480,-2,-3,-3,-11,10,-1,3,7
1501875787292435,-6,-10,2,6,2,0,-1,-14
1501875787292435,7,29,-5,-16,-7,-6,-1,6
1501875787293426,-1,-21,7,10,-5,-4,-3,3
1501875787293426,-4,-4,-5,-1,-11,-7,-6,3
1501875787314456,-1,-2,-11,-6,14,4,1,7
1501875787314456,-7,0,2,0,5,-1,0,-2
1501875787316452,-4,-18,7,17,-21,-2,-4,-4
1501875787316452,4,-2,-4,-2,12,1,0,3
1501875787328457,2,-5,-2,-4,-7,1,1,15
1501875787328457,0,36,3,-2,-17,-3,1,7
1501875787335493,2,-37,-10,-12,13,2,-2,-31
1501875787335493,-5,-16,1,8,-15,-10,-6,-4
1501875787352435,-1,10,-1,9,-12,-4,-5,-4
1501875787352435,2,-16,-3,-10,21,5,5,14
1501875787353429,3,44,2,-15,10,-1,-3,-6
1501875787353429,1,-8,-2,-6,-2,2,-1,-9
1501875787374489,-3,-3,-5,4,-20,-5,-1,-1
1501875787374489,2,6,0,8,-1,-4,1,4
1501875787376434,-6,-12,4,6,-7,-8,-10,-9
1501875787376434,1,14,7,2,36,15,6,-3
1501875787388496,-1,-6,-18,-6,2,-1,0,1
1501875787388496,-3,-18,2,-11,-12,-3,-6,12
1501875787397432,0,15,-8,0,-1,-1,4,-10
1501875787397432,5,-3,6,-3,-19,-6,-6,-1
1501875787412487,-11,-25,12,8,-11,-6,-3,-4
1501875787412487,3,8,-1,17,42,8,0,-19
1501875787414431,-1,-6,-5,-4,-20,-1,4,15
1501875787414431,-2,-9,-7,-9,4,-1,-1,-1
1501875787434462,7,18,3,-3,-4,2,3,19
1501875787434462,-10,-17,-9,-1,0,-4,-8,-47
1501875787436422,8,42,18,15,0,1,1,-3
1501875787436422,1,-27,-14,-5,4,-1,6,24
1501875787448464,-5,6,-3,7,22,6,-1,-6
1501875787448464,-3,-13,0,0,-14,-4,0,1
1501875787455465,1,0,2,-14,0,2,3,11
1501875787455465,5,46,3,0,-13,-6,-2,6
1501875787472437,-7,-55,1,-16,-6,0,-1,-10
1501875787472437,-6,-9,-12,-11,7,-2,-6,-12
1501875787473427,-4,-8,5,4,-20,-3,0,1
1501875787473427,-1,11,4,11,15,-1,3,2
1501875787494473,7,9,-9,-24,-22,-6,1,19
1501875787494473,-4,-8,11,12,15,3,1,-8
1501875787496438,4,2,-8,-15,13,5,5,19
1501875787496438,-6,-2,0,3,-5,-3,-2,-36
1501875787508467,-1,7,7,21,1,0,-1,8
1501875787508467,1,-2,6,-4,-20,-4,-2,-6
1501875787515492,-2,2,-10,-7,5,0,-3,22
1501875787515492,-3,4,-1,-5,-6,-1,-6,-17
1501875787532429,3,12,6,15,19,-2,-5,-20
1501875787532429,-6,-10,-1,-11,-28,-3,-2,2
1501875787533429,8,32,2,-2,15,3,4,18
1501875787533429,-6,-26,-1,16,-5,-3,0,11
1501875787554468,-9,-2,-8,-19,-11,-2,-10,-64
1501875787554468,0,-6,-6,-23,-6,0,0,6
1501875787556465,-2,-2,-4,6,-7,-1,-3,3
1501875787556465,1,-1,2,5,8,-3,1,7
1501875787577455,4,26,9,8,15,3,0,13
1501875787577455,-2,-14,-16,5,4,2,-1,-1
1501875787577455,-2,-8,1,-12,-1,-2,-2,-13
1501875787577455,-3,-3,1,7,-25,-3,-4,3
1501875787591495,-7,-16,0,2,-9,-10,0,21
1501875787591495,8,31,2,-4,14,9,2,-13
1501875787592440,-6,-43,6,7,-12,0,-3,-1
1501875787592440,2,10,-8,-21,-5,2,0,7
1501875787613497,2,9,1,3,7,-1,1,-10
1501875787613497,0,-1,-1,11,1,-5,-1,13
1501875787614448,-3,6,-9,-13,-6,-2,-5,-13
1501875787614448,-6,-10,10,4,12,-3,-5,-14
1501875787637456,2,-18,-7,-17,-4,6,9,30
1501875787637456,2,11,1,8,-4,-4,-4,-27
1501875787637456,-3,6,-4,3,3,1,1,-3
1501875787637456,-5,-5,-6,-2,-10,-2,-6,-7
1501875787651507,3,3,-4,7,-22,-5,-3,-5
1501875787651507,2,-10,0,-5,34,-2,3,11
1501875787652460,-3,4,5,-4,-6,1,1,5
1501875787652460,0,2,0,-11,-5,-1,1,6
1501875787673442,3,-1,10,23,-2,0,0,1
1501875787673442,-3,4,-22,-26,0,5,0,-19
1501875787674445,-1,-4,-3,3,4,-4,-3,6
1501875787674445,2,11,6,-1,-14,0,-1,7
1501875787697459,-1,-11,-9,1,13,-4,-4,-30
1501875787697459,-5,4,20,-10,-21,-4,-3,7
1501875787697459,2,-15,-19,3,11,3,3,-4
1501875787697459,-3,-3,-8,-2,-10,0,-5,9
