timestamp,emg1,emg2,emg3,emg4,emg5,emg6,emg7,emg8
1501874895319968,2,-38,76,21,5,6,6,13
1501874895319968,3,-16,-73,-62,8,2,-9,-42
1501874895320945,4,10,17,60,15,-4,4,41
1501874895320945,-30,-12,21,-1,-7,11,16,-45
1501874895321931,14,12,-15,38,-16,-22,-26,34
1501874895321931,14,26,59,-3,26,17,10,-6
1501874895322966,-3,-15,-68,-77,-31,-14,-16,18
1501874895322966,-9,50,14,55,34,-6,-15,-36
1501874895332947,20,-29,22,-69,-29,14,17,31
1501874895332947,-3,-36,-18,-11,-45,-7,14,53
1501874895342967,-7,34,-20,97,34,-2,-11,-63
1501874895342967,17,4,4,-101,-72,-10,22,98
1501874895347950,-39,-28,35,47,63,1,-30,-104
1501874895347950,7,16,-70,-84,-26,-16,-21,-59
1501874895363976,-8,49,48,-22,-10,-2,3,26
1501874895363976,15,8,0,3,-10,-1,1,46
1501874895371969,28,25,-31,-20,3,4,10,11
1501874895371969,-59,-5,-30,18,-9,-2,-2,-71
1501874895394938,20,9,40,39,-16,-1,10,12
1501874895394938,-2,-57,-74,-59,27,-6,-10,-67
1501874895395937,8,39,-15,-5,-20,3,1,16
1501874895395937,-10,-43,33,92,23,-5,-5,58
1501874895407985,3,19,-1,-35,-15,-4,-1,-1
1501874895407985,-9,-49,31,72,12,12,-5,-4
1501874895449949,7,26,-33,-32,20,7,17,15
1501874895449949,14,10,62,26,-11,-9,-17,-25
1501874895450951,-9,20,-30,-27,24,4,-3,24
1501874895450951,10,-10,32,56,4,3,13,-19
1501874895453997,-26,7,-25,-15,-22,-10,-23,-23
1501874895453997,-12,21,-23,-42,13,4,2,-16
1501874895454940,-4,-4,15,14,-15,-2,8,23
1501874895454940,13,-1,-4,-21,-4,-1,2,27
1501874895461000,-19,-6,-22,8,-6,-8,-10,-57
1501874895461000,-2,-6,-17,-43,7,1,-5,-18
1501874895475974,20,1,-6,-5,-2,-4,-4,38
1501874895475974,-5,43,34,-7,-1,-2,-6,-14
1501874895476940,23,6,17,31,1,-1,9,-14
1501874895476940,-32,-21,-29,-44,-67,-6,-9,9
1501874895490984,19,24,9,96,54,13,13,16
1501874895490984,-12,-22,25,-68,-30,-3,-9,-7
1501874895497980,5,-11,20,20,32,3,7,12
1501874895497980,12,-7,-26,17,9,1,5,33
1501874895521004,-3,20,-22,-66,-2,-4,-2,-45
1501874895521004,0,-23,17,36,-12,-8,-4,-11
1501874895521952,-7,22,-25,4,-7,4,0,-3
1501874895521952,9,-58,51,-35,2,2,0,24
1501874895535984,-35,-71,-42,47,-26,-10,5,-2
1501874895535984,-2,53,-21,11,26,5,-24,-32
1501874895536944,-12,-7,-4,-51,-21,-11,-6,-32
1501874895536944,11,20,3,38,42,0,3,10
1501874895558948,5,-10,21,9,27,6,1,30
1501874895558948,-5,-9,5,-19,-30,-5,6,39
1501874895559948,0,-16,-28,18,8,5,0,-17
1501874895559948,-4,-8,-39,-37,-27,-7,7,13
1501874895581014,-7,28,28,-9,-18,-12,-23,-95
1501874895581014,-4,-38,-14,-26,31,9,6,26
1501874895581947,3,12,23,3,-3,-3,-5,-13
1501874895581947,7,38,15,35,27,0,5,-3
1501874895596015,-1,-13,-33,-16,-13,-5,1,-13
1501874895596015,1,26,65,21,-3,0,7,21
1501874895596947,25,50,-29,-27,35,7,-1,3
1501874895596947,-37,-84,-49,-35,-29,-8,-3,-5
1501874895619016,3,13,-5,-11,-7,-5,-7,-8
1501874895619016,3,4,-12,-12,5,7,6,24
1501874895619950,-2,-6,30,18,13,8,3,-28
1501874895619950,-7,20,19,12,27,4,-3,3
1501874895640992,9,29,29,55,-11,-1,8,19
1501874895640992,-15,-75,-78,-41,-20,-10,-17,-54
1501874895641983,7,7,39,26,5,0,2,47
1501874895641983,12,7,3,43,10,4,2,-17
1501874895656014,-11,-20,-46,-69,-13,2,-3,5
1501874895656014,-8,53,37,45,9,-3,1,-37
1501874895656951,-2,-44,-34,6,-26,-6,2,43
1501874895656951,10,-4,30,47,25,6,-1,9
1501874895678992,-5,1,0,20,0,1,5,8
1501874895678992,-16,8,-48,-46,-6,-13,-12,-58
1501874895679954,-5,5,8,-15,15,-1,-1,28
1501874895679954,20,33,14,57,-15,-3,7,0
1501874895701010,0,-23,55,52,11,6,1,-7
1501874895701010,13,28,-4,-57,-4,3,9,30
1501874895701991,-17,-23,-48,0,-25,-5,-1,-5
1501874895701991,12,24,18,-30,52,1,-1,15
1501874895715998,4,-19,-13,0,-9,6,14,62
1501874895715998,-6,-11,8,7,-6,-5,-19,-27
1501874895716977,-13,7,18,13,1,-1,3,-24
1501874895716977,6,30,-11,-35,-39,-10,-9,-28
1501874895738967,0,-2,40,-18,5,-2,-4,-13
1501874895738967,6,-21,-92,24,23,3,6,10
1501874895739962,0,1,-10,21,-20,-5,-7,-10
1501874895739962,13,31,45,-35,9,16,23,37
1501874895760995,-3,-12,-14,-29,12,3,3,-5
1501874895760995,9,21,41,22,-4,1,-6,15
1501874895761969,1,-28,55,69,-4,-8,-11,-5
1501874895761969,-14,26,-23,13,-14,-8,-3,-1
1501874895775970,3,-37,17,-23,-30,-4,0,7
1501874895775970,-1,-13,-29,26,37,0,11,0
1501874895776990,11,27,1,-39,0,11,9,51
1501874895776990,-9,-15,56,31,-4,-12,-4,-21
1501874895798988,4,-4,-33,-108,-9,-6,-19,-11
1501874895798988,9,-1,29,91,-12,-4,4,46
1501874895798988,-25,-33,-10,-59,13,-8,-9,-23
1501874895798988,-2,25,-74,-5,-22,5,0,11
1501874895821029,6,7,-8,21,1,1,6,6
1501874895821029,-1,3,20,33,5,3,4,-5
1501874895821960,13,14,38,-37,-6,5,4,35
1501874895821960,-5,37,-14,8,-1,4,-5,-39
1501874895835986,1,9,21,38,10,-9,-5,7
1501874895835986,2,-41,1,-26,-9,-3,1,14
1501874895843965,-7,-37,-78,-34,-12,0,2,7
1501874895843965,-8,-8,-16,10,0,-4,4,-10
1501874895859005,-7,1,6,-14,-17,-2,-7,-14
1501874895859005,7,33,14,-8,10,7,2,25
1501874895859005,7,-1,25,71,-8,-8,-3,17
1501874895859005,-13,-28,-35,-56,0,3,-5,5
1501874895889029,4,32,3,24,-17,-6,-1,-38
1501874895889029,-23,-52,-19,-63,-3,-5,-3,-7
1501874895889997,18,24,49,10,21,9,3,2
1501874895889997,-6,-32,-93,-15,-29,-11,-8,-13
1501874895896010,9,22,23,12,-12,-6,1,15
1501874895896010,-6,8,13,16,17,4,0,-27
1501874895904009,-5,-21,-21,-8,-15,-3,-2,3
1501874895904009,-4,-34,12,2,18,6,8,16
1501874895919033,12,29,28,43,17,-4,4,39
1501874895919033,-15,-26,22,17,-24,-5,-10,-67
1501874895919973,4,26,-31,-15,8,-3,-7,1
1501874895919973,3,-5,-8,16,-15,-6,-4,-25
1501874895941035,5,0,-8,-55,-4,2,4,56
1501874895941035,-10,-14,-50,12,7,-1,-2,-12
1501874895942001,-5,4,-7,-15,12,1,0,-9
1501874895942001,11,3,78,9,-11,-1,-5,5
1501874895955979,-14,-17,-57,-23,3,-2,-4,-35
1501874895955979,1,12,-30,-24,-19,-6,2,23
1501874895963974,3,24,11,-1,-4,-4,-3,-24
1501874895963974,4,23,50,20,16,5,10,37
1501874895979027,-5,-4,-21,8,-2,3,-5,-19
1501874895979027,0,16,16,-7,15,10,-3,-19
1501874895979971,1,0,-30,16,-18,-4,-5,-20
1501874895979971,-6,-17,-5,-23,-2,1,2,6
1501874896001038,-8,22,12,1,4,-2,-5,-14
1501874896001038,5,22,-17,-13,-18,-2,2,28
1501874896002004,14,0,31,18,9,2,4,21
1501874896002004,-2,-2,2,14,11,-1,5,11
1501874896015990,-11,-15,-12,-3,-3,2,-13,-31
1501874896015990,12,-6,-7,51,-8,-1,4,22
1501874896023988,-8,37,50,-39,-9,2,1,-6
1501874896023988,9,-13,-48,-18,-1,-1,-5,-10
1501874896039034,-17,-30,32,41,13,3,10,5
1501874896039034,10,14,5,50,-4,-3,5,11
1501874896039974,3,-23,-5,-65,-14,6,-3,-9
1501874896039974,-1,6,12,-4,-8,-3,-6,7
1501874896061042,-6,11,-5,11,-7,-6,-9,-26
1501874896061042,0,4,-17,-26,7,3,4,14
1501874896062007,-2,-8,-1,29,0,-7,-1,8
1501874896062007,-9,-27,-51,-16,1,1,-2,-17
1501874896075996,9,13,13,16,-8,-4,1,11
1501874896075996,-1,-17,-18,22,13,0,0,25
1501874896084041,-9,-4,-6,-68,-11,-3,-3,-9
1501874896084041,-7,-4,9,9,-5,-3,-2,-8
1501874896099051,10,31,13,16,15,8,20,20
1501874896099051,-2,-56,-38,-31,-35,-22,-38,-34
1501874896099051,0,-38,5,25,58,17,7,0
1501874896099051,-11,-26,8,34,-19,-3,-10,-23
1501874896121038,-4,14,-3,-26,-11,-1,4,29
1501874896121038,10,6,6,-35,-2,-5,6,19
1501874896122006,-6,3,36,49,-31,-9,-3,-10
1501874896122006,-2,5,-27,16,10,1,2,9
1501874896135979,-2,-12,13,-33,-16,-3,-9,-22
1501874896135979,9,17,-17,6,18,4,4,9
1501874896143980,14,0,-1,-6,6,-1,3,8
1501874896143980,-13,24,42,59,12,-5,4,-14
1501874896158983,5,-39,-28,-57,5,2,-8,-60
1501874896158983,-19,9,15,-15,-12,-4,-4,14
1501874896159986,6,1,-23,23,7,10,5,5
1501874896159986,10,-7,0,-7,-2,-4,-1,39
1501874896181053,9,24,0,-20,-16,-1,7,62
1501874896181053,-4,-33,20,5,28,5,-6,-3
1501874896182014,-34,9,-8,15,6,-8,-8,-28
1501874896182014,-7,-22,-20,-6,-3,1,4,22
1501874896195982,15,28,-32,-38,4,-5,-9,-21
1501874896195982,-8,-16,40,24,-19,2,12,-30
1501874896203982,-7,-1,-32,-11,12,5,-4,18
1501874896203982,25,19,23,31,-13,-3,1,24
1501874896218994,23,-12,24,-16,7,-4,3,5
1501874896218994,3,30,-57,-17,-16,-5,-2,-6
1501874896219989,-32,-62,-23,-37,-12,-8,-14,2
1501874896219989,-3,20,14,3,-3,-9,-20,-3
1501874896241051,-24,-19,-18,75,5,6,-5,-43
1501874896241051,-1,25,60,-73,11,1,0,3
1501874896241987,19,5,-49,-13,-32,-13,8,32
1501874896241987,4,5,-64,-41,15,1,-8,-21
1501874896264020,6,-23,26,16,-8,-5,-6,44
1501874896264020,-24,-20,11,30,4,-1,-2,19
1501874896264989,-4,16,-10,-7,-10,-3,-2,-33
1501874896264989,11,-1,6,-23,8,9,9,20
1501874896279028,-13,8,-16,-5,-14,-3,-1,-20
1501874896279028,26,28,72,7,33,10,9,15
1501874896279028,18,37,44,48,1,0,-1,-15
1501874896279028,-35,-66,-69,-80,-12,-7,1,9
1501874896301055,-10,-5,2,-22,-16,-5,-1,-3
1501874896301055,14,13,-14,27,14,3,-1,8
1501874896302021,-20,-19,-16,20,-25,-7,-12,-67
1501874896302021,3,11,65,-18,5,-5,-5,-30
1501874896324056,-13,-20,-41,-29,-5,-1,-5,4
1501874896324056,-4,6,-66,-8,-10,0,-1,16
1501874896325027,29,-5,48,22,32,4,10,54
1501874896325027,-36,24,-10,-42,-44,-4,-5,-53
1501874896339029,10,30,-46,8,-11,2,3,6
1501874896339029,-8,-62,7,-30,-2,-6,0,-10
1501874896339997,-1,-1,13,-5,-1,3,4,13
1501874896339997,33,4,29,22,16,6,4,29
1501874896361034,-19,1,23,30,30,4,-5,-20
1501874896361034,3,27,-19,25,-17,3,12,3
1501874896361992,-8,9,-6,-12,-7,-5,3,0
1501874896361992,9,-32,29,51,-4,1,-3,4
1501874896383994,3,-29,6,5,38,1,-2,5
1501874896383994,-2,34,-36,-71,-16,-3,-11,-79
1501874896384994,-6,-42,-16,8,-3,2,3,73
1501874896384994,5,32,18,9,13,-1,-3,16
1501874896399074,3,-6,4,22,-14,1,7,8
1501874896399074,-4,-25,-34,5,-16,-10,-1,18
1501874896399074,9,33,3,-24,26,12,4,4
1501874896399074,-13,-3,-45,-30,-17,-5,-4,-35
1501874896421012,-7,-22,-13,1,1,-2,-1,-25
1501874896421012,-9,7,30,-15,0,2,-2,13
1501874896429997,32,45,30,18,-2,-3,-1,-16
1501874896429997,-3,-20,6,22,2,1,-1,-12
1501874896444036,-6,-22,-10,-43,19,6,0,5
1501874896444036,2,5,4,5,-8,-3,1,-5
1501874896446033,-2,-13,-2,20,-1,-3,1,2
1501874896446033,4,13,25,-45,-6,-3,-7,-28
1501874896467037,-8,1,16,27,-5,2,2,42
1501874896467037,5,25,-29,-40,0,-2,1,-6
1501874896468997,-11,-41,1,12,-7,0,-5,5
1501874896468997,5,11,-10,-5,-5,-1,4,-28
1501874896481015,22,32,32,8,-4,1,0,32
1501874896481015,-25,-3,5,24,8,4,-2,-43
1501874896490001,1,11,1,-10,-4,-1,2,-6
1501874896490001,-3,-19,11,15,4,0,2,13
1501874896504042,-7,-23,6,11,3,-4,-8,-17
1501874896504042,8,19,22,15,1,-3,3,25
1501874896506018,-14,-30,-50,-86,-21,-13,-10,-15
1501874896506018,-12,8,27,25,14,10,9,9
1501874896527051,2,12,-15,9,6,-2,2,-12
1501874896527051,16,14,38,14,-5,-3,-4,8
1501874896529002,-6,9,-9,24,4,-5,-3,-9
1501874896529002,13,5,-17,-37,-21,4,13,59
1501874896541003,1,29,20,0,14,-1,-13,-34
1501874896541003,-17,-66,0,32,-8,-2,-3,-57
1501874896550006,-8,7,20,-3,-16,-1,3,-11
1501874896550006,3,10,-19,36,36,-2,-4,1
1501874896564049,-10,0,-1,16,25,4,4,-13
1501874896564049,-3,-9,5,3,-35,1,1,43
1501874896566015,8,-2,-4,-8,21,4,1,44
1501874896566015,-11,-1,-7,-14,5,-4,-3,-52
1501874896587070,-3,11,-31,-17,-30,-2,-4,3
1501874896587070,5,2,25,-13,48,-2,-4,2
1501874896589006,-1,-5,-6,-7,-49,5,5,24
1501874896589006,1,39,50,33,18,-2,-2,2
1501874896601008,1,4,1,-23,-9,-5,-4,-21
1501874896601008,3,-21,-50,-27,-19,0,0,2
1501874896610007,1,25,25,16,-10,-10,-2,9
1501874896610007,-17,-43,-11,14,10,6,-19,-78
1501874896624047,11,-11,8,-2,8,3,1,40
1501874896624047,-8,23,-2,5,-1,-2,-3,-15
1501874896626041,4,-16,-17,27,14,2,3,27
1501874896626041,9,5,-44,-29,-9,-8,-7,-13
1501874896647009,-7,-15,18,9,8,-6,3,-10
1501874896647009,1,4,-11,11,-20,4,6,10
1501874896648012,14,20,-14,7,16,10,7,27
1501874896648012,-14,-36,-24,-33,-33,-14,-4,9
1501874896661010,-3,15,60,40,-18,-4,-2,-40
1501874896661010,-3,9,-4,-32,47,3,-3,-9
1501874896670010,6,1,33,-20,7,-3,-7,5
1501874896670010,-16,-31,-48,19,-38,-7,-1,1
1501874896684065,4,-13,22,30,-16,-2,0,19
1501874896684065,-5,35,27,8,16,-2,1,24
1501874896686047,-3,-28,-11,2,12,-2,-2,-48
1501874896686047,15,6,20,-3,-23,1,0,55
1501874896707079,-5,-14,-49,-42,-37,-4,-3,-15
1501874896707079,8,1,2,9,38,1,0,28
1501874896708013,-11,-12,8,18,-2,-3,-2,-26
1501874896708013,-4,12,8,7,-10,-7,-1,6
1501874896721027,0,24,7,7,16,11,8,14
1501874896721027,11,-28,-24,-30,-27,-5,-3,5
1501874896730013,-15,-13,-18,-36,-8,-3,-3,-32
1501874896730013,12,22,35,11,22,5,2,-32
1501874896744083,-13,-30,-19,-24,6,-3,-10,9
1501874896744083,12,25,-23,-4,-53,0,11,15
1501874896746014,-2,-5,-1,5,-3,-5,-2,-19
1501874896746014,-6,-15,7,4,-6,-4,-10,-21
1501874896767076,-6,-7,-48,-16,24,2,-2,-5
1501874896767076,-6,-5,33,16,26,5,-2,-19
1501874896768030,-7,1,15,34,-14,-8,-2,-10
1501874896768030,8,18,15,-10,13,9,10,34
1501874896789063,6,8,-40,-19,-8,-10,-4,19
1501874896789063,-12,-5,33,35,-7,-6,-6,-39
1501874896791016,5,25,6,-26,16,11,-2,21
1501874896791016,5,4,-18,8,-15,-2,0,-15
1501874896804055,7,28,22,12,2,0,0,17
1501874896804055,-9,-22,0,30,23,-10,-8,-3
1501874896806054,-8,-2,7,-33,-6,13,3,-22
1501874896806054,8,14,26,11,-6,-1,2,30
1501874896827062,-4,5,-14,-45,8,-1,-2,7
1501874896827062,4,-14,-3,10,-11,-8,-8,-17
1501874896828053,-7,-5,0,17,20,4,-4,-13
1501874896828053,-2,4,-14,-14,17,4,6,21
1501874896849086,4,7,22,10,-20,3,4,-18
1501874896849086,3,3,9,4,-8,4,2,1
1501874896851029,4,18,23,3,2,-9,-8,5
1501874896851029,-9,-28,-12,-7,19,5,2,-42
1501874896864053,-3,-30,4,32,-8,-8,-1,31
1501874896864053,-1,-12,-13,12,-38,2,6,3
1501874896866031,0,15,-10,-55,22,3,7,-10
1501874896866031,4,45,28,19,-28,-9,-16,-18
1501874896887069,-13,-46,-21,9,34,3,-1,-9
1501874896887069,5,8,-3,1,9,2,-2,3
1501874896888053,4,2,-42,16,-12,0,4,11
1501874896888053,-6,13,20,7,-15,-9,2,9
1501874896910086,7,8,8,-10,6,3,-2,-11
1501874896910086,3,4,-20,-46,1,1,4,14
1501874896911024,-15,-35,-41,30,-7,-3,-8,-1
1501874896911024,8,13,44,-18,-32,-11,-11,10
1501874896924039,-8,-2,-22,-41,-5,-1,-4,-20
1501874896924039,3,12,1,13,6,-1,0,8
1501874896931042,-7,-14,5,16,-22,-11,-3,-1
1501874896931042,-1,-7,-2,-7,26,12,6,0
1501874896947067,-2,5,-3,-6,-27,-7,-1,14
1501874896947067,4,5,45,5,-12,6,6,10
1501874896948045,4,5,-36,-11,7,3,0,-3
1501874896948045,-5,4,20,-8,-3,-9,-8,-2
1501874896969066,-7,1,-10,39,16,2,1,-20
1501874896969066,-2,-48,-37,-22,-17,-4,-1,4
1501874896971026,-6,-7,3,-17,-11,0,3,26
1501874896971026,4,-9,-3,19,-6,-1,3,3
1501874896984069,-5,17,12,-19,20,-4,-5,-10
1501874896984069,2,29,6,21,6,-3,-2,5
1501874896991050,5,-5,-11,2,-10,-4,-2,-1
1501874896991050,-6,-21,-17,2,26,3,8,18
1501874897007093,1,2,-4,25,-29,2,-8,-23
1501874897007093,8,30,19,-46,14,9,1,-2
1501874897008032,-6,-59,7,40,-14,-5,-4,-6
1501874897008032,-8,-4,-26,-34,59,11,3,14
1501874897029097,10,12,10,16,-44,-6,6,2
1501874897029097,-4,-28,-43,-41,9,-6,-10,11
1501874897031063,-5,20,36,6,-4,-2,-5,-54
1501874897031063,2,-24,-26,2,-17,-3,3,23
1501874897044074,8,5,16,5,21,4,4,34
1501874897044074,-14,-27,-48,5,-2,-4,-16,-50
1501874897051051,-6,3,28,-12,-7,0,1,-7
1501874897051051,3,-27,-22,-19,3,-3,-5,5
1501874897067080,2,7,-19,-11,22,5,7,-7
1501874897067080,-2,7,38,46,-20,-3,0,7
1501874897068047,4,9,-4,-43,15,-1,-2,4
1501874897068047,-1,15,9,23,-4,1,2,-20
1501874897089073,-1,1,6,-10,-25,-3,-1,9
1501874897089073,0,-1,6,7,18,4,5,14
1501874897091044,7,14,8,16,38,-4,-5,24
1501874897091044,8,17,13,-3,4,7,7,-20
1501874897104075,1,20,-15,-13,-3,-3,6,28
1501874897104075,-2,-7,35,35,-3,-4,-10,-27
1501874897111054,-4,-22,-9,-11,-37,-1,-4,-19
1501874897111054,-11,-12,-25,36,36,4,-1,10
1501874897127073,-3,15,-8,-41,-18,-9,-2,-20
1501874897127073,-3,0,-1,-16,-1,-8,-10,-3
1501874897128036,8,18,15,17,0,3,3,21
1501874897128036,-4,7,-14,0,-7,-8,-7,-18
1501874897149098,-1,-19,19,-5,-19,-3,-1,21
1501874897149098,3,23,-3,-8,1,2,1,-5
1501874897151065,8,3,2,5,4,1,-4,-12
1501874897151065,0,37,-18,8,0,-1,5,20
1501874897164108,-7,-46,0,-8,10,3,-6,-31
1501874897164108,-7,-24,13,-15,-5,0,-3,-17
1501874897171059,-14,14,-6,3,10,-1,-2,-3
1501874897171059,10,-13,33,24,-51,-7,4,9
1501874897187106,5,21,15,-41,57,10,5,6
1501874897187106,-9,-7,-21,8,-3,-6,-5,17
1501874897188058,-2,0,-26,0,-21,1,2,-2
1501874897188058,7,-2,20,21,5,0,-1,16
1501874897209079,4,-17,-34,-7,-14,0,5,19
1501874897209079,-6,31,-9,11,-19,0,2,-49
1501874897211052,-1,-7,6,-12,-17,0,-4,23
1501874897211052,8,8,-11,-17,21,-2,-4,-7
1501874897224090,-6,-16,-7,26,-14,-8,-8,-5
1501874897224090,-2,16,-36,-17,-17,3,6,4
1501874897231066,1,-37,9,-9,9,-5,-1,4
1501874897231066,-10,-8,-12,19,13,0,-4,-9
1501874897247116,-4,-9,35,-43,-28,-5,-6,-9
1501874897247116,-3,4,-23,46,5,3,4,-13
1501874897248080,9,13,-9,6,-8,-3,-3,6
1501874897248080,-10,-22,26,-33,-26,-8,-5,2
1501874897269100,9,48,0,29,35,7,0,-9
1501874897269100,-4,-51,-13,-39,-1,-7,-2,24
1501874897271044,0,8,9,30,2,-2,-2,-19
1501874897271044,-2,-1,-21,-51,11,1,4,-3
1501874897283088,-2,0,-11,32,-19,-5,0,-9
1501874897283088,5,17,41,-30,-12,4,-2,12
1501874897292059,-3,-8,-6,21,14,-1,-2,-5
1501874897292059,0,-2,20,35,-3,1,-2,-4
1501874897307118,3,-3,-13,6,-1,3,2,10
1501874897307118,0,4,-40,-25,-5,-3,8,19
1501874897308047,-3,0,6,-24,15,-4,-14,-13
1501874897308047,-5,3,-39,-7,-6,-6,-1,-26
1501874897329089,1,-4,8,20,3,0,-1,3
1501874897329089,-4,-18,7,8,-6,0,-3,-25
1501874897331059,8,-11,-26,-29,-32,-2,3,42
1501874897331059,-1,5,-2,-8,6,7,-1,4
1501874897343117,-5,-3,3,0,-6,-5,-6,-7
1501874897343117,-5,-1,16,-1,8,-1,-1,1
1501874897352050,-2,15,7,0,-9,-5,5,-1
1501874897352050,5,-15,24,1,-18,4,1,1
1501874897367056,-11,-17,-17,-23,35,-9,-10,-5
1501874897367056,-3,-6,-10,14,34,4,2,1
1501874897368054,3,11,-4,9,4,1,0,-19
1501874897368054,-1,-2,1,-6,-14,-3,0,14
1501874897389116,1,-8,31,-7,-33,6,7,12
1501874897389116,9,14,20,14,7,5,-5,-24
1501874897391063,-12,-11,-12,-16,12,-2,5,-11
1501874897391063,2,-1,-9,10,-3,-4,-5,-10
1501874897403092,-6,5,-10,12,5,-2,-9,-13
1501874897403092,3,9,9,-20,24,-1,3,13
1501874897412054,1,0,-8,25,-31,-4,-1,-2
1501874897412054,-3,-12,-26,-13,5,-8,-2,5
1501874897427092,3,-3,5,-14,25,5,1,17
1501874897427092,-5,-12,15,8,-29,-6,-3,1
1501874897428069,0,29,-21,9,14,3,-1,4
1501874897428069,-4,-27,-4,-33,-24,-3,-2,0
1501874897449097,-10,-7,4,3,-1,-3,-8,-42
1501874897449097,2,-4,37,46,11,-6,-9,-5
1501874897451055,1,22,-2,-46,8,3,5,21
1501874897451055,-4,1,-19,34,-29,-4,-3,-6
1501874897463128,-1,6,23,-27,-17,6,1,-6
1501874897463128,4,17,-4,2,23,3,8,8
1501874897472089,-6,-26,5,6,33,-1,-5,18
1501874897472089,8,29,-27,-23,-18,6,1,6
1501874897487094,1,-34,-3,1,-4,-7,0,-14
1501874897487094,-2,13,-6,-14,-18,-1,7,56
1501874897488057,2,-6,14,37,-3,2,3,-11
1501874897488057,-8,8,-34,-15,11,-5,-12,12
1501874897509118,4,23,46,16,1,2,0,-13
1501874897509118,7,-12,-5,-17,5,-1,6,13
1501874897511070,-3,-17,-16,-5,-18,-1,-2,28
1501874897511070,-16,0,15,-3,28,2,-7,-29
1501874897523127,-3,-18,-25,-20,-40,-9,-4,0
1501874897523127,0,14,0,22,52,2,-2,-2
1501874897532092,1,13,0,-43,-13,-3,2,-27
1501874897532092,3,-7,5,12,5,5,7,16
1501874897547125,3,-13,-17,-12,-5,-5,0,28
1501874897547125,-2,-1,38,-14,-17,3,11,32
1501874897548091,-4,5,-25,7,1,-8,-28,-66
1501874897548091,3,6,14,0,17,1,3,20
1501874897569062,-6,-9,44,57,50,6,-8,-86
1501874897569062,0,3,-29,-6,-16,2,1,13
1501874897571074,7,-5,-48,-48,-34,-8,2,5
1501874897571074,-4,0,2,20,3,-2,-4,1
1501874897583105,-9,1,7,14,-6,-2,5,17
1501874897583105,3,5,-6,14,14,4,1,-4
1501874897592096,0,10,26,4,7,4,5,7
1501874897592096,5,-11,21,23,32,-4,1,1
1501874897607106,8,21,-5,-11,-9,7,8,22
1501874897607106,-4,-7,3,-15,-3,-5,-6,-13
1501874897608065,8,-3,12,9,5,2,7,20
1501874897608065,6,7,3,11,-5,-3,2,0
1501874897629129,-7,6,21,20,-5,0,-1,6
1501874897629129,-4,-16,-64,-27,-18,-8,-8,-46
1501874897631077,-2,-4,33,19,-13,2,0,22
1501874897631077,2,7,-12,-22,3,-1,-2,-16
1501874897643066,-2,5,14,6,3,2,5,11
1501874897643066,0,-10,18,1,-17,-2,-10,1
1501874897652066,-3,18,26,28,21,-3,-3,-1
1501874897652066,-6,-1,-15,35,-21,2,1,-19
1501874897667081,10,6,-52,-4,-6,-5,5,9
1501874897667081,-8,-24,-32,-5,-12,-4,-13,-46
1501874897668069,1,-4,1,10,-2,1,-1,-8
1501874897668069,1,13,17,-28,-6,1,1,2
1501874897689102,-6,-8,1,16,-1,-1,0,-3
1501874897689102,-3,0,5,18,4,-4,-3,9
1501874897691069,-2,-9,1,-18,26,7,0,8
1501874897691069,0,18,0,7,-8,2,3,-1
1501874897712079,1,-13,5,-19,-9,-5,-7,-16
1501874897712079,12,28,-3,-11,3,9,8,43
1501874897713073,-14,-39,-22,-9,7,-1,-4,-23
1501874897713073,3,3,17,18,6,2,1,13
1501874897727071,12,16,-15,-6,-6,1,7,27
1501874897727071,-4,-17,6,-15,-31,-8,-10,-37
1501874897728074,-8,5,-4,-19,0,-4,-5,-17
1501874897728074,-5,-22,16,-1,-5,-6,0,-3
1501874897757107,-4,-1,-37,3,-25,-3,-4,-9
1501874897757107,-3,2,17,-16,25,8,4,-1
1501874897758075,5,18,22,6,-2,-1,4,21
1501874897758075,0,-13,-4,-7,-13,0,-3,-16
1501874897772078,-1,-19,-42,-27,-11,-3,3,31
1501874897772078,1,-6,7,37,12,-7,-4,-7
1501874897773076,-6,10,10,-45,0,-5,-6,-4
1501874897773076,0,-2,-20,-10,-12,-3,2,34
1501874897787116,-1,10,2,-4,24,3,-3,-22
1501874897787116,-16,-27,-23,-8,-8,-2,-9,-47
1501874897788113,3,16,-3,23,-3,-2,-3,-8
1501874897788113,-3,-16,-4,-20,-5,-3,2,11
1501874897809119,5,10,-8,-5,3,1,2,5
1501874897809119,3,13,16,1,2,-4,-2,11
1501874897811088,-1,-27,0,-17,4,0,-1,-1
1501874897811088,-6,8,-19,13,-6,-2,-5,2
1501874897832116,-3,-13,-7,-6,-11,-8,-4,-31
1501874897832116,8,17,23,28,22,3,6,37
1501874897834089,4,-13,6,-10,-17,2,4,10
1501874897834089,-1,-3,18,-11,13,5,1,-13
1501874897846119,-1,-10,-32,11,-1,-2,-5,3
1501874897846119,4,7,-4,-23,-32,-3,5,15
1501874897853085,-3,8,13,27,-4,-5,-1,-4
1501874897853085,0,-16,-3,-4,23,4,-2,-13
1501874897869145,-4,-9,26,0,28,1,-1,2
1501874897869145,-8,-5,-12,14,-9,-8,-4,-2
1501874897871091,5,13,-12,3,-35,0,10,29
1501874897871091,9,23,36,3,53,10,6,-21
1501874897892119,-9,-27,2,-20,-17,-5,-8,16
1501874897892119,-2,-2,-25,-8,-5,-2,1,0
1501874897893089,0,-2,3,-4,-2,1,-2,-14
1501874897893089,-5,-8,-12,5,-16,-6,-4,-1
1501874897906120,-2,14,1,7,5,3,2,-10
1501874897906120,5,-7,-6,7,-3,-3,8,36
1501874897913121,0,23,5,-5,-18,-3,-15,-56
1501874897913121,-5,-13,1,3,1,3,-2,0
1501874897929148,0,7,12,-5,29,3,-2,-8
1501874897929148,3,-19,-35,-20,-8,-4,0,-10
1501874897931094,2,29,7,31,6,-3,-5,8
1501874897931094,-11,-39,-12,-26,-28,-8,-5,-9
1501874897952130,-4,-8,-7,27,17,9,0,-21
1501874897952130,1,6,28,-5,-24,1,0,20
1501874897953086,1,-9,-10,-4,32,-2,1,1
1501874897953086,4,20,-13,-14,-10,-4,-4,-7
1501874897966144,-2,10,13,25,-43,-7,0,25
1501874897966144,-10,-3,6,-14,44,2,-5,-22
1501874897973111,1,-16,-9,19,-2,0,0,5
1501874897973111,-2,7,3,-4,-9,0,-4,-5
1501874897989151,9,3,1,-10,-17,-1,5,22
1501874897989151,-2,9,21,22,3,3,0,-5
1501874897991099,-5,-17,-28,-37,-15,-1,-6,-38
1501874897991099,-5,-31,-7,-15,20,-6,0,15
1501874898012129,-8,-29,-12,-4,-10,-4,-2,-18
1501874898012129,-5,5,8,-2,9,0,-5,4
1501874898013089,2,8,-3,17,14,4,9,24
1501874898013089,3,3,8,7,-17,1,1,-1
1501874898026155,1,1,-8,11,9,-7,-6,-3
1501874898026155,-13,-10,4,-16,6,-1,-3,-31
1501874898033090,2,7,-6,-9,6,-2,2,8
1501874898033090,-2,-23,-2,-15,-35,-1,-3,-12
1501874898049150,1,19,15,22,12,3,3,19
1501874898049150,2,2,-39,-9,-13,-2,-2,-20
1501874898051101,2,13,32,2,1,1,0,16
1501874898051101,-1,-12,-10,-4,-24,-5,-2,-16
1501874898072093,-9,-2,6,-18,21,-1,-3,-31
1501874898072093,2,-4,-13,20,-14,-4,-3,2
1501874898073093,-3,-9,7,-13,16,4,2,-4
1501874898073093,5,25,17,12,-3,-1,-4,-1
1501874898086131,3,13,-7,-16,-1,-3,0,15
1501874898086131,4,0,10,7,-13,-5,1,12
1501874898093157,-4,6,6,17,-10,-8,-4,-17
1501874898093157,-3,3,0,5,30,6,0,10
1501874898109161,8,-1,32,36,19,3,1,-9
1501874898109161,0,-8,-44,-47,-23,3,0,-2
1501874898111104,5,6,9,-10,8,-1,2,6
1501874898111104,2,17,-16,2,20,2,2,5
1501874898132159,-7,-33,22,-6,-35,-1,-2,-9
1501874898132159,-1,-5,26,4,-4,-4,-2,2
1501874898133093,-2,-15,-8,-9,-13,-2,3,10
1501874898133093,-2,15,7,28,11,-3,-1,-21
1501874898146102,4,14,-16,-4,0,7,1,6
1501874898146102,2,-4,8,-21,-6,-2,1,15
1501874898153141,-7,-12,-17,-2,-18,-1,-5,-15
1501874898153141,1,-6,-23,-1,27,5,5,23
1501874898169135,-10,11,4,-11,-5,-5,-18,-30
1501874898169135,2,1,-5,25,-15,-4,-3,-10
1501874898171109,-2,4,-5,-18,35,0,-1,-2
1501874898171109,3,17,15,-23,11,4,4,18
1501874898192138,-1,16,-14,28,-30,-8,1,16
1501874898192138,-3,6,8,-1,38,7,2,-1
1501874898193099,-1,-10,-7,28,-9,-6,2,0
1501874898193099,1,11,-30,16,-29,-4,-2,26
1501874898205139,0,-17,36,-40,18,3,12,27
1501874898205139,-7,6,11,7,-12,-9,-24,-73
1501874898214134,1,0,-6,-28,-41,-2,-4,-9
1501874898214134,-1,-6,-2,-8,15,5,0,-15
1501874898229101,2,15,-27,10,5,-2,0,5
1501874898229101,1,-19,6,12,10,-1,6,25
1501874898231114,-1,-26,10,20,-7,1,3,15
1501874898231114,-3,4,16,-12,-20,-3,-6,-7
1501874898252164,-2,4,-20,-10,3,-1,1,4
1501874898252164,8,16,14,6,-6,-2,6,6
1501874898253103,-5,1,-16,-6,24,3,-3,-9
1501874898253103,-3,-12,8,-14,-5,-1,2,8
1501874898265172,5,-3,-35,-18,3,-2,-1,13
1501874898265172,-2,-13,-7,-4,-13,-3,0,1
1501874898274141,-1,-6,13,31,10,2,-1,1
1501874898274141,1,0,-3,-3,4,-4,2,4
1501874898289142,-3,2,-2,-4,8,-1,-4,-8
1501874898289142,-3,10,27,4,-18,0,-1,-15
1501874898291115,6,3,-34,-18,32,-1,8,13
1501874898291115,-10,-9,28,30,-1,-1,-11,-48
1501874898312154,1,-10,-13,-19,-15,0,0,25
1501874898312154,-1,-1,15,5,14,2,2,-13
1501874898313106,2,4,20,1,5,5,5,8
1501874898313106,-2,22,-20,3,-8,-4,4,4
1501874898325156,5,-32,13,0,-28,-1,-5,-9
1501874898325156,-4,7,-5,-21,18,2,2,18
1501874898334178,6,8,4,4,-1,-1,-2,-10
1501874898334178,0,-7,-13,-15,-18,-7,1,6
1501874898349148,-4,6,15,10,-1,-4,-6,-4
1501874898349148,1,-3,6,19,-8,-1,-2,10
1501874898351132,0,22,10,16,3,4,2,12
1501874898351132,2,-10,-12,-21,6,8,-2,-27
1501874898372175,-10,-17,1,-8,12,-4,0,-2
1501874898372175,-6,-18,-25,3,-15,-1,-7,-13
1501874898373110,-3,3,10,-5,-20,-4,-3,1
1501874898373110,3,3,-11,14,4,-2,-3,-11
1501874898385120,-1,15,1,25,33,5,-1,-5
1501874898385120,-5,-6,-21,-30,-24,-7,0,13
1501874898394134,2,-6,3,6,-4,0,-2,11
1501874898394134,-3,-17,-4,9,-4,-2,0,2
1501874898409172,1,12,-3,2,-1,1,0,-13
1501874898409172,2,13,-6,-2,9,-2,-3,3
1501874898411123,-2,16,23,-6,-12,-8,-1,3
1501874898411123,-4,-33,-26,-18,2,-2,-8,-14
1501874898432180,-2,-1,-3,8,-43,-7,-5,-6
1501874898432180,-2,-9,-13,-11,22,11,6,21
1501874898433113,-9,-33,-11,-21,0,1,-7,-19
1501874898433113,4,21,-13,4,-1,-2,15,36
1501874898445113,-6,-10,0,-23,-35,-4,-7,-12
1501874898445113,4,29,14,7,14,0,-4,2
1501874898454162,1,-6,16,7,-66,-6,0,-9
1501874898454162,-9,-9,-38,-3,55,-1,-3,27
1501874898469183,5,17,33,-4,3,1,6,20
1501874898469183,5,-4,-7,18,19,1,5,7
1501874898471129,-2,-1,0,6,-39,-6,-7,-12
1501874898471129,2,12,-5,3,18,5,2,5
1501874898492158,-3,-10,-6,-9,-10,-5,1,-4
1501874898492158,-1,9,-21,-4,8,3,3,-32
1501874898493115,-4,-17,-10,10,20,-1,-4,28
1501874898493115,2,5,24,2,-30,-7,-5,-8
1501874898505152,4,12,-10,11,31,5,2,-2
1501874898505152,8,5,23,26,-18,-5,7,29
1501874898514127,-19,2,-25,-44,30,7,-8,-61
1501874898514127,-1,-17,6,-3,-12,-1,-1,3
1501874898529159,1,-4,6,-6,22,0,-4,-6
1501874898529159,1,-3,9,8,-12,-1,1,-4
1501874898531136,5,10,11,13,-5,0,7,15
1501874898531136,-6,-9,13,24,-11,-6,-8,-1
1501874898552180,0,8,-9,-26,-9,3,-3,-29
1501874898552180,-7,-17,-15,-18,-21,-3,-1,8
1501874898553120,5,-5,-15,-3,39,-2,6,19
1501874898553120,-6,3,12,-9,-1,2,-10,-30
1501874898565186,-5,-13,-7,8,5,-2,-1,-3
1501874898565186,-7,-36,-21,-10,22,3,-4,-4
1501874898574187,0,-2,-19,-13,8,1,5,3
1501874898574187,6,5,9,3,-40,-7,-4,-1
1501874898589189,-7,6,21,-3,30,2,-2,10
1501874898589189,7,11,-8,0,0,-6,-3,4
1501874898591154,-8,-38,-4,27,-17,-5,-1,-1
1501874898591154,-2,3,-18,-20,-4,7,2,-9
1501874898612183,3,2,14,5,18,3,1,-2
1501874898612183,-2,11,-18,-2,-11,-2,-1,1
1501874898613124,12,32,17,15,-16,-1,3,30
1501874898613124,-2,-5,-22,-37,7,-3,4,18
1501874898625158,-3,-29,9,-7,-16,-2,-5,-39
1501874898625158,5,12,14,0,-6,-1,-2,5
1501874898634163,3,-1,2,-14,12,-2,0,-16
1501874898634163,-8,-19,-21,13,-11,-5,-1,7
1501874898649166,3,2,11,0,-41,-6,-2,35
1501874898649166,-2,-3,10,1,20,-2,-7,-19
1501874898651162,1,-3,-9,14,9,-3,-6,-11
1501874898651162,-2,-13,13,-16,13,4,7,2
1501874898672197,-3,1,-21,18,18,-5,1,7
1501874898672197,1,4,16,-10,-17,1,0,-1
1501874898673128,-4,8,7,7,-14,3,-2,7
1501874898673128,5,14,4,-9,17,4,7,-8
1501874898694196,-3,-17,-24,3,7,-1,-4,-34
1501874898694196,-5,-12,-20,-2,-2,-6,-4,-2
1501874898696127,-4,1,5,-3,-8,-2,1,-7
1501874898696127,2,5,11,14,18,5,5,2
1501874898709167,3,5,7,8,-36,-4,-2,24
1501874898709167,-7,-32,25,-2,29,1,-4,-21
1501874898711140,-3,-7,-38,20,10,-3,-3,-3
1501874898711140,-1,-6,9,-19,-16,-2,-2,14
1501874898732172,1,14,-9,8,28,-1,3,-24
1501874898732172,2,10,19,-3,-5,1,0,2
1501874898733130,0,-8,8,18,-12,-5,-3,-1
1501874898733130,-2,2,32,25,17,2,-2,-8
1501874898754169,-1,17,-41,-30,-21,-4,-1,5
1501874898754169,-1,-22,-20,-13,-19,-3,4,13
1501874898756142,-1,2,34,0,8,2,0,-5
1501874898756142,-5,-4,14,10,-13,-8,-7,-10
1501874898769195,5,-1,5,4,2,4,3,8
1501874898769195,5,18,-3,5,-5,-4,7,17
1501874898771144,-10,-22,-7,-25,-3,0,-7,-21
1501874898771144,-3,-4,-9,21,-16,-8,-12,-3
1501874898792133,-2,6,-10,-15,20,3,1,-11
1501874898792133,3,9,-8,-7,0,0,2,2
1501874898793133,0,1,3,-2,-6,0,-1,10
1501874898793133,-2,4,-2,-1,50,6,1,-26
1501874898814135,-1,-9,-4,-1,19,1,-4,-10
1501874898814135,-2,21,14,-6,-22,-1,-3,-9
1501874898816145,1,-5,-26,-12,-38,-5,-1,7
1501874898816145,0,-13,8,6,11,-3,-3,-18
1501874898829159,-4,-6,-21,36,5,-1,3,8
1501874898829159,-5,-10,-12,-30,26,6,-4,-15
1501874898835174,2,20,-7,-14,-17,-8,-6,8
1501874898835174,4,5,13,8,-28,-9,-4,8
1501874898852169,-2,-2,-3,0,-24,3,2,3
1501874898852169,-3,-19,2,14,11,1,0,3
1501874898853136,6,22,-6,-6,15,6,5,1
1501874898853136,-5,-3,-8,-17,-21,-3,2,-4
1501874898874206,0,-1,16,8,7,-4,-7,-10
1501874898874206,-4,-12,0,11,-16,-4,-1,6
1501874898876150,1,6,4,-12,14,3,3,13
1501874898876150,1,7,-12,-16,-16,-2,-4,-20
1501874898889159,0,-5,14,12,8,-4,0,13
1501874898889159,-2,26,-4,0,20,-3,-5,-16
1501874898895180,0,-25,-8,28,21,3,8,23
1501874898895180,3,3,-8,-46,-32,-8,-2,7
1501874898912151,0,5,27,13,0,8,4,1
1501874898912151,0,12,-4,0,12,-5,-7,3
1501874898913140,-6,-27,-14,-12,25,-1,-2,-11
1501874898913140,1,7,-4,21,-33,-6,2,13
1501874898934146,4,13,-1,-14,-31,-5,-1,-9
1501874898934146,-3,3,12,5,21,2,5,11
1501874898940182,-8,-6,9,0,-2,0,-4,-17
1501874898940182,2,-4,3,17,10,0,6,26
1501874898948182,-2,3,1,-10,-1,0,-4,-13
1501874898948182,4,-3,3,18,-29,6,1,-12
1501874898957175,-3,3,-12,-20,13,-7,-4,-12
1501874898957175,2,6,14,-1,30,8,-2,0
1501874898972182,5,17,-2,0,12,-1,6,33
1501874898972182,-10,-31,-20,-9,-35,-9,-10,-51
1501874898973143,0,-17,23,-5,-2,-3,-4,-5
1501874898973143,-4,3,-11,11,0,1,0,-13
1501874898994154,-2,-14,-14,-22,-12,-3,-1,5
1501874898994154,-1,-13,-11,-12,25,-2,-2,6
1501874898996143,0,22,25,7,-43,-2,0,-3
1501874898996143,0,8,-18,-1,12,-2,-2,8
1501874899008152,5,-22,-14,-25,39,5,2,-1
1501874899008152,-4,0,1,0,-9,-3,-5,12
1501874899017146,4,40,-3,10,5,2,-1,-10
1501874899017146,-7,-37,-12,-11,-22,-5,-3,1
1501874899032222,-1,-3,1,2,-19,-7,-2,21
1501874899032222,0,-8,8,10,-2,0,-2,-19
1501874899033149,-5,-5,-27,-14,22,2,-4,-28
1501874899033149,4,13,5,-2,-10,-1,-4,-7
1501874899054181,-12,-4,-4,-8,-6,-1,-2,-4
1501874899054181,8,15,20,11,14,6,7,5
1501874899056160,-6,3,-2,26,-32,-14,-4,20
1501874899056160,0,-14,-10,-34,32,8,-1,-5
1501874899068212,-8,-7,-4,5,-15,-4,-5,-46
1501874899068212,3,31,-15,-13,0,-4,2,24
1501874899077183,2,-11,2,7,1,1,3,6
1501874899077183,3,11,2,17,-11,1,-1,20
1501874899092183,-1,9,2,0,13,0,-2,2
1501874899092183,-2,28,8,-11,-23,-2,-2,-9
1501874899093152,-1,-31,-13,-12,3,2,1,8
1501874899093152,2,-5,18,-6,-6,-7,-2,7
1501874899114166,2,9,-5,3,-2,1,1,1
1501874899114166,-3,-10,0,3,4,-1,-2,-2
1501874899116159,2,22,-2,2,-15,3,1,7
1501874899116159,-1,-6,6,-26,10,6,6,26
1501874899129169,-3,-16,-12,-27,-22,-10,-8,-23
1501874899129169,-2,-9,5,12,37,4,-1,20
1501874899135152,4,6,-8,-10,14,4,0,-5
1501874899135152,0,17,3,8,-19,-3,-3,-25
1501874899152215,-2,-23,-15,-3,11,-1,3,0
1501874899152215,-2,1,-3,9,-19,-7,-6,24
1501874899153155,-2,12,2,-16,-8,0,-1,-7
1501874899153155,-5,-25,-15,13,46,4,4,14
1501874899174192,6,26,6,18,-28,-4,-3,2
1501874899174192,-5,-10,12,-13,8,-1,-3,-13
1501874899176162,-2,6,-26,-42,-15,-2,-3,-2
1501874899176162,-4,-5,21,-23,20,-6,-5,-14
1501874899188214,-1,16,-16,22,-40,-2,6,23
1501874899188214,1,-14,-3,-27,4,7,2,11
1501874899197173,-6,-10,2,2,-9,-6,-18,-57
1501874899197173,8,27,-2,9,2,2,4,-1
1501874899212190,-6,-17,25,-2,-9,-2,-4,-4
1501874899212190,-10,-23,-5,11,-5,-7,0,0
1501874899213159,-1,-26,-19,10,1,-4,2,5
1501874899213159,-3,5,4,8,3,2,0,-1
1501874899234220,3,9,18,18,9,0,-1,7
1501874899234220,4,13,-13,1,-21,4,6,-3
1501874899236168,0,-22,22,20,14,-3,1,19
1501874899236168,-1,-1,-10,-11,-1,1,-2,-5
1501874899248221,-4,18,-3,-1,13,1,-3,-19
1501874899248221,-5,-45,-9,2,-12,2,2,-14
1501874899264178,5,9,7,-11,-13,-1,3,21
1501874899264178,-2,18,13,15,15,-1,2,4
1501874899272229,-1,-9,16,-34,-11,4,5,4
1501874899272229,9,3,-15,-1,-13,-5,1,5
1501874899273160,-5,-3,9,21,4,2,0,-11
1501874899273160,-6,-21,0,-36,-24,-4,-5,17
1501874899294200,-1,-21,-9,6,22,3,1,1
1501874899294200,1,19,-4,-16,-13,-6,-3,-4
1501874899296194,4,7,11,7,7,3,6,20
1501874899296194,-3,6,-2,-5,-25,-4,-3,-20
1501874899308185,-4,-3,-7,1,9,-2,-10,-14
1501874899308185,0,6,-11,-8,-4,4,2,-3
1501874899317171,-4,3,7,5,14,1,0,-8
1501874899317171,1,-5,-16,9,-3,-3,0,-8
1501874899332212,9,27,-2,-4,-5,0,3,12
1501874899332212,-4,-17,0,12,-34,-6,-2,4
1501874899333163,-3,2,-16,-8,34,3,0,-22
1501874899333163,1,-12,7,23,-31,0,2,3
1501874899354237,-1,-6,-13,-28,15,3,2,3
1501874899354237,1,21,12,9,0,-3,-3,7
1501874899356165,6,9,11,-1,-1,3,9,30
1501874899356165,-5,-11,-20,-1,-16,-2,-5,-35
1501874899368197,-2,3,-8,0,0,-4,-5,-9
1501874899368197,0,-7,15,2,-1,-1,-6,-3
1501874899377203,-2,12,-5,-3,-7,-3,-4,-5
1501874899377203,2,15,-10,5,2,3,5,12
1501874899392236,-1,-17,11,-1,-1,-5,1,14
1501874899392236,-8,-10,-19,5,12,-5,-7,-36
1501874899393169,4,10,-3,15,-26,-1,2,7
1501874899393169,5,2,24,-5,22,-1,-3,7
1501874899414203,-4,-13,-5,11,17,6,-1,-21
1501874899414203,1,-7,-3,2,12,3,2,21
1501874899416168,-6,-4,8,11,-16,-4,-5,-21
1501874899416168,7,30,-10,-14,-6,3,1,6
1501874899428235,-6,-20,3,2,-12,-3,-4,8
1501874899428235,-3,2,6,-9,9,-1,-3,-5
1501874899437207,-2,0,-7,3,31,1,2,-6
1501874899437207,-2,5,-13,-10,-29,-2,-4,14
1501874899452216,-6,-37,-20,19,-2,-6,-4,-3
1501874899452216,-2,7,7,4,4,4,3,4
1501874899453171,2,6,12,-4,7,2,1,8
1501874899453171,0,-2,-2,4,-4,-2,-2,-11
1501874899474211,3,15,3,-1,-11,-3,2,9
1501874899474211,-4,-20,-2,8,-11,1,3,13
1501874899476204,-14,-15,-2,-17,-18,-7,-13,-29
1501874899476204,1,3,-1,24,29,3,2,1
1501874899488205,5,38,16,-9,-24,0,-1,-7
1501874899488205,-4,-13,6,-3,19,-4,0,14
1501874899497199,0,-13,-10,-24,17,0,-3,-23
1501874899497199,1,-4,-1,1,-24,-9,-5,2
1501874899512245,2,0,5,0,27,7,1,6
1501874899512245,3,23,24,16,3,-1,1,-16
1501874899513174,-9,-40,-34,-22,13,1,2,10
1501874899513174,-4,-1,16,-7,7,-6,-6,-17
1501874899534237,6,23,6,2,-26,-3,10,31
1501874899534237,0,-16,-11,17,14,6,-4,-14
1501874899536176,0,-5,-12,-33,-31,-4,-5,14
1501874899536176,-1,13,11,46,-22,1,3,-16
1501874899557178,-4,6,-12,-45,44,2,0,-4
1501874899557178,-1,-30,0,-18,-18,-6,-2,-10
1501874899558178,2,-9,4,19,14,2,0,17
1501874899558178,-3,-6,-10,-9,7,2,0,0
1501874899572185,-1,8,1,12,-6,-4,-4,-4
1501874899572185,2,16,-10,-11,-28,-7,-1,-2
1501874899573178,-2,5,7,18,30,1,0,5
1501874899573178,-1,-10,-6,-26,-6,-2,2,14
1501874899594213,-9,-29,8,7,-30,-3,-3,-15
1501874899594213,7,21,16,3,18,6,4,-2
1501874899596182,4,19,4,14,-20,-3,0,18
1501874899596182,-1,0,-14,16,34,2,2,-8
1501874899617184,-7,0,-32,-16,9,-2,-1,20
1501874899617184,0,-26,-1,-1,-9,0,-6,-26
1501874899618181,1,12,15,0,-3,2,-1,-7
1501874899618181,-4,-19,16,-12,-35,-4,-2,-2
1501874899632209,1,-4,3,5,15,0,0,0
1501874899632209,-2,22,3,-7,-3,-5,-5,9
1501874899633185,-3,-3,-18,-21,-4,-8,-1,-10
1501874899633185,-2,-7,-15,-15,27,1,-4,-15
1501874899654183,-2,2,4,14,10,1,3,10
1501874899654183,5,17,4,6,20,5,5,20
1501874899656213,-6,-29,28,-5,-24,-5,-3,-6
1501874899656213,-10,-10,-1,7,-7,-7,-5,5
1501874899677230,-1,-4,-1,-5,-16,1,-1,-11
1501874899677230,-2,0,-17,9,5,-2,2,-4
1501874899678186,9,20,14,5,0,2,3,6
1501874899678186,-2,-1,0,2,3,2,1,-25
1501874899692225,-1,-15,-6,13,13,-4,-8,-8
1501874899692225,-4,1,4,-14,-52,1,0,5
1501874899693185,-4,10,-3,13,40,-8,-5,-13
1501874899693185,0,-34,2,1,-6,-1,0,12
1501874899714253,-2,-2,6,-4,10,4,2,-4
1501874899714253,0,4,-32,-16,-13,-6,0,-2
1501874899716186,-5,3,5,19,-15,-3,-8,-27
1501874899716186,5,11,-10,-6,0,1,3,15
1501874899737255,-4,-11,25,9,-26,-9,-3,-27
1501874899737255,-2,3,-21,13,10,2,-6,-2
1501874899738187,3,-11,-8,-24,23,9,6,16
1501874899738187,-3,-10,-23,8,11,-1,0,0
1501874899751255,9,30,29,9,-8,4,7,32
1501874899751255,-10,-20,-14,-27,10,-11,-10,-39
1501874899758255,1,6,10,10,1,0,0,-16
1501874899758255,3,-9,-19,-19,9,1,-4,0
1501874899774231,0,1,8,7,-22,-3,1,0
1501874899774231,0,23,5,12,-3,-8,-7,-12
1501874899776189,-1,-18,-19,-18,-5,8,4,8
1501874899776189,4,5,15,2,2,-1,-1,10
1501874899797260,-4,14,-9,-5,-8,-5,-4,-11
1501874899797260,-2,-20,5,19,-2,0,4,9
1501874899798192,0,2,-3,-12,-4,-2,-2,4
1501874899798192,-1,7,-2,-22,-8,2,2,15
1501874899811256,1,17,-3,10,-40,-8,-5,-16
1501874899811256,-1,-13,-7,-17,54,10,1,11
1501874899818259,-3,-4,-1,8,-38,-4,2,-12
1501874899818259,1,1,17,-8,10,1,1,-14
1501874899834235,-2,8,-8,4,7,1,-5,-10
1501874899834235,0,-17,13,-21,-16,-2,2,18
1501874899836225,1,3,-15,10,-27,-4,-2,19
1501874899836225,-1,7,-1,34,8,-4,0,-11
1501874899857264,2,-1,6,-34,14,3,-3,-9
1501874899857264,3,13,19,18,3,1,2,10
1501874899858195,-2,-23,-7,-7,-11,-3,-1,18
1501874899858195,-2,4,1,8,0,0,-1,-3
1501874899871259,4,1,-25,6,11,2,1,5
1501874899871259,0,13,9,15,-15,-5,-3,-8
1501874899878235,0,-18,3,1,17,-1,-2,-7
1501874899878235,-3,8,1,-33,29,2,-1,9
1501874899894244,-1,-31,-11,-1,5,0,3,12
1501874899894244,-2,21,-9,-15,-28,-8,0,4
1501874899896196,-4,-9,-8,-10,-27,-6,-6,-26
1501874899896196,-9,-1,-8,0,11,-9,-12,-9
1501874899917267,1,-14,-5,11,22,4,1,5
1501874899917267,-1,-4,7,-1,-1,2,-1,-10
1501874899918200,4,20,7,22,-2,-3,2,6
1501874899918200,-3,-4,10,-29,-34,-8,0,8
1501874899931243,4,-5,-7,7,21,8,-3,11
1501874899931243,1,13,-7,-2,-6,0,-1,0
1501874899938234,-4,-21,-17,-21,9,-2,-2,-5
1501874899938234,11,29,34,17,-43,0,4,-3
1501874899954260,-9,-14,-5,-6,27,-4,-1,3
1501874899954260,0,-1,-11,-25,6,3,2,7
1501874899956232,2,-2,19,20,11,0,0,-4
1501874899956232,0,-3,-9,7,-15,-2,1,10
1501874899977246,0,4,5,-11,-25,-3,-1,1
1501874899977246,-5,-4,-1,21,20,3,-1,-23
1501874899978202,1,18,4,-13,-10,1,4,20
1501874899978202,1,-6,5,21,4,4,2,-4
1501874899991260,-5,-7,3,4,8,-7,-3,-17
1501874899991260,-4,-4,-13,-46,-24,-2,-1,6
1501874899998266,8,26,6,12,9,-1,3,17
1501874899998266,-14,-43,-17,-8,16,2,-10,-20
1501874900014272,4,2,0,0,-15,-1,2,3
1501874900014272,3,-3,26,25,1,-5,1,1
1501874900016203,-5,-2,-25,-48,26,5,-2,-6
1501874900016203,-3,-5,16,-3,-21,-7,-3,-3
1501874900037275,-8,-35,-3,4,-13,-3,-3,-8
1501874900037275,2,-5,-13,7,-8,1,4,17
1501874900038207,-5,0,-9,-5,7,-3,-4,-28
1501874900038207,3,14,-2,27,15,0,1,4
1501874900051270,0,6,6,-27,-13,-1,-3,5
1501874900051270,0,-5,9,14,-27,-4,-1,-1
1501874900058241,-2,13,-16,28,68,0,-3,-4
1501874900058241,0,-19,-14,-37,-14,5,1,0
1501874900074275,-2,0,5,-22,-8,-3,1,0
1501874900074275,-4,-21,-13,1,-7,-3,-1,12
1501874900076206,-2,5,17,-4,1,-2,-3,-10
1501874900076206,4,10,19,7,-8,-1,-1,-25
1501874900097236,-1,16,-14,8,8,2,-1,-3
1501874900097236,-1,-20,-13,-6,-3,-2,-2,-6
1501874900098209,-4,1,1,-2,-2,1,0,4
1501874900098209,-2,3,-12,0,4,-2,1,11
1501874900110252,4,11,21,22,-13,-3,0,-9
1501874900110252,0,30,-14,-28,18,6,3,10
1501874900119220,2,-22,13,4,-35,-2,5,6
1501874900119220,-4,-21,-18,-2,21,1,-5,-15
1501874900134249,0,14,1,11,1,-3,-6,-10
1501874900134249,-5,3,-8,-2,6,0,-3,-6
1501874900136243,4,-23,-14,-3,-15,-2,-1,10
1501874900136243,1,7,2,9,-1,-5,1,5
1501874900157277,-2,-8,1,4,-6,-3,2,-8
1501874900157277,5,26,18,4,37,7,1,7
1501874900163277,-3,-17,-1,-8,-38,-7,-3,-7
1501874900163277,-4,7,-9,8,4,1,3,1
1501874900170254,2,-10,-13,-15,-21,-4,-3,8
1501874900170254,5,14,25,18,0,-7,-2,-6
1501874900179214,-3,0,-3,-6,35,8,2,6
1501874900179214,6,13,4,1,-11,2,8,15
1501874900194217,-12,-17,-2,3,-33,-5,-9,-19
1501874900194217,0,-7,10,46,65,10,4,-9
1501874900196227,1,10,17,-4,-23,-2,-8,-24
1501874900196227,-3,-16,-9,12,-25,-6,-2,5
1501874900217281,4,20,-6,-44,3,-2,2,8
1501874900217281,-7,-31,-4,-3,-9,-5,-4,9
1501874900218216,1,9,12,18,-1,-1,1,16
1501874900218216,1,9,2,-1,-10,5,-1,1
1501874900230284,6,0,-14,28,13,-1,2,-2
1501874900230284,-4,-7,4,-23,-22,-7,-6,-8
1501874900239241,2,1,-12,20,-2,0,5,21
1501874900239241,0,6,0,-19,20,1,-2,-16
1501874900254282,-9,-17,-1,-1,5,-2,-4,-8
1501874900254282,-1,2,-15,-25,6,6,-1,7
1501874900256250,0,-14,-18,-12,-11,-4,-3,-18
1501874900256250,-1,-5,3,5,-10,-5,-3,20
1501874900277234,0,9,4,19,10,1,-3,-19
1501874900277234,-5,0,9,-5,-25,-1,1,-6
1501874900278220,-3,5,-5,-15,10,5,-1,-2
1501874900278220,-4,-5,7,-16,-31,-3,-4,-6
1501874900290230,0,11,-8,19,24,-3,0,13
1501874900290230,4,-15,-11,-7,6,6,3,2
1501874900299238,3,0,2,-1,-13,-1,1,15
1501874900299238,-2,-5,-8,0,9,-1,-4,-29
1501874900314258,-3,15,17,-11,-21,-2,-1,7
1501874900314258,1,22,-10,-4,-10,-7,-4,-17
1501874900316229,-1,-12,3,-4,5,2,2,3
1501874900316229,-2,3,-13,9,-11,-6,-2,21
1501874900337285,3,-19,10,-11,15,3,4,-14
1501874900337285,-2,10,-20,20,15,-1,-5,-5
1501874900338223,-3,10,-19,-20,-21,0,-3,-10
1501874900338223,-1,2,13,4,-9,-2,1,7
1501874900350293,4,3,-3,0,11,6,4,7
1501874900350293,3,-7,12,17,-20,-7,-4,4
1501874900359261,-10,-8,-1,-14,2,-1,-6,-13
1501874900359261,3,8,3,5,11,-2,-3,-11
1501874900374289,1,-7,-33,-8,-2,2,0,12
1501874900374289,-5,-14,9,-3,-27,-5,0,5
1501874900376256,3,8,11,5,21,0,-2,-4
1501874900376256,-1,15,13,-14,15,2,-2,6
