timestamp,emg1,emg2,emg3,emg4,emg5,emg6,emg7,emg8
1501874182661021,-15,61,-36,18,-11,-2,-2,-28
1501874182661021,19,-83,-37,-65,2,-1,3,42
1501874182664023,-2,-13,26,9,26,14,-4,5
1501874182664023,27,79,-37,-5,-26,-11,8,60
1501874182665020,-8,79,19,8,-2,-4,-15,-63
1501874182665020,-20,30,6,8,-16,-9,1,17
1501874182667021,-50,-99,-84,-15,38,-8,-13,-66
1501874182667021,34,40,27,-97,1,21,19,52
1501874182672026,7,-127,15,76,-52,-10,0,35
1501874182672026,21,33,-9,13,48,-1,-7,-36
1501874182689029,16,21,-15,-71,6,8,7,13
1501874182689029,-33,13,15,29,-4,6,-7,-74
1501874182693021,11,91,-26,-21,24,-2,4,54
1501874182693021,-24,-120,14,37,-76,-13,-13,-31
1501874182704026,16,41,3,28,17,4,4,48
1501874182704026,-7,-103,15,59,15,9,10,-32
1501874182707023,-7,-40,17,-26,15,1,9,105
1501874182707023,39,115,-30,-60,2,6,-19,-36
1501874182731026,11,-52,-2,-25,-39,-9,20,90
1501874182731026,-50,43,-18,90,7,-6,-21,-75
1501874182772028,27,3,88,105,28,6,4,-3
1501874182772028,-18,-43,-3,-97,-20,-14,-25,-47
1501874182772028,-6,-23,6,1,0,-4,12,-6
1501874182772028,20,18,43,41,19,-2,4,0
1501874182775028,-27,-11,9,-51,-36,-16,-10,-28
1501874182775028,20,56,-52,17,40,16,14,52
1501874182776026,-8,-76,6,-25,-29,-5,-5,-14
1501874182776026,15,0,33,33,4,0,15,59
1501874182784028,10,31,59,-45,-18,-6,5,32
1501874182784028,-34,-15,-23,44,11,-4,-11,-33
1501874182790026,26,-6,-15,-34,-23,-1,-1,-35
1501874182790026,-23,-8,-60,-2,-12,-8,-12,9
1501874182806028,-7,48,12,-6,31,11,19,0
1501874182806028,-7,-34,-1,-51,-22,-5,-11,-77
1501874182812028,4,32,23,-14,37,-6,-8,53
1501874182812028,2,53,20,47,-20,-5,-9,7
1501874182821030,-14,-91,-57,-99,-42,-9,-15,0
1501874182821030,5,83,18,-16,-1,2,16,61
1501874182844032,1,-32,-19,36,5,1,-13,-71
1501874182844032,-2,-23,-49,-100,-14,-3,1,-36
1501874182845032,10,71,-8,18,-32,2,2,40
1501874182845032,10,-71,19,41,23,0,14,117
1501874182857032,-19,19,33,20,-29,-9,-14,-31
1501874182857032,-5,69,15,-48,35,14,-4,-58
1501874182866032,-6,-71,-54,2,13,5,2,-18
1501874182866032,15,-26,27,36,-18,-10,8,60
1501874182881054,0,52,63,26,7,7,-5,-21
1501874182881054,-6,10,-64,78,2,-6,3,-21
1501874182883054,-4,17,-2,34,35,-5,3,-62
1501874182883054,21,18,43,-38,-35,6,0,15
1501874182904033,-18,-9,7,24,39,3,7,76
1501874182904033,17,36,25,21,-5,8,4,-31
1501874182905034,2,-21,40,81,-42,-5,-2,36
1501874182905034,-24,24,-93,-41,51,0,-16,-128
1501874182917034,12,-6,31,-28,-2,1,0,-5
1501874182917034,-15,-25,-6,-11,15,0,0,3
1501874182926036,35,83,-1,30,24,7,29,17
1501874182926036,-4,84,4,-38,33,-12,-19,84
1501874182943037,-29,-50,-39,-37,-28,7,-5,31
1501874182943037,39,53,12,-35,-60,-10,-6,41
1501874182944036,-54,-72,-45,-45,53,-8,-21,-92
1501874182944036,10,74,23,9,-13,6,18,11
1501874182964037,-1,19,25,52,6,3,1,-74
1501874182964037,7,24,-38,-55,-20,-4,2,48
1501874182965040,34,95,6,12,6,-9,3,56
1501874182965040,3,-101,93,48,-49,8,8,-1
1501874182977038,-21,-2,-77,-17,8,-8,-8,-70
1501874182977038,-19,-14,82,73,9,8,1,-40
1501874182986049,-16,-1,-83,-70,-78,-15,-25,-72
1501874182986049,-10,-36,-5,90,19,-16,-3,-39
1501874183001042,10,-3,-25,13,8,-1,3,3
1501874183001042,4,54,41,-52,-1,0,-4,49
1501874183003047,11,-5,20,40,49,7,8,26
1501874183003047,-11,-8,-27,-19,-52,-8,-11,-11
1501874183024062,5,24,25,-1,18,3,11,62
1501874183024062,-2,31,13,39,32,5,-3,-90
1501874183025041,-30,-61,3,-10,-3,-4,-21,-14
1501874183025041,14,12,-37,-89,-18,-2,10,24
1501874183037045,-2,47,11,-11,-12,-6,5,76
1501874183037045,-16,-56,-4,11,62,5,-8,-22
1501874183046044,12,45,22,43,-8,14,8,61
1501874183046044,7,-51,7,-32,-29,-9,3,37
1501874183061064,-15,29,8,-33,-1,-2,-16,-50
1501874183061064,26,-19,30,11,-17,-1,7,14
1501874183063047,-25,-2,16,21,23,1,-1,3
1501874183063047,31,101,30,48,38,17,5,24
1501874183084064,-3,80,-63,14,-54,-10,-3,-21
1501874183084064,-12,-25,-40,-102,-3,-8,3,39
1501874183085045,7,8,17,0,-3,6,4,-26
1501874183085045,4,50,55,44,-10,15,9,-15
1501874183097047,23,-29,-70,39,38,-11,-5,2
1501874183097047,-30,-102,21,-56,-12,2,3,-22
1501874183106046,4,22,2,15,-3,5,14,100
1501874183106046,1,-114,-24,37,8,1,-12,-94
1501874183121046,-17,-36,28,-9,-27,-4,-7,-34
1501874183121046,-17,-3,-1,88,-21,-9,-7,-19
1501874183123046,2,8,-71,-102,30,-1,-1,19
1501874183123046,-3,-94,10,15,-10,-3,4,30
1501874183144050,1,2,40,66,16,2,0,-23
1501874183144050,29,41,-72,-9,-30,1,13,46
1501874183145050,-31,-25,30,-80,11,0,-18,-5
1501874183145050,-29,26,-77,30,-4,-4,-11,-54
1501874183157069,20,11,25,3,42,3,12,96
1501874183157069,-14,14,-7,-15,13,3,6,-13
1501874183166048,11,-2,24,29,-74,-19,-20,-118
1501874183166048,-4,33,2,-2,69,4,-9,-3
1501874183189054,14,50,-39,-47,-20,10,15,24
1501874183189054,-24,-41,8,19,-21,4,1,26
1501874183190053,6,-12,-11,-5,-5,-9,-7,-14
1501874183190053,8,9,21,11,14,-1,-3,68
1501874183204062,-3,16,-19,-67,-4,-5,0,2
1501874183204062,1,14,-9,42,19,-5,-1,28
1501874183205052,6,-35,1,-7,-17,5,8,16
1501874183205052,7,80,-14,7,14,-4,5,44
1501874183217052,16,-49,44,16,4,3,-8,2
1501874183217052,-22,-26,-22,1,14,-2,-11,-19
1501874183226074,-14,-25,-9,-3,-6,5,11,11
1501874183226074,16,100,-1,-21,-92,-18,-7,-55
1501874183241098,11,-26,-4,-4,38,3,0,-1
1501874183241098,-8,6,3,-13,-5,-5,-11,-28
1501874183243059,21,102,31,96,66,11,16,41
1501874183243059,-20,-112,18,30,-56,-10,14,22
1501874183264075,-9,5,4,-28,5,13,-19,-62
1501874183264075,9,22,58,-6,-40,1,4,7
1501874183265055,7,79,-39,-11,17,-2,-7,-33
1501874183265055,-14,-38,-64,-38,32,0,-4,23
1501874183286055,-8,4,10,26,-17,-7,3,-16
1501874183286055,29,21,74,103,-1,0,19,100
1501874183288059,-35,-63,-62,-104,-38,-9,-43,-92
1501874183288059,-2,25,25,17,8,6,3,-15
1501874183301076,-2,2,-6,31,-44,1,14,38
1501874183301076,0,-13,-6,51,18,-9,-23,-60
1501874183303057,15,49,7,-59,4,2,15,40
1501874183303057,-5,-57,-74,-67,-4,-4,-15,-1
1501874183324079,-30,26,33,-52,-16,-5,6,-11
1501874183324079,10,-14,-35,-16,-5,0,-1,-22
1501874183325058,2,-51,31,111,-1,-3,6,-8
1501874183325058,-10,-16,36,-19,43,10,-1,-51
1501874183346059,14,55,-93,-79,-44,2,6,32
1501874183346059,-14,-24,20,-31,-45,-4,-8,-50
1501874183348080,4,15,17,76,85,-2,-2,35
1501874183348080,-11,32,36,7,-9,3,5,2
1501874183362078,13,-10,13,42,10,-9,-3,-49
1501874183362078,-9,2,-72,-91,-34,-2,-5,23
1501874183363061,13,24,32,40,11,14,7,29
1501874183363061,2,4,-19,-77,13,-3,-5,5
1501874183384065,12,-3,26,78,-5,0,17,80
1501874183384065,-3,-23,-26,-35,47,0,-7,-36
1501874183385065,-7,101,50,63,-57,-9,-6,-26
1501874183385065,-2,20,-16,-24,12,6,4,2
1501874183406083,-9,-41,21,3,-63,-10,-11,21
1501874183406083,-3,-19,-35,-19,56,8,9,23
1501874183408084,10,-39,-31,-39,-28,-14,-14,-12
1501874183408084,-13,45,43,7,7,3,8,12
1501874183420069,13,79,-29,-6,-31,-2,-7,-51
1501874183420069,7,-53,26,62,58,5,0,11
1501874183427069,-7,-21,-46,-36,-1,3,7,23
1501874183427069,2,50,21,-1,-20,-8,-17,-50
1501874183444068,-1,-19,19,-41,-15,9,10,13
1501874183444068,-3,3,-38,-52,6,-1,-3,51
1501874183445066,-1,-45,-22,54,-28,-2,6,27
1501874183445066,-3,1,-8,-13,-51,-8,2,-8
1501874183466086,-9,-26,5,7,73,-4,-12,-26
1501874183466086,7,33,-6,-38,4,1,-1,-11
1501874183468083,-11,-37,13,5,-23,1,6,51
1501874183468083,19,-22,17,7,2,11,-2,-42
1501874183480067,3,22,34,72,3,-3,1,13
1501874183480067,-2,6,-19,20,-5,2,-7,-5
1501874183487104,-30,-80,-27,-99,-22,-13,-13,-45
1501874183487104,-10,14,-7,-20,6,3,2,24
1501874183504076,5,4,6,21,79,6,-1,4
1501874183504076,-2,11,22,54,-13,-3,1,6
1501874183505069,23,36,7,-5,1,11,17,23
1501874183505069,-8,-24,-9,41,12,-5,-7,33
1501874183525089,-16,-28,-23,-48,-19,-1,-9,-61
1501874183525089,-3,-7,57,48,18,-1,4,-4
1501874183534071,2,-8,1,2,16,1,-6,-8
1501874183534071,0,22,3,91,-72,-5,1,-20
1501874183540074,-8,-41,-43,-33,54,3,-4,13
1501874183540074,-1,-6,11,69,1,-6,2,16
1501874183547072,14,45,4,-35,23,8,3,-22
1501874183547072,-1,-24,-62,-19,2,-4,-5,13
1501874183564072,-3,1,50,-14,-26,-4,6,37
1501874183564072,4,37,-7,-78,-62,-1,-3,-13
1501874183565072,12,54,64,118,18,4,10,28
1501874183565072,11,-2,-20,-73,7,-3,-12,-43
1501874183586073,-21,-93,-6,-21,52,7,-1,-9
1501874183586073,5,33,-22,-78,-26,-5,1,-17
1501874183588086,-33,-79,-58,7,-10,-10,-15,-13
1501874183588086,33,73,8,38,4,6,13,6
1501874183600095,-11,-2,-3,20,-62,-12,0,41
1501874183600095,4,42,13,-69,54,5,-5,30
1501874183607114,9,18,-6,2,-46,-3,-4,-38
1501874183607114,17,-4,11,19,32,1,10,25
1501874183624097,-6,52,13,-5,-10,-2,-3,-33
1501874183624097,-21,-12,13,17,-14,-4,5,-22
1501874183625076,-13,23,18,29,-13,-7,-12,-94
1501874183625076,-5,3,-17,-38,0,3,9,76
1501874183646076,-2,-30,-32,4,9,2,-19,-60
1501874183646076,39,35,22,46,20,11,1,14
1501874183648078,-25,-33,-23,-12,1,-3,-1,15
1501874183648078,-18,25,36,110,-90,-26,-9,-36
1501874183660080,16,48,13,-49,88,25,22,68
1501874183660080,-1,9,-12,23,-43,-9,-13,-50
1501874183669095,11,-87,8,-27,18,1,2,44
1501874183669095,18,24,-6,44,53,-3,-2,8
1501874183684081,-28,11,20,-32,-28,-14,-17,-46
1501874183684081,2,-117,-6,42,9,5,1,6
1501874183685079,-42,-4,-91,-74,-24,-5,4,-22
1501874183685079,15,64,33,-25,2,-2,-11,4
1501874183706080,-56,-36,-11,17,-25,-9,-4,-10
1501874183706080,-9,127,-14,20,-34,-10,-3,-1
1501874183708102,30,-51,25,-35,45,6,1,3
1501874183708102,-26,-1,2,35,-36,4,7,36
1501874183721082,38,56,-16,58,22,14,-1,-47
1501874183721082,-10,-15,38,-59,12,0,2,16
1501874183727084,13,8,13,62,-32,-3,8,51
1501874183727084,-17,-52,-38,-58,70,7,-4,-40
1501874183742085,46,56,-9,2,-32,-1,11,59
1501874183742085,-26,-92,-10,29,11,-16,-7,-12
1501874183751082,19,83,24,9,4,6,-5,-17
1501874183751082,4,-15,52,26,51,1,1,-22
1501874183765104,-8,4,-21,20,-3,-5,11,72
1501874183765104,20,114,-24,-72,-19,3,-6,-64
1501874183774105,-7,25,35,-11,13,6,1,31
1501874183774105,-6,-95,-21,45,-18,-6,-3,-28
1501874183789106,11,70,28,-36,-17,-2,-2,23
1501874183789106,-11,-9,-24,27,-15,-3,11,7
1501874183790085,3,59,-17,-21,-3,-2,-4,15
1501874183790085,16,40,17,-76,-30,3,3,6
1501874183811108,5,-3,-7,17,-7,-8,-4,20
1501874183811108,-3,38,14,24,-21,0,-6,14
1501874183813093,-20,-45,12,57,-7,-7,-8,-47
1501874183813093,-4,54,19,-36,38,18,10,2
1501874183826090,14,-29,1,12,-45,-8,5,5
1501874183826090,-38,100,25,13,52,6,-13,-22
1501874183828087,7,11,-19,-47,-42,-11,1,56
1501874183828087,-15,-7,-47,-53,4,-3,-7,-54
1501874183849091,-15,-33,17,8,13,2,-5,-11
1501874183849091,-3,0,10,72,-7,-9,2,18
1501874183850088,25,69,25,-59,54,11,6,21
1501874183850088,-2,19,13,33,-12,2,-1,6
1501874183871093,-11,-110,-11,-21,-41,-4,-3,-15
1501874183871093,9,-42,-5,38,12,-4,8,36
1501874183873111,8,-2,-20,-2,14,-4,-13,-41
1501874183873111,-6,29,21,53,-32,0,7,41
1501874183886093,18,28,-16,-6,69,7,2,-27
1501874183886093,-4,-57,-1,15,-83,-16,-8,-4
1501874183888096,1,95,15,-50,29,15,12,22
1501874183888096,-17,-81,-19,-104,-56,-12,-8,9
1501874183909092,7,-17,11,71,16,5,-2,-19
1501874183909092,-3,6,-23,-62,-59,0,9,25
1501874183910095,-9,-35,-6,38,-18,-7,-13,-18
1501874183910095,-2,80,-18,60,75,3,-1,2
1501874183931096,2,-66,-26,80,-19,-5,4,127
1501874183931096,-40,27,1,-32,53,2,-24,-113
1501874183933096,-18,30,-8,25,-30,-10,-12,27
1501874183933096,-10,44,44,-23,-27,-8,-4,4
1501874183945097,13,88,-19,10,6,-9,2,-36
1501874183945097,48,12,12,75,27,14,14,97
1501874183952095,-12,12,-30,-75,-18,-1,6,-15
1501874183952095,-8,-72,-8,26,13,-3,-12,-74
1501874183969099,23,109,22,-39,-33,-4,-1,18
1501874183969099,8,-78,-55,-58,5,-3,13,7
1501874183970096,9,-19,0,5,13,2,-17,-55
1501874183970096,19,-19,-11,-8,-20,-5,0,27
1501874183991117,-20,-12,28,24,-36,-7,-4,-42
1501874183991117,1,68,-6,-24,92,11,1,-29
1501874183993119,22,-48,21,-3,-91,-7,15,57
1501874183993119,-1,64,-18,13,39,5,2,6
1501874184005121,-3,15,-13,-87,43,3,-4,24
1501874184005121,20,47,1,29,-33,4,19,17
1501874184012114,-59,-95,61,61,53,-6,-16,-54
1501874184012114,-6,-1,-40,18,-18,3,1,-7
1501874184029099,6,18,-52,-64,-23,-5,2,-6
1501874184029099,39,-9,62,22,-62,-6,5,92
1501874184030100,-31,31,-26,6,36,3,4,-26
1501874184030100,2,-32,-4,69,-13,2,-3,-25
1501874184051120,13,59,-2,-47,14,8,5,31
1501874184051120,-33,-9,13,-11,4,-5,-4,0
1501874184053103,3,-4,-14,8,-26,-12,-3,-73
1501874184053103,-4,-52,0,12,23,-1,-8,39
1501874184065122,7,8,-14,26,-26,4,4,-17
1501874184065122,24,4,-4,1,17,0,2,-3
1501874184072143,13,86,9,10,-27,0,2,34
1501874184072143,-25,-22,-11,-82,27,2,2,-9
1501874184089106,12,81,-3,16,-53,-7,-12,-31
1501874184089106,10,-38,-29,-27,58,4,-3,42
1501874184090103,-32,-103,31,37,2,1,4,4
1501874184090103,26,51,23,-26,-55,-5,-6,5
1501874184111104,-16,4,21,44,54,4,-4,-29
1501874184111104,-14,-11,-7,-87,-11,2,-5,-13
1501874184126107,33,-12,-59,64,-32,-2,7,49
1501874184126107,-3,19,14,-81,31,-7,-8,-27
1501874184127122,-19,-33,14,39,-59,-15,-6,-4
1501874184127122,7,-24,4,24,56,17,10,-4
1501874184132106,0,37,38,4,29,-2,-18,-27
1501874184132106,-1,12,2,52,-31,-9,3,53
1501874184149127,-24,-46,-30,35,50,-2,-8,-64
1501874184149127,13,-37,-2,-52,-53,-8,-3,31
1501874184150109,6,23,40,-49,12,0,1,15
1501874184150109,8,-60,-23,38,24,2,3,45
1501874184171108,-34,87,36,-34,6,0,-2,-62
1501874184171108,-18,29,-18,-9,-60,-3,13,26
1501874184173109,1,52,4,45,45,4,-17,-54
1501874184173109,-19,-25,6,-25,-20,-1,-1,-10
1501874184185114,28,-14,-7,-29,2,3,3,43
1501874184185114,-9,34,10,56,-18,-10,-8,-4
1501874184192113,5,-23,4,-30,-8,-1,0,-9
1501874184192113,5,64,-24,-19,40,10,10,-4
1501874184209111,-2,25,3,-59,57,11,-2,-10
1501874184209111,-13,-5,20,28,-64,-13,-13,-48
1501874184210109,31,58,-41,-6,19,7,17,73
1501874184210109,7,16,15,47,-9,-13,-3,-2
1501874184231113,-11,-82,-20,-6,-9,8,-3,-34
1501874184231113,-41,-18,28,28,58,-4,-15,-72
1501874184233114,0,-9,-27,-24,-4,-1,6,28
1501874184233114,10,19,-16,-7,-46,-2,2,-23
1501874184245132,-12,-25,13,39,0,-5,3,-2
1501874184245132,3,-15,-9,-42,22,-5,-7,16
1501874184252132,16,7,-31,-63,-12,-3,1,15
1501874184252132,-6,-2,30,19,-28,7,16,13
1501874184269133,9,-23,8,13,13,-9,-14,-27
1501874184269133,-26,15,-60,-20,-12,-1,-11,-26
1501874184270114,35,32,23,4,-22,4,16,62
1501874184270114,-7,75,-5,9,19,-3,-5,-10
1501874184291181,2,-89,-9,-31,-30,-6,-8,21
1501874184291181,7,-9,33,9,24,8,0,-3
1501874184293134,-5,-6,2,-5,-25,-2,2,-4
1501874184293134,13,23,5,25,-15,4,6,18
1501874184305159,-12,-18,5,17,16,1,-1,0
1501874184305159,9,19,-40,-19,52,7,-2,-9
1501874184314117,-13,-15,-14,16,24,-4,2,-17
1501874184314117,-1,-41,-17,-116,-21,-3,-5,0
1501874184329124,2,-40,-40,39,-28,-4,1,-9
1501874184329124,-8,24,31,-5,-29,-5,-1,0
1501874184330117,-19,15,-9,9,-30,-9,-9,-26
1501874184330117,-2,-46,48,59,102,14,-2,-15
1501874184351117,2,26,-9,-9,-39,1,11,46
1501874184351117,6,33,20,-25,3,-5,-3,-17
1501874184353118,-10,-38,-22,35,-15,-2,-1,9
1501874184353118,3,48,40,1,2,3,-5,-40
1501874184365138,-10,-74,1,3,2,-2,1,37
1501874184365138,13,-7,-11,42,-43,-6,-5,42
1501874184374119,-4,28,-18,-13,32,10,8,28
1501874184374119,3,-56,-50,46,-21,-6,-3,-6
1501874184389139,20,34,30,-57,1,2,5,14
1501874184389139,-32,-52,-78,-20,-39,-8,-13,-93
1501874184390121,-1,-47,2,-74,25,4,-4,-10
1501874184390121,2,0,-20,-52,-6,-6,-3,13
1501874184411120,12,11,14,21,6,3,0,-2
1501874184411120,-12,59,25,21,-1,-4,3,-9
1501874184413137,-11,-90,2,45,-41,0,1,-10
1501874184413137,-9,37,28,50,-14,-1,1,-6
1501874184425141,-4,8,-26,-51,14,-1,-6,-4
1501874184425141,22,36,20,50,8,4,12,49
1501874184434123,-16,-55,-35,-29,-14,-4,-17,-70
1501874184434123,-4,-23,-18,39,2,-4,-5,20
1501874184449144,-7,32,17,-4,-15,0,5,-5
1501874184449144,14,-35,-1,-22,-7,4,18,47
1501874184450126,15,109,35,10,-24,-3,-8,5
1501874184450126,-17,-68,-9,-30,56,2,-3,-12
1501874184471127,1,74,-29,42,9,-5,-5,-13
1501874184471127,14,-19,18,-7,7,2,4,6
1501874184473145,16,45,6,9,2,-1,8,42
1501874184473145,-7,-22,7,-9,-39,-11,-6,-14
1501874184485128,3,28,16,84,17,8,11,44
1501874184485128,4,27,-3,-17,26,-3,-1,-46
1501874184494129,-10,-49,-29,-1,-27,-1,-10,-25
1501874184494129,1,15,-4,-31,14,-5,-8,-14
1501874184509126,0,60,18,15,-69,3,13,22
1501874184509126,1,-64,-24,34,52,1,-10,-1
1501874184510127,-6,-4,-3,-92,16,-7,-5,-22
1501874184510127,3,13,24,63,1,11,14,25
1501874184531127,12,19,-11,-18,-56,-12,-8,-28
1501874184531127,-13,-52,17,-51,-41,4,-2,23
1501874184533128,4,16,17,57,31,4,10,30
1501874184533128,5,-9,14,-6,6,-3,1,12
1501874184545149,-4,25,38,0,28,-5,-12,-37
1501874184545149,-7,4,-24,18,-14,-1,9,-6
1501874184554130,14,-26,9,-25,0,0,-2,17
1501874184554130,-13,34,-1,9,3,0,-4,-20
1501874184576170,-8,-71,4,-9,-11,0,0,11
1501874184576170,8,14,-28,-8,8,-1,5,27
1501874184578132,-15,34,36,-56,34,-8,-15,-34
1501874184578132,15,-4,-28,3,-6,1,3,-1
1501874184591152,-8,-25,-8,25,13,0,-5,1
1501874184591152,-21,22,35,6,6,0,-11,-26
1501874184593134,13,-52,-33,46,-2,3,12,7
1501874184593134,-15,-83,-30,1,-20,-8,-12,-33
1501874184605135,-9,-28,1,-59,32,9,3,-12
1501874184605135,-1,9,-41,-17,-21,-7,-6,9
1501874184614135,2,27,9,25,-17,4,7,0
1501874184614135,1,81,17,-30,-27,-12,-12,13
1501874184629155,-4,-72,-1,0,9,1,3,15
1501874184629155,-5,-23,-49,7,-13,1,5,-2
1501874184630139,7,93,28,-16,3,-1,-5,-12
1501874184630139,-16,-68,-36,-27,-32,5,1,1
1501874184652135,13,97,31,67,5,-10,-3,3
1501874184652135,8,-32,34,-67,5,4,-3,-9
1501874184653135,-15,30,-63,3,-18,-6,2,16
1501874184653135,-5,-75,-21,-44,-10,-7,5,33
1501874184665157,-10,10,-20,-36,9,-1,0,-55
1501874184665157,11,42,28,106,17,-2,-2,38
1501874184674136,10,41,63,14,12,2,-3,-12
1501874184674136,2,-21,-21,32,0,0,2,5
1501874184689137,-14,10,-36,-38,28,-11,-10,8
1501874184689137,6,-10,11,-61,-57,1,10,10
1501874184690137,-13,0,29,73,-14,-4,-5,-34
1501874184690137,19,110,-23,-59,40,13,7,23
1501874184711138,-1,-89,7,44,-24,-6,-5,2
1501874184711138,-4,4,27,-12,66,3,-1,-17
1501874184713160,-4,-33,9,50,-7,-7,4,25
1501874184713160,-15,-32,-32,-48,-10,-1,-10,-56
1501874184734139,7,-21,-20,-55,-21,-2,3,-6
1501874184734139,-14,-3,-13,26,10,-8,-14,-1
1501874184735141,-1,-56,8,2,-22,5,1,10
1501874184735141,13,30,-9,-1,20,-4,1,8
1501874184749140,-7,-29,-35,-22,35,-1,8,41
1501874184749140,-14,34,38,36,-7,-7,-18,-68
1501874184750144,0,44,-28,-36,-10,1,2,0
1501874184750144,1,34,20,38,9,-2,-2,7
1501874184771144,19,-16,6,11,7,3,3,33
1501874184771144,-5,-23,3,3,-33,1,3,4
1501874184773144,8,24,-15,16,28,6,6,21
1501874184773144,34,80,29,0,-25,2,9,-7
1501874184794146,-17,-9,21,77,-17,-2,-11,-7
1501874184794146,-4,34,-45,-45,50,12,4,-4
1501874184795144,5,2,42,10,10,3,7,31
1501874184795144,13,18,20,38,-21,-3,-4,7
1501874184809148,-16,36,2,-5,4,-1,-8,-43
1501874184809148,-5,-57,-45,27,-18,-4,-2,6
1501874184810145,-2,0,-18,4,9,-9,-4,-5
1501874184810145,-9,-47,-2,6,-12,-1,1,15
1501874184831167,4,36,-5,-30,26,9,2,-7
1501874184831167,4,-5,37,0,-29,-9,3,44
1501874184833146,3,-35,28,45,52,3,-5,-61
1501874184833146,-31,-30,5,39,-39,-7,-9,-20
1501874184854149,2,22,-46,-74,16,-1,3,21
1501874184854149,4,8,19,-5,16,5,-2,-13
1501874184855147,-1,17,-28,6,-43,-9,2,19
1501874184855147,-4,-30,-11,-41,12,-4,-2,10
1501874184867151,-6,45,0,31,9,-3,-4,-13
1501874184867151,11,62,-7,9,-27,-1,4,3
1501874184882165,1,42,25,-48,12,-4,-7,-11
1501874184882165,-5,-18,-47,-20,22,0,1,9
1501874184891164,-8,12,10,-1,-4,-2,-2,5
1501874184891164,8,15,2,-13,-2,-2,-2,-46
1501874184893168,-8,19,-11,41,-28,1,-3,20
1501874184893168,-5,-8,-9,-73,29,6,0,1
1501874184914172,6,-40,11,15,1,0,-1,4
1501874184914172,-4,-25,-1,11,-13,-6,-1,-14
1501874184915153,-4,-70,-11,-22,-9,-1,6,28
1501874184915153,0,2,36,42,-21,1,-3,-11
1501874184928169,2,3,-17,-24,-24,-1,3,15
1501874184928169,11,-16,-26,-19,2,-1,-1,13
1501874184935154,-21,65,-10,27,1,-10,-11,-45
1501874184935154,-8,-84,11,11,2,9,4,10
1501874184951153,5,-4,-2,23,3,3,0,-13
1501874184951153,6,12,24,11,8,2,3,18
1501874184953154,4,28,-28,-79,-17,-2,2,8
1501874184953154,0,-29,22,23,-1,-7,-2,7
1501874184974154,-13,-16,6,14,-13,-3,-4,-23
1501874184974154,-10,4,23,1,-1,-1,-2,-13
1501874184975154,-13,-40,12,-17,45,14,4,3
1501874184975154,-2,15,0,-34,4,-2,-4,-24
1501874184988176,13,19,-12,-2,-21,-2,2,18
1501874184988176,2,22,-1,45,11,-8,0,8
1501874184995154,4,-85,-5,-16,-21,6,11,15
1501874184995154,5,71,27,41,14,5,-9,-26
1501874185011160,-2,38,18,-57,5,0,-1,14
1501874185011160,-28,-50,-41,-28,-18,-3,-4,-30
1501874185013156,16,37,5,19,-32,-8,-4,32
1501874185013156,1,-18,-14,-28,36,-4,3,13
1501874185034157,-4,22,17,28,-18,3,1,4
1501874185034157,29,58,14,24,14,2,9,3
1501874185035158,-38,-47,-24,-16,7,-6,-24,-34
1501874185035158,-5,36,20,56,-3,-2,2,-4
1501874185048159,9,27,-15,-28,-10,0,-3,-13
1501874185048159,-9,-87,-39,-56,-1,1,0,22
1501874185055165,8,61,10,52,-21,-4,3,-28
1501874185055165,6,-36,22,-69,41,0,-2,20
1501874185071165,-2,-2,4,16,-28,-3,-5,-9
1501874185071165,0,14,-31,-19,55,7,0,3
1501874185073159,-4,-68,-16,-5,-3,-3,0,3
1501874185073159,-11,12,18,10,-53,-5,-8,-13
1501874185094160,12,49,16,15,11,0,11,26
1501874185094160,7,-3,-8,7,-5,4,-4,18
1501874185095161,-12,-1,15,-73,4,-4,-8,-18
1501874185095161,0,45,-1,35,35,0,4,-18
1501874185108182,-6,-9,-46,-50,3,3,-3,-51
1501874185108182,-7,-13,16,50,-29,-13,-10,-11
1501874185115166,1,2,-7,-1,20,2,8,10
1501874185115166,-4,31,0,15,-33,-3,-5,-10
1501874185131165,7,3,-11,4,12,2,4,2
1501874185131165,-1,-1,4,7,-4,-7,-5,-8
1501874185133163,18,62,9,6,-15,2,6,51
1501874185133163,-18,-73,1,-33,-5,-3,-19,-46
1501874185153185,5,-6,13,32,13,-1,0,-18
1501874185153185,-2,28,-14,-53,-25,0,-1,42
1501874185160182,-3,-11,8,-1,4,-1,2,3
1501874185160182,17,65,10,72,6,0,8,21
1501874185167164,-14,-48,5,-8,-4,3,4,1
1501874185167164,-16,-31,-7,9,13,-6,-8,-16
1501874185176165,7,4,11,-41,4,3,3,4
1501874185176165,4,23,-15,28,-15,-2,-2,-20
1501874185191166,6,32,11,-20,-28,-13,-8,21
1501874185191166,-9,-50,20,17,27,13,5,-12
1501874185193166,-15,-25,2,-2,-30,-8,-6,-3
1501874185193166,5,51,6,-5,37,-2,-1,-4
1501874185213189,13,64,2,6,-20,-8,-12,-24
1501874185213189,-11,0,5,-8,-19,-3,0,-13
1501874185215168,15,39,-13,6,28,6,11,18
1501874185215168,-16,9,-11,15,-15,-6,-13,-41
1501874185236171,0,45,-1,-28,-8,4,0,27
1501874185236171,-8,-49,24,28,7,4,2,-25
1501874185238169,14,8,-15,25,-30,-12,-8,-13
1501874185238169,1,14,-17,-45,26,11,11,38
1501874185251172,-2,-15,9,-3,14,-2,0,15
1501874185251172,3,33,5,-54,8,2,0,6
1501874185253191,8,33,-5,35,11,4,5,-10
1501874185253191,-2,-14,-6,-4,-17,-4,1,14
1501874185273192,-14,-55,0,1,11,-8,-9,-22
1501874185273192,9,85,27,21,-27,-3,5,-6
1501874185275172,-1,-25,11,-3,19,1,1,4
1501874185275172,-2,-30,-28,17,-31,-5,0,-16
1501874185287171,-1,2,22,-40,6,12,6,0
1501874185287171,-1,-25,-29,-8,49,0,-5,-1
1501874185296173,-11,1,26,-2,-16,-1,-7,-19
1501874185296173,24,22,-8,4,30,2,8,26
1501874185319196,-26,-103,20,38,-58,-16,2,32
1501874185319196,4,54,-19,-10,17,1,-10,-47
1501874185320174,2,33,31,-24,-26,-2,-4,-20
1501874185320174,-24,-58,-38,-27,41,0,-14,-7
1501874185333177,12,32,21,45,14,4,1,5
1501874185333177,11,65,12,2,-24,-1,4,52
1501874185335174,-11,-105,-20,27,26,0,1,-19
1501874185335174,-10,24,-18,-44,-72,-11,1,8
1501874185347175,2,33,-4,20,26,2,-3,-13
1501874185347175,-1,-28,-20,-10,-1,-3,0,9
1501874185356175,2,31,2,24,12,3,-3,0
1501874185356175,12,-17,8,-22,-31,-1,-4,-8
1501874185371177,-10,-33,-28,10,10,0,0,-3
1501874185371177,-1,-4,-11,-27,-12,3,9,36
1501874185373177,4,-31,7,5,16,-1,-6,-14
1501874185373177,-10,-3,4,43,16,2,-2,-23
1501874185394177,11,78,-16,-6,-3,-2,2,17
1501874185394177,-7,-20,34,46,-32,-18,-5,-12
1501874185395178,-1,8,-19,-18,5,3,-5,2
1501874185395178,10,29,2,-17,24,10,5,18
1501874185407195,-2,-13,11,-22,-32,-6,0,-14
1501874185407195,8,62,34,57,66,5,10,27
1501874185416180,-6,-71,-28,-48,-27,-11,-10,-6
1501874185416180,-18,-29,-17,-24,-24,-4,-4,5
1501874185431182,2,20,-1,17,33,7,1,-1
1501874185431182,10,8,-43,-21,-32,-6,-3,-26
1501874185433183,-8,-17,0,-22,18,2,3,31
1501874185433183,7,3,31,6,-19,-3,3,2
1501874185454182,0,23,5,-4,13,6,3,12
1501874185454182,0,-35,-13,52,0,-4,-7,-7
1501874185455183,-3,35,-23,-63,-47,2,6,1
1501874185455183,19,17,13,53,19,0,13,30
1501874185467181,-18,-53,-6,-32,-5,0,-12,-42
1501874185467181,14,48,31,-31,-5,4,0,1
1501874185476183,-7,7,-11,29,3,-1,-1,-4
1501874185476183,-16,25,14,-13,-7,3,8,19
1501874185491203,19,-75,-25,-26,-9,-3,6,60
1501874185491203,-19,-20,-23,-45,-1,-3,-13,-57
1501874185493185,7,20,-8,21,-47,-4,-2,2
1501874185493185,7,14,21,3,55,-1,1,3
1501874185514184,-1,12,4,-2,12,6,0,-6
1501874185514184,-5,-4,-8,-1,-2,-2,-2,6
1501874185515185,12,17,32,41,30,6,4,4
1501874185515185,-5,10,-34,-24,-54,-6,-3,-14
1501874185527188,1,25,10,1,6,-7,1,4
1501874185527188,-3,-70,-8,-8,1,2,7,23
1501874185544208,-7,3,9,50,33,3,-3,-24
1501874185544208,16,29,10,-4,-11,-1,-3,-10
1501874185551186,-20,-14,-7,-6,-24,-9,-6,-10
1501874185551186,-4,26,31,13,-13,4,6,11
1501874185553190,-2,34,-8,44,2,-9,-2,30
1501874185553190,0,-28,-3,-29,32,-4,-16,-67
1501874185574198,-11,-21,-18,-33,-29,6,0,-13
1501874185574198,0,30,30,8,-27,-3,-1,-4
1501874185575194,-8,-11,-26,-6,41,5,-2,10
1501874185575194,-10,-25,-20,-41,-32,-4,1,2
1501874185587227,13,26,44,54,38,-3,8,29
1501874185587227,-10,-29,-62,-54,-17,-7,-22,-43
1501874185596191,0,11,26,-12,-26,-6,-3,-28
1501874185596191,-4,16,8,-17,-12,2,0,13
1501874185611193,-5,-49,-34,-5,9,-4,-1,2
1501874185611193,6,9,13,32,-8,2,8,31
1501874185613195,8,26,20,18,15,-1,-1,-7
1501874185613195,-12,-48,-22,1,-41,-8,-3,11
1501874185633213,-14,-49,-1,22,5,-2,0,8
1501874185633213,16,54,-1,-27,16,3,0,5
1501874185635192,-21,-69,-46,-48,-26,-2,-8,-2
1501874185635192,1,24,28,3,51,4,-2,-14
1501874185647192,9,60,-1,4,3,3,2,4
1501874185647192,-5,-45,17,58,0,-6,-3,-18
1501874185656196,15,45,8,-46,-7,3,7,24
1501874185656196,-4,24,6,17,-13,-1,7,17
1501874185671199,3,-52,-12,3,14,2,-3,-11
1501874185671199,-4,7,2,-12,-13,-3,1,18
1501874185673197,13,-43,-6,34,18,4,-2,-11
1501874185673197,-11,-17,-17,1,-5,0,1,-14
1501874185694209,9,29,14,-3,-29,-3,1,17
1501874185694209,-13,9,10,-6,21,-5,-2,5
1501874185695195,10,21,18,19,31,3,-1,7
1501874185695195,-14,2,-34,-54,-33,-5,-5,-5
1501874185716218,1,11,10,11,-3,-1,-3,-16
1501874185716218,8,-10,11,5,4,3,3,5
1501874185718199,-13,-1,5,-9,-16,-7,-3,-28
1501874185718199,10,-35,14,15,15,4,5,25
1501874185731197,-5,-32,-44,-18,-29,-3,-5,-20
1501874185731197,-2,-2,8,3,6,-2,3,24
1501874185733201,-8,9,10,39,28,0,3,-16
1501874185733201,2,-10,2,-12,11,2,-4,19
1501874185753198,-3,-25,4,-5,27,5,-7,-40
1501874185753198,-13,-42,0,-15,-22,-6,-5,-18
1501874185761200,4,6,-28,-42,-3,-1,2,19
1501874185761200,4,44,24,81,-34,-8,-1,14
1501874185776199,-2,20,-10,-15,4,-3,-2,0
1501874185776199,2,25,-11,-14,-32,1,1,-1
1501874185778200,5,61,-3,-26,56,2,3,-12
1501874185778200,-4,-72,1,10,-2,4,-2,-6
1501874185791203,1,23,15,10,-59,-4,0,-6
1501874185791203,13,30,-32,38,36,4,5,41
1501874185793201,-4,-13,-4,-3,-3,-6,-1,-8
1501874185793201,2,4,7,-45,-15,1,-10,-2
1501874185814208,-4,3,16,39,1,1,2,5
1501874185814208,-8,2,14,-31,-26,-6,-8,-37
1501874185815206,7,-42,-58,15,13,-8,-3,10
1501874185815206,2,22,21,5,25,7,7,-2
1501874185836203,-7,-13,14,26,17,-1,0,-1
1501874185836203,5,48,8,-7,-37,0,2,1
1501874185838204,-14,-54,11,-10,10,-2,-6,-13
1501874185838204,6,-24,-3,13,-40,-4,1,-15
1501874185850224,-1,49,-25,-5,47,-2,-3,16
1501874185850224,5,-54,-9,-30,-6,5,4,8
1501874185857207,0,28,9,-3,-11,6,4,-16
1501874185857207,-3,15,1,24,12,-5,-1,21
1501874185874208,8,-14,13,9,2,2,1,-7
1501874185874208,-6,-25,-11,-6,-12,-5,-4,-28
1501874185875206,-4,-7,11,-1,16,4,3,15
1501874185875206,-6,0,3,23,7,0,-3,-12
1501874185896206,3,19,0,-28,-34,-3,-3,6
1501874185896206,10,18,-27,13,-14,-2,-1,-14
1501874185898222,-12,-28,2,0,-12,-8,2,33
1501874185898222,7,68,-14,-26,14,0,-2,-6
1501874185910210,-5,-80,23,-13,44,3,-3,-19
1501874185910210,-15,-10,31,25,6,0,-3,-10
1501874185917208,-1,30,-21,-17,-14,2,3,3
1501874185917208,3,-3,-4,-5,-35,-9,4,34
1501874185933230,4,13,4,-8,-21,-5,2,-35
1501874185933230,-10,-7,14,0,40,6,-7,-2
1501874185935210,0,-10,19,39,-21,2,2,7
1501874185935210,5,20,4,14,38,1,0,-15
1501874185956210,5,26,-12,-32,-57,-6,-1,-5
1501874185956210,12,77,-9,-18,44,0,7,15
1501874185958231,-8,-97,2,-25,-14,1,-8,-13
1501874185958231,-6,22,6,7,4,0,-1,-10
1501874185970249,-7,25,-8,-17,5,-3,-2,-1
1501874185970249,3,-3,-3,15,-13,-3,1,16
1501874185977254,4,34,-6,-3,-23,-6,-8,8
1501874185977254,-2,-47,-8,-34,34,5,-2,-16
1501874185993212,-4,-33,-8,19,2,4,2,12
1501874185993212,-3,8,10,28,18,0,-2,3
1501874185995214,1,13,-21,-62,-7,-1,4,5
1501874185995214,7,13,22,35,-4,-3,1,12
1501874186016219,-23,-27,-14,-29,4,0,-14,-27
1501874186016219,4,-19,-30,3,-15,-8,-6,-21
1501874186018236,5,65,11,23,-12,-1,3,11
1501874186018236,-5,-77,11,-43,8,1,-5,-34
1501874186030217,-2,9,-14,14,1,0,6,14
1501874186030217,-3,-20,13,8,-5,-2,-6,-12
1501874186037215,-2,-5,-2,5,27,-2,-4,-4
1501874186037215,0,13,-18,12,-11,2,3,11
1501874186054216,-1,21,-2,-41,-60,-7,-1,12
1501874186054216,-3,-11,5,-2,44,-1,-3,2
1501874186055218,-2,31,-4,-2,-25,0,-3,-2
1501874186055218,1,-37,-4,-5,-7,2,3,-9
1501874186076217,3,11,25,71,22,-4,-11,-4
1501874186076217,-3,13,-24,-38,-9,3,4,16
1501874186078221,16,19,24,11,14,8,6,13
1501874186078221,-12,8,-26,2,-15,-10,-14,-61
1501874186090218,-13,-39,-4,4,9,-4,-4,-31
1501874186090218,4,5,12,-20,-3,2,0,0
1501874186097276,8,24,10,16,14,2,1,8
1501874186097276,6,19,-18,3,-28,-6,-6,5
1501874186114246,2,4,-14,-17,3,-1,2,6
1501874186114246,-3,12,-1,1,13,5,3,-4
1501874186115241,-9,-44,-19,-2,-4,1,0,-16
1501874186115241,-1,13,18,35,2,-1,2,24
1501874186136223,7,-8,-23,-9,11,2,1,18
1501874186136223,-2,1,-3,18,-1,-2,-1,7
1501874186138223,0,4,17,-17,-27,-4,3,-4
1501874186138223,-8,28,19,11,-14,-4,-9,-22
1501874186150224,-3,13,-9,32,35,5,3,11
1501874186150224,5,-28,-4,-16,-12,0,0,-8
1501874186157244,-4,-39,-22,-12,-9,-1,0,-5
1501874186157244,8,11,10,15,7,6,13,77
1501874186174226,-11,5,13,-31,-10,-2,-17,-51
1501874186174226,5,15,2,9,-9,-7,-3,5
1501874186175223,-11,-57,-16,8,0,-1,-5,-30
1501874186175223,3,-15,-25,-17,1,1,5,27
1501874186196227,2,1,-8,12,22,0,7,29
1501874186196227,-8,-22,2,-8,-37,1,-3,-27
1501874186198228,-5,35,24,17,-8,-9,-8,-16
1501874186198228,0,-37,17,-15,36,6,2,-5
1501874186210225,10,-7,-50,-28,-8,0,5,50
1501874186210225,-3,3,9,-26,-23,-4,-4,-8
1501874186219225,-4,0,-24,-16,-31,-3,-1,7
1501874186219225,5,46,-4,7,6,-9,-6,-9
1501874186233229,9,54,-13,5,-5,5,0,-16
1501874186233229,-6,-21,-10,5,-26,-3,-1,8
1501874186235231,13,59,-3,-9,15,-1,2,35
1501874186235231,-3,-51,19,-4,21,1,-3,-17
1501874186256232,-10,-7,5,4,-14,-4,-4,-37
1501874186256232,-1,19,8,18,-8,-4,-2,-7
1501874186258249,-3,-8,2,-22,-1,-2,-5,-26
1501874186258249,1,-13,-9,-3,-6,1,3,11
1501874186270228,6,-41,8,-19,-17,-7,0,41
1501874186270228,-9,-16,3,6,22,-3,-5,-16
1501874186279250,1,-19,14,14,9,6,3,-3
1501874186279250,7,62,3,-24,-32,1,5,0
1501874186293232,-6,-84,2,-3,8,-6,-2,8
1501874186293232,-11,-26,8,-2,13,5,-7,-1
1501874186295233,-6,-25,-13,8,-42,-10,-2,24
1501874186295233,-9,-7,-29,-20,28,5,-1,-33
1501874186316252,8,47,21,28,7,-1,-3,5
1501874186316252,12,-13,-1,19,-12,-4,9,18
1501874186318231,-8,-25,-18,-79,7,3,-7,-21
1501874186318231,-13,-24,-9,13,-9,-4,-4,-2
1501874186330254,6,22,24,-6,-2,3,6,1
1501874186330254,12,82,24,23,-1,-1,3,5
1501874186339253,-1,-82,17,20,-11,-5,-6,-20
1501874186339253,-9,-16,-23,-2,32,8,0,2
1501874186354234,2,26,15,-2,-7,2,3,-4
1501874186354234,-16,-11,-28,-25,27,-4,-9,1
1501874186355236,4,59,-7,12,-16,-5,-2,1
1501874186355236,4,-3,7,13,22,0,-2,4
1501874186376254,-2,19,23,-17,-49,0,5,-25
1501874186376254,-1,-69,-17,16,16,-1,-6,-14
1501874186378260,-6,26,-9,-11,18,-1,-2,-1
1501874186378260,-1,-5,-3,7,-30,-3,-3,-14
1501874186390235,18,111,14,43,-12,-10,11,64
1501874186390235,-10,-51,-26,-19,36,8,-2,-50
1501874186399256,-4,15,12,9,13,-1,-6,-10
1501874186399256,-2,21,-13,3,-11,-4,-2,17
1501874186414236,0,29,-12,3,15,6,6,-9
1501874186414236,10,14,18,-18,-29,-5,2,28
1501874186415238,-4,-21,-11,31,18,1,-1,3
1501874186415238,11,39,3,9,-20,-7,-2,-2
1501874186436299,-7,-97,-2,-29,6,6,4,19
1501874186436299,-2,10,-6,-37,12,-4,-7,-32
1501874186438242,1,21,3,2,6,10,4,6
1501874186438242,-7,-33,30,33,-35,-5,0,17
1501874186450242,3,-17,-34,-39,26,-2,-13,-39
1501874186450242,-9,16,6,-3,-5,-1,-2,15
1501874186459240,0,8,-1,5,-17,-2,0,-8
1501874186459240,2,0,19,1,-11,0,4,-2
1501874186473261,-8,-3,2,11,37,-4,-6,-3
1501874186473261,-2,-19,-16,-25,-39,0,5,42
1501874186475243,7,55,24,36,25,-2,-4,-3
1501874186475243,4,-28,-34,-63,-28,10,4,-12
1501874186496241,-13,-24,2,1,33,0,-8,-11
1501874186496241,7,44,-5,6,-8,-2,6,25
1501874186498247,-8,-48,1,19,-13,-5,-3,-20
1501874186498247,6,74,-10,-18,44,0,-2,-2
1501874186510262,-10,-61,-8,-7,-20,-3,-2,-5
1501874186510262,-5,-30,-4,15,-3,-2,4,20
1501874186519264,5,23,8,16,-21,-7,-3,-4
1501874186519264,-2,3,3,-23,6,-3,-8,-15
1501874186533248,3,44,17,-1,-10,2,-1,-13
1501874186533248,5,15,-1,5,5,0,7,11
1501874186535248,0,22,-4,-7,-12,-6,-2,26
1501874186535248,-10,-33,18,48,12,-4,-16,-65
1501874186556266,4,34,-11,-8,-16,8,2,-1
1501874186556266,-7,-37,34,9,-4,0,5,-8
1501874186558268,-3,-15,-32,-30,4,-2,-1,13
1501874186558268,3,-4,-10,7,14,-3,1,14
1501874186570246,-6,-6,-1,33,-4,-3,3,15
1501874186570246,19,66,23,17,-28,-4,-7,-31
1501874186579247,-4,-17,-31,-31,36,10,0,9
1501874186579247,-7,-15,-2,7,-1,-3,-1,18
1501874186593247,-1,5,13,6,-5,0,-1,-8
1501874186593247,5,38,11,18,-7,-4,-2,1
1501874186595248,3,-46,-4,-15,-9,-4,-2,-3
1501874186595248,-5,-19,-25,-22,-28,-3,-2,-5
1501874186616270,4,34,-3,36,19,-3,0,18
1501874186616270,3,17,-16,-31,9,3,4,17
1501874186618249,-5,30,42,5,19,0,-6,-37
1501874186618249,0,-10,-4,4,-51,-1,3,24
1501874186638251,2,18,-27,-23,60,8,-3,-31
1501874186638251,8,15,-6,4,-3,1,10,65
1501874186640250,2,31,23,3,-13,-1,-2,-46
1501874186640250,-9,-30,-3,-18,11,-5,-6,1
1501874186653272,-3,-41,-9,19,-43,-7,-3,2
1501874186653272,0,1,-13,-20,21,0,-4,-17
1501874186655252,5,-33,17,13,5,4,7,25
1501874186655252,-4,19,-19,3,12,-2,0,-2
1501874186676255,-4,-8,9,11,-30,-8,-1,-9
1501874186676255,-2,-46,-13,4,21,9,-2,6
1501874186678271,-2,13,1,-33,-3,-3,-5,-35
1501874186678271,5,20,5,6,12,5,4,0
1501874186698253,2,7,16,19,-12,-2,-1,14
1501874186698253,1,-10,-7,-8,-33,-11,0,-1
1501874186700258,-20,-34,-47,-27,51,-7,-12,-27
1501874186700258,4,-11,0,-8,-4,0,1,1
1501874186713257,-1,53,17,-18,11,1,2,3
1501874186713257,-11,-67,-4,15,-20,-10,-10,-47
1501874186715254,3,11,23,20,11,9,8,20
1501874186715254,0,10,-15,3,-16,-3,7,20
1501874186736277,13,-20,18,-20,21,-4,-8,-22
1501874186736277,-13,-14,-23,15,49,10,-3,-30
1501874186738257,3,-11,-5,15,-34,0,5,20
1501874186738257,-5,-5,15,-7,16,2,2,10
1501874186758277,-3,-3,5,22,-42,-2,-2,1
1501874186758277,-2,20,-8,-2,-14,-5,-5,-23
1501874186760257,-5,-26,3,-5,11,-2,-7,-1
1501874186760257,7,-10,4,18,-13,-1,-1,4
1501874186773279,1,-10,-22,-16,9,2,0,22
1501874186773279,-7,-10,6,-16,-6,-3,-9,-42
1501874186780281,6,29,7,23,-13,-2,4,16
1501874186780281,6,48,19,40,6,-5,-1,-12
1501874186796280,-21,-104,-11,-70,-31,1,-1,3
1501874186796280,2,-3,-19,-5,37,-1,2,17
1501874186798277,4,29,11,20,-39,-8,-3,12
1501874186798277,0,105,16,-7,29,4,2,-28
1501874186818260,4,-90,-16,10,-11,-2,0,-13
1501874186818260,-1,26,12,24,-28,-2,1,23
1501874186820260,4,-10,1,-34,-3,5,3,2
1501874186820260,-7,-24,-10,-32,-4,-3,-9,3
1501874186833282,0,40,20,22,1,-1,-3,-9
1501874186833282,-3,0,1,-4,-2,-2,1,6
1501874186840261,-1,-12,5,17,-5,-1,1,7
1501874186840261,12,24,15,0,1,-4,1,27
1501874186856262,-17,28,-2,10,-39,-6,-8,-68
1501874186856262,-1,-61,-10,3,55,14,4,7
1501874186858263,4,45,-5,-8,14,2,0,5
1501874186858263,-6,-80,-8,-2,0,3,1,17
1501874186878279,0,29,-3,20,14,-4,-1,2
1501874186878279,2,23,7,2,-27,-5,-2,-3
1501874186880264,7,1,-7,-20,-16,6,2,-5
1501874186880264,7,-32,0,-17,-1,0,3,6
1501874186893267,-2,-13,-10,4,-13,-5,2,32
1501874186893267,14,60,2,-14,34,-3,-4,-16
1501874186900288,-22,-47,-12,12,-11,-8,-5,7
1501874186900288,-7,-16,-22,1,-3,3,-3,-10
1501874186916312,7,42,6,-2,36,1,-1,10
1501874186916312,1,16,9,17,4,2,1,9
1501874186918280,-10,-31,-20,-42,-25,0,8,27
1501874186918280,0,-45,-1,5,9,-7,-3,-5
1501874186938269,-3,19,11,-5,-14,1,0,-9
1501874186938269,-3,-11,-28,16,9,-3,-3,-5
1501874186940268,11,46,6,-25,45,-3,-1,1
1501874186940268,-11,-81,-17,-34,-48,-5,3,-5
1501874186953287,0,-14,-16,-10,43,7,-2,13
1501874186953287,-1,28,21,-6,-52,-4,0,-7
1501874186960276,-1,-25,0,20,8,-4,-2,-3
1501874186960276,2,31,4,23,21,1,2,24
1501874186976291,3,-5,-3,-17,-12,-1,-1,-14
1501874186976291,-15,-28,-4,-11,-22,-8,-4,-4
1501874186978270,0,38,-3,17,5,1,4,-9
1501874186978270,-2,-20,9,-1,-13,1,-6,-23
1501874186998292,4,4,-6,5,25,3,5,33
1501874186998292,-10,11,-2,12,-7,1,-3,-47
1501874187000292,25,3,11,41,17,-2,7,36
1501874187000292,-23,-2,4,-50,-38,-3,-22,-48
1501874187013291,2,31,-13,1,29,1,-5,2
1501874187013291,6,-43,-1,12,-25,-1,4,34
1501874187020272,-9,-3,-26,-72,21,-8,-7,-37
1501874187020272,-1,38,18,37,3,2,3,-2
1501874187036275,-3,-28,-2,-4,-2,-3,2,-10
1501874187036275,-2,2,22,2,-5,-2,-3,16
1501874187038274,0,-2,-4,33,-49,-2,-5,-13
1501874187038274,7,5,5,-12,4,3,10,53
1501874187058277,-6,17,2,-34,22,0,-2,-17
1501874187058277,14,-63,17,23,20,-1,-4,13
1501874187060284,-11,4,-10,0,-27,-1,-8,-13
1501874187060284,-2,14,-18,-6,9,-4,-3,4
1501874187073296,1,-8,2,27,-35,0,3,-7
1501874187073296,-5,2,-8,-33,16,1,2,11
1501874187080293,-3,-4,2,6,-14,0,-1,-12
1501874187080293,7,39,-3,-3,13,2,-2,-10
1501874187096297,-4,-27,0,-4,-18,-3,2,8
1501874187096297,-9,4,-1,0,-8,0,2,5
1501874187098278,8,44,16,43,37,9,4,17
1501874187098278,-2,-58,-17,-35,33,1,3,16
1501874187118277,-2,20,-10,0,-1,-3,-3,-21
1501874187118277,0,2,-1,-11,-55,-9,-7,-23
1501874187120311,-12,-32,-7,-11,55,8,0,3
1501874187120311,-5,1,14,8,-9,-1,-1,-1
1501874187132282,4,2,8,8,-8,-5,-2,17
1501874187132282,-4,15,-22,-5,-1,0,0,-1
1501874187141284,9,23,19,4,-15,0,2,-3
1501874187141284,-1,11,-23,21,10,4,2,-7
1501874187156279,0,-26,17,14,-15,-2,4,22
1501874187156279,4,29,10,-18,11,-2,-10,-31
1501874187157284,-11,-40,-18,-11,-23,-4,-4,-9
1501874187157284,-8,4,9,46,0,-6,-6,-15
1501874187178283,12,56,1,-25,8,7,5,12
1501874187178283,-13,-65,-16,19,-41,-2,6,32
1501874187180312,5,7,-10,-44,30,0,-10,-10
1501874187180312,-2,-5,0,5,-16,-5,-3,-11
1501874187192302,-4,21,-10,-2,11,-1,-2,-4
1501874187192302,15,-9,11,10,-23,2,6,17
1501874187201282,-15,-15,-8,-17,-4,-5,-3,-9
1501874187201282,4,15,-1,-6,-7,-3,2,20
1501874187216286,1,-24,6,44,10,1,-7,-35
1501874187216286,-7,-8,-6,-46,13,4,-4,-23
1501874187217283,2,-6,1,14,-5,2,4,11
1501874187217283,5,19,12,9,1,-4,0,-22
1501874187238285,12,19,11,15,-32,-4,6,40
1501874187238285,-17,-7,-14,-31,47,2,-6,-32
1501874187240287,-4,10,7,19,-16,-4,-2,-5
1501874187240287,1,31,-8,-2,11,3,5,4
1501874187252285,1,-17,13,27,3,-4,-5,-7
1501874187252285,7,9,14,0,21,5,6,4
1501874187261286,-5,-25,-3,7,3,-1,-2,11
1501874187261286,2,18,4,-30,-17,0,0,-4
1501874187283308,-8,-18,1,12,3,-7,-8,-10
1501874187283308,5,46,1,-9,-23,2,1,16
1501874187285287,-4,8,2,28,6,-8,-5,-19
1501874187285287,8,-28,3,-52,1,3,6,14
1501874187298308,-16,4,-4,11,7,-3,-7,-6
1501874187298308,3,-40,-9,-4,15,0,5,14
1501874187300309,4,17,-4,4,-15,-1,-3,-9
1501874187300309,-3,13,10,30,-9,-2,-2,0
1501874187312289,2,-42,-13,-47,6,-2,-3,18
1501874187312289,-1,22,-1,9,6,-1,-2,-9
1501874187321290,2,6,4,-1,-11,3,6,23
1501874187321290,1,1,-4,16,6,-1,-2,-18
1501874187336311,-1,-7,-16,-51,-11,-3,-4,-5
1501874187336311,3,37,16,19,6,0,1,10
1501874187338291,-2,20,-2,19,-4,0,-1,-3
1501874187338291,5,-11,-2,20,-10,-4,0,35
1501874187358313,-13,-56,-7,-32,-1,-3,-5,-26
1501874187358313,1,23,-1,3,22,-1,-2,1
1501874187360295,-1,-5,-18,-22,-20,-5,2,3
1501874187360295,-7,-12,5,0,1,-1,-4,-13
1501874187372292,2,26,7,14,-16,0,3,3
1501874187372292,-2,0,2,2,-9,-7,-1,-2
1501874187381294,5,1,16,27,11,-3,0,4
1501874187381294,1,1,-17,-31,-10,6,6,6
1501874187396296,1,2,-2,-17,47,-1,-10,-18
1501874187396296,-10,-21,-25,-10,2,1,-5,-11
1501874187397296,0,-2,1,-4,-15,-1,0,2
1501874187397296,-7,-6,-4,3,14,-5,-3,-7
1501874187418297,8,51,19,4,-25,0,5,11
1501874187418297,5,25,12,13,2,-1,1,2
1501874187420329,-4,-33,-6,-12,-4,-2,0,9
1501874187420329,-1,-30,-3,5,-3,-3,-7,-29
1501874187432317,-2,10,-20,-15,-1,5,4,-2
1501874187432317,-1,-28,7,26,-2,-2,-2,-2
1501874187441298,-1,-1,1,-13,-4,1,2,-3
1501874187441298,-6,-21,0,-8,2,-3,-6,-4
1501874187456299,2,14,-6,59,1,-2,9,24
1501874187456299,-2,-13,3,-6,-5,-4,-10,-36
1501874187457297,0,11,-12,-63,7,8,-1,-7
1501874187457297,-3,-4,2,-5,28,-1,-4,-19
1501874187478316,-3,-35,5,-3,-17,-3,-2,1
1501874187478316,1,10,-30,-9,-27,-8,1,10
1501874187480303,1,9,18,31,-3,-1,-1,-5
1501874187480303,1,25,14,3,13,3,1,3
1501874187492299,4,-6,7,-10,-4,-1,1,-5
1501874187492299,-5,-8,10,14,-2,-2,-1,5
1501874187501300,-1,-7,-5,29,6,-2,1,-12
1501874187501300,2,3,-17,-26,-11,4,5,14
1501874187516301,0,8,7,5,5,-2,-5,2
1501874187516301,-6,0,0,-9,8,5,2,2
1501874187517300,-3,-13,-2,3,1,-1,4,24
1501874187517300,3,25,12,23,-15,-3,-3,-18
1501874187538304,-11,-7,-13,-7,0,1,-7,-50
1501874187538304,-2,25,5,26,-2,-1,-2,5
1501874187540303,4,-15,-8,-63,5,6,0,14
1501874187540303,-10,7,-9,6,-7,-2,1,-21
1501874187561306,-3,-11,-3,-15,-11,-6,-4,0
1501874187561306,2,14,-5,25,26,0,-2,-1
1501874187562306,0,-4,-3,-17,4,-3,3,2
1501874187562306,2,-6,3,13,0,1,-1,24
1501874187576325,-6,8,-6,-20,-21,-2,-6,-24
1501874187576325,1,-2,-1,16,11,1,3,-1
1501874187577307,6,-4,10,-3,-16,-1,-1,2
1501874187577307,-1,17,-6,-1,-2,-6,-3,-3
1501874187597307,1,-33,3,-3,14,4,3,21
1501874187597307,8,64,7,-6,-8,0,6,14
1501874187606307,3,-75,-19,-9,-8,-6,-6,-1
1501874187606307,-6,0,-2,22,-2,0,-4,-5
1501874187621310,0,13,-11,6,11,-1,5,12
1501874187621310,1,28,10,22,13,-3,-1,-6
1501874187622326,-5,-35,1,-39,-17,0,0,8
1501874187622326,0,-4,1,-10,-10,0,4,-1
1501874187636307,5,13,-3,6,7,4,-4,-9
1501874187636307,3,3,0,-32,6,-3,-3,-2
1501874187638308,-12,-20,-21,32,5,-4,-6,-9
1501874187638308,6,15,14,4,10,-3,0,19
1501874187658326,-5,-16,-2,-19,-22,0,-2,8
1501874187658326,-2,-18,-3,-19,-21,-4,-5,-20
1501874187660313,0,30,16,29,22,2,2,-3
1501874187660313,-6,-18,-6,8,6,-6,-6,-4
1501874187681310,5,34,-6,-19,-28,1,4,3
1501874187681310,4,-47,-14,-21,3,4,7,8
1501874187682313,7,32,0,-5,16,4,4,14
1501874187682313,-11,-36,-3,3,-1,-4,-8,-8
1501874187696332,1,46,23,71,13,0,6,4
1501874187696332,-5,-101,-6,-69,-2,-3,-14,-8
1501874187697332,-6,31,10,8,9,-2,-2,-5
1501874187697332,2,5,0,-22,-23,-2,-3,-2
1501874187718312,-13,-27,-13,9,-8,-4,-1,2
1501874187718312,5,25,8,32,0,1,6,7
1501874187720317,9,2,7,19,23,6,0,13
1501874187720317,-2,-8,-13,-7,3,1,-2,0
1501874187741316,0,-16,-5,-19,10,-4,-3,7
1501874187741316,-5,15,-8,23,-10,-4,-1,1
1501874187742317,-7,5,-5,-17,-17,-5,-5,-22
1501874187742317,5,3,4,8,-2,0,2,3
1501874187755315,2,8,6,0,-3,3,3,4
1501874187755315,-3,-19,-10,6,-12,3,2,5
1501874187762334,-7,5,-4,6,6,-6,-9,-21
1501874187762334,0,10,4,-19,15,-5,-7,1
1501874187778316,-1,-6,-12,-12,-8,0,1,-6
1501874187778316,-5,-2,-1,0,13,2,-1,4
1501874187780337,0,15,-10,1,-10,-3,0,-1
1501874187780337,1,36,26,12,-22,-5,1,-2
1501874187801317,4,-30,-9,35,-20,-9,-2,27
1501874187801317,-13,-32,-13,-59,25,3,-4,-44
