timestamp,emg1,emg2,emg3,emg4,emg5,emg6,emg7,emg8
1501876482064884,4,-63,20,3,47,8,13,31
1501876482064884,-6,-39,-90,-77,-5,-2,-12,-56
1501876482065905,10,13,5,-50,14,12,6,2
1501876482065905,-13,66,51,3,-22,-11,-15,-67
1501876482069924,2,-45,12,11,-8,7,-1,-46
1501876482069924,8,22,24,34,26,-6,10,41
1501876482070885,3,20,-48,-1,3,1,-7,-2
1501876482070885,7,22,-11,6,21,-3,-11,7
1501876482075949,8,1,-29,-82,-54,-5,14,33
1501876482075949,-4,8,31,44,82,9,-11,-75
1501876482084929,-2,9,33,41,-76,-7,9,60
1501876482084929,-8,-75,-38,52,30,4,-5,-10
1501876482090952,13,69,13,2,-36,-14,-13,38
1501876482090952,-13,-38,-19,1,21,16,2,27
1501876482105924,2,27,19,13,-8,-15,-18,-74
1501876482105924,12,9,4,-44,1,10,11,49
1501876482113910,-18,9,4,25,-17,-12,1,-62
1501876482113910,6,-4,36,-41,-45,6,7,59
1501876482128915,-24,-70,9,80,37,-21,-13,-37
1501876482128915,5,14,3,-17,16,26,16,21
1501876482136911,-10,3,-24,38,-23,-2,-11,-17
1501876482136911,5,2,11,-33,-25,-3,1,26
1501876482150918,16,24,24,43,17,7,27,89
1501876482150918,-9,-6,-27,-57,-60,-24,-28,-71
1501876482191898,-5,-39,5,-25,19,17,11,58
1501876482191898,14,46,0,44,-32,-1,15,23
1501876482192904,-8,-30,23,28,10,1,-10,-42
1501876482192904,-1,30,-34,-42,5,-5,11,-17
1501876482195960,-3,-28,61,51,27,-4,-10,-28
1501876482195960,-7,2,-87,-93,-61,-15,0,21
1501876482196926,-3,-2,-21,-63,48,14,6,81
1501876482196926,0,13,17,22,-12,5,1,14
1501876482203912,11,41,9,33,2,-1,2,29
1501876482203912,15,-66,18,25,7,1,-4,5
1501876482210909,6,56,5,13,-29,0,13,-7
1501876482210909,-5,-21,-37,-44,41,-7,-21,11
1501876482217927,-5,0,-25,17,15,6,2,7
1501876482217927,-8,-20,27,42,-37,-12,-2,-17
1501876482232966,14,25,15,-26,20,6,0,0
1501876482232966,-2,-39,-3,29,-42,-9,-1,-15
1501876482240920,3,7,-36,-24,-26,7,3,14
1501876482240920,-3,-26,17,-7,9,4,-6,15
1501876482263945,5,49,27,67,3,-18,2,24
1501876482263945,-1,36,-19,-27,7,11,-1,-41
1501876482264901,8,-46,-4,-69,-35,-14,2,34
1501876482264901,-21,3,-2,-27,27,2,-7,-27
1501876482278963,-2,-39,-11,35,16,2,0,-41
1501876482278963,12,62,5,30,-18,-6,7,38
1501876482278963,1,65,-1,3,-18,-4,-3,-19
1501876482278963,-5,-28,21,20,62,17,2,-13
1501876482302909,0,-4,-29,-5,-19,-6,-4,72
1501876482302909,-11,31,24,9,-1,-6,-10,-93
1501876482302909,4,-25,12,-8,-20,-3,-9,0
1501876482302909,8,40,17,42,55,16,12,-5
1501876482323968,-18,-28,-26,-3,-36,-22,-12,1
1501876482323968,4,-81,3,0,-10,13,-2,31
1501876482324900,-4,13,-38,-44,4,-4,8,-11
1501876482324900,10,24,36,-21,11,-4,0,51
1501876482338901,-14,-56,-2,47,-25,-2,-4,-84
1501876482338901,7,16,25,19,0,-3,6,19
1501876482339902,2,39,2,57,-34,-5,-7,-39
1501876482339902,-5,12,-48,-13,12,-6,-7,-13
1501876482360950,2,64,19,-63,61,23,16,36
1501876482360950,-11,-21,-30,-45,-27,-12,-16,-5
1501876482361916,5,-72,12,15,18,-5,-6,11
1501876482361916,-9,14,-7,-27,-44,5,11,8
1501876482383970,12,12,27,66,-36,-10,1,20
1501876482383970,-7,-5,26,-54,46,14,1,-53
1501876482384907,0,-3,-9,-23,-3,-1,7,17
1501876482384907,-5,54,16,10,-53,-19,-20,7
1501876482398975,15,12,16,-6,68,17,9,40
1501876482398975,-4,-28,40,33,1,0,-2,83
1501876482398975,14,-6,-100,-37,-5,-7,5,36
1501876482398975,-18,-16,49,35,-10,6,3,-80
1501876482420916,3,49,-11,-49,-43,-6,2,-2
1501876482420916,-9,-11,15,-2,11,-6,-15,-25
1501876482421942,-10,29,37,55,10,0,-3,-2
1501876482421942,11,23,-14,14,40,-9,0,7
1501876482443977,-2,-10,-7,-11,-6,1,-8,-2
1501876482443977,4,71,27,8,-28,-5,0,-9
1501876482444921,5,-56,25,22,-4,-5,5,20
1501876482444921,-19,-45,-56,-28,0,9,-9,-12
1501876482458931,-1,-5,-1,36,-7,-8,0,-6
1501876482458931,-12,-15,-12,-58,17,-12,-13,-36
1501876482458931,1,13,35,-45,-27,13,2,-8
1501876482458931,1,-26,9,21,38,-4,0,89
1501876482480974,-24,-47,-21,-25,-6,5,-13,-92
1501876482480974,14,18,11,82,-14,-3,11,79
1501876482481942,-12,-45,1,-1,29,2,4,-52
1501876482481942,14,45,9,-12,-18,-6,-8,-28
1501876482503911,5,-40,-35,-51,-3,3,11,33
1501876482503911,4,-14,-8,16,-1,4,7,46
1501876482504919,-16,56,22,-1,-6,-5,-14,-102
1501876482504919,-1,-39,-7,-6,10,1,-4,-9
1501876482518921,-7,5,2,43,-9,-13,-12,-24
1501876482518921,12,16,-28,-11,-10,4,9,17
1501876482518921,-2,58,32,12,42,2,8,80
1501876482518921,-2,-8,-46,8,-37,-5,-3,-26
1501876482540973,2,5,13,-64,-35,11,-6,-56
1501876482540973,-18,-35,-17,15,46,-4,-9,-2
1501876482541948,10,17,-1,-36,-11,5,7,48
1501876482541948,-16,-46,20,6,-37,-23,-7,-49
1501876482563956,5,-11,7,16,76,7,-7,13
1501876482563956,-3,-11,-28,-36,-75,-13,2,5
1501876482564914,-6,-6,-5,38,-1,-6,-18,-48
1501876482564914,10,-47,7,-29,-25,10,7,13
1501876482578915,-2,-34,-14,-21,44,-3,3,63
1501876482578915,-1,-10,22,100,9,4,-4,-44
1501876482578915,-11,-3,-37,-78,-37,-9,-2,16
1501876482578915,7,16,-5,-13,-4,3,-7,4
1501876482600977,-11,-42,-41,-45,-90,-14,-1,3
1501876482600977,15,36,16,35,74,9,18,81
1501876482601929,-17,13,-3,20,9,-2,-11,-93
1501876482601929,0,24,-20,-41,-6,-1,-2,-12
1501876482623984,-9,8,30,20,-45,-5,0,-1
1501876482623984,11,5,3,-24,55,4,5,11
1501876482624926,8,-50,1,77,-15,1,5,42
1501876482624926,-11,17,-9,-72,13,-2,-5,1
1501876482637961,-5,-42,-43,17,-7,1,3,-18
1501876482637961,-11,15,-5,1,-71,-8,2,-25
1501876482645958,11,-23,6,-15,73,12,-5,34
1501876482645958,1,-18,-21,11,26,-3,6,15
1501876482660980,3,77,19,-1,5,-4,-2,-4
1501876482660980,10,16,15,-7,14,5,0,-25
1501876482661954,-10,-45,3,-3,-43,-5,4,5
1501876482661954,-5,-3,-10,41,45,7,-11,-24
1501876482683984,13,8,3,-72,0,-6,11,50
1501876482683984,-9,-20,-6,-7,-36,0,-14,-40
1501876482684921,-13,6,-23,-28,-38,-19,-4,-14
1501876482684921,0,6,18,-30,37,10,2,1
1501876482697985,7,16,14,52,-20,-5,2,24
1501876482697985,4,-33,-21,-12,-18,9,15,26
1501876482705994,-13,8,37,-2,29,-2,-25,-76
1501876482705994,1,-66,-49,53,-62,-9,8,52
1501876482720995,2,51,12,-9,11,-2,-2,-32
1501876482720995,-7,-39,-22,-71,14,1,-13,-68
1501876482721959,-3,19,-10,33,12,-8,1,2
1501876482721959,3,2,3,10,-13,-1,20,37
1501876482743992,0,5,8,-5,-25,1,-21,-41
1501876482743992,8,25,22,31,30,3,-2,12
1501876482744928,5,-4,-46,-39,10,5,12,11
1501876482744928,1,-19,12,57,4,-4,-12,-35
1501876482757992,-2,57,12,9,-32,-8,-1,12
1501876482757992,-10,-65,-16,7,38,2,-6,6
1501876482765983,-1,1,-2,-63,-17,2,1,11
1501876482765983,7,31,33,27,-5,-16,4,2
1501876482780990,4,-40,-47,-48,31,17,13,20
1501876482780990,2,11,18,32,-27,-4,2,26
1501876482781962,13,56,21,38,22,10,-3,33
1501876482781962,-9,5,-1,-33,-59,-18,-4,-34
1501876482803940,-3,-30,26,7,38,7,-9,-11
1501876482803940,0,-8,19,37,-9,-2,0,-15
1501876482804928,-3,3,-1,10,0,2,6,23
1501876482804928,-2,29,-2,-26,-11,4,7,46
1501876482817994,-5,-5,-2,46,-63,-12,-13,-6
1501876482817994,2,3,6,-14,67,10,9,9
1501876482825990,6,42,7,-20,-10,-1,-3,-26
1501876482825990,9,5,28,45,21,4,3,46
1501876482841000,-4,-17,6,-51,17,-6,2,-34
1501876482841000,-3,16,-30,-22,-19,-6,-3,-34
1501876482841968,-4,-8,0,39,-17,0,5,-3
1501876482841968,2,49,28,-30,19,13,6,8
1501876482863997,-1,-54,-13,-17,19,0,-3,35
1501876482863997,-4,-21,5,-15,-31,-14,-7,5
1501876482864931,-3,-12,-14,-6,-12,-4,15,31
1501876482864931,-9,4,-7,11,31,7,-28,-93
1501876482877991,-14,16,24,48,-2,-8,-12,-19
1501876482877991,5,6,-18,-38,-12,7,7,14
1501876482885978,-15,-19,-13,-2,-1,-1,-11,-29
1501876482885978,21,24,-15,-8,-2,-6,8,41
1501876482900934,1,-21,-2,43,27,2,12,6
1501876482900934,5,1,15,2,-18,3,-4,44
1501876482901935,7,-46,-34,-3,5,3,4,-4
1501876482901935,3,37,7,-25,-16,6,6,30
1501876482923968,-19,-3,-18,14,-10,-14,-19,-76
1501876482923968,-6,-12,21,30,36,4,7,80
1501876482924935,-3,16,-16,3,-17,-2,-15,-81
1501876482924935,-9,2,-4,-65,20,-4,-3,-7
1501876482937977,22,5,13,25,2,10,19,47
1501876482937977,-22,-17,9,1,-22,-8,-6,-42
1501876482945946,11,17,-13,-37,20,0,-3,21
1501876482945946,-3,-58,-17,15,-43,-10,-8,-27
1501876482960981,5,6,-2,-57,26,4,13,24
1501876482960981,-6,-11,8,-16,10,-1,-9,8
1501876482961948,-12,0,0,25,7,1,-9,-36
1501876482961948,4,-25,6,45,-1,-4,2,8
1501876482983937,-13,-32,-14,-28,18,8,2,-34
1501876482983937,19,78,3,45,-38,-13,6,26
1501876482984937,7,13,43,-3,13,3,-8,22
1501876482984937,-6,9,-32,-3,-17,-4,5,27
1501876482997972,-9,-10,-13,6,5,5,-5,-13
1501876482997972,5,13,-13,-16,-14,1,7,-6
1501876483005972,0,-22,31,52,-81,-13,-5,14
1501876483005972,-2,38,-6,-33,99,4,-5,-52
1501876483020979,-3,-55,18,31,-17,2,8,51
1501876483020979,-2,40,-34,-27,1,-1,-13,-49
1501876483021954,8,4,12,-4,-32,4,16,28
1501876483021954,-8,-25,21,2,-33,-2,-7,-15
1501876483043942,0,8,-9,9,29,-4,-14,-7
1501876483043942,5,-19,35,11,-2,5,5,19
1501876483044964,-12,-56,-36,3,-28,-16,-6,-13
1501876483044964,-7,-25,16,9,8,7,-7,-25
1501876483067013,14,64,-1,9,40,-5,-1,27
1501876483067013,-13,-72,-20,-16,-10,2,0,-21
1501876483067943,-8,-21,4,1,25,-8,4,-8
1501876483067943,-7,-42,-3,-7,-14,11,4,-25
1501876483081016,8,-9,21,26,-7,-1,14,43
1501876483081016,5,49,6,-15,-19,-10,-15,-65
1501876483081946,-15,-10,-9,-12,43,3,-10,35
1501876483081946,16,27,-22,-13,-4,-5,4,-20
1501876483103973,-7,23,7,18,-4,0,-6,-3
1501876483103973,13,16,12,3,-60,-10,6,48
1501876483104967,0,11,-7,8,88,10,-2,-31
1501876483104967,3,16,21,-13,21,8,4,27
1501876483126994,6,-6,12,-30,-51,-6,6,23
1501876483126994,-14,35,-14,-6,42,4,-9,-36
1501876483127949,12,32,-8,10,-11,-6,-1,4
1501876483127949,3,-7,3,29,35,-6,3,54
1501876483141014,-3,10,-11,-25,-26,5,-1,-21
1501876483141014,-4,-66,-6,0,5,-2,5,-12
1501876483141985,4,41,17,7,32,8,-2,-25
1501876483141985,-5,0,-6,8,-10,-7,0,21
1501876483162981,-11,28,-2,-5,-42,-7,-13,-66
1501876483162981,0,-9,4,16,38,6,9,34
1501876483171981,5,24,-38,-43,4,5,3,5
1501876483171981,-6,4,7,1,-61,-12,-17,-23
1501876483187009,-9,-52,-6,-9,25,-2,-3,6
1501876483187009,-4,-8,0,32,18,5,8,10
1501876483187952,5,4,-31,-11,-23,-6,2,23
1501876483187952,-7,24,-5,-16,-6,8,2,-18
1501876483209018,6,-1,16,10,-6,-13,-2,28
1501876483209018,-14,-21,-38,-49,24,2,-11,-78
1501876483210964,-7,-9,6,20,-13,-9,-1,18
1501876483210964,7,5,-3,-3,-2,5,10,35
1501876483223018,6,59,21,0,16,-1,-4,-38
1501876483223018,-1,-31,-4,35,-14,1,-1,33
1501876483231987,-5,5,38,-59,-3,-12,1,-4
1501876483231987,12,-4,11,-15,39,18,4,25
1501876483247025,-16,-28,-2,32,-35,-4,-8,-22
1501876483247025,-3,-2,-12,-37,-34,-8,3,24
1501876483247954,6,24,8,3,37,14,3,-20
1501876483247954,5,21,20,26,-21,-8,0,23
1501876483269023,4,-21,-20,-15,-36,0,3,23
1501876483269023,2,7,27,-10,-23,-4,-3,-26
1501876483270963,2,-29,-21,12,21,14,6,26
1501876483270963,4,13,-6,-18,-4,-10,1,10
1501876483282988,-7,-56,-4,0,-3,5,-4,-31
1501876483282988,6,23,-22,26,-8,-10,11,58
1501876483291989,-12,-16,6,-18,-21,-4,-13,-73
1501876483291989,-6,-8,4,61,-21,-1,-11,21
1501876483306998,-1,11,-5,-21,52,4,-1,-30
1501876483306998,-2,6,-8,-15,29,5,3,40
1501876483307959,4,-5,28,3,-12,-6,2,15
1501876483307959,-1,2,5,15,-3,-8,-4,-2
1501876483329029,-5,16,-6,25,-11,-1,0,-26
1501876483329029,-2,-9,5,-4,0,1,0,-19
1501876483330970,5,26,-1,-11,-28,0,-7,7
1501876483330970,2,26,-6,-19,26,9,12,4
1501876483343023,11,-35,16,36,-18,-10,-9,-6
1501876483343023,-19,4,-12,6,22,-3,-11,-18
1501876483351994,-4,-19,24,-4,-19,-2,-1,12
1501876483351994,-3,-34,-11,-17,41,7,2,22
1501876483367027,3,18,3,-19,-4,2,7,-10
1501876483367027,0,11,-36,-28,-28,-14,-5,1
1501876483367962,-5,9,-1,25,8,1,-5,-36
1501876483367962,2,-11,7,-2,-22,4,10,-6
1501876483389039,-2,7,0,-13,45,2,-4,13
1501876483389039,2,0,-61,-23,-51,2,2,-10
1501876483390974,2,5,24,12,-31,-10,-6,40
1501876483390974,-6,-6,8,-22,43,7,-7,-46
1501876483402966,4,5,-21,-20,-6,1,4,14
1501876483402966,-1,18,32,9,-14,-6,1,-1
1501876483411975,2,-14,-2,16,6,4,9,41
1501876483411975,-5,-21,-20,14,-73,-16,-7,-17
1501876483427027,-8,-3,-45,-50,72,-1,-10,-35
1501876483427027,10,-6,28,0,16,5,-7,5
1501876483427969,2,-17,-12,-16,-24,-10,0,6
1501876483427969,-7,6,-39,-4,-48,-7,-7,-50
1501876483449003,-10,-10,-26,-17,24,3,7,27
1501876483449003,4,34,12,15,-18,-2,4,-9
1501876483450978,-7,-44,12,12,37,4,-7,-22
1501876483450978,-5,-19,4,26,-38,-7,1,9
1501876483463026,6,-2,-9,-4,24,2,-3,-4
1501876483463026,7,51,14,-16,-4,5,4,1
1501876483471999,3,-22,15,6,-4,-3,-1,15
1501876483471999,1,5,-9,-10,-7,-8,-4,7
1501876483487036,-1,9,16,8,-11,7,-3,-27
1501876483487036,1,-6,2,4,-44,-5,11,39
1501876483487969,-11,17,-13,-34,43,-1,-13,-85
1501876483487969,4,41,-1,-13,8,2,-2,-10
1501876483509030,5,2,52,54,-26,-8,1,47
1501876483509030,5,-24,-55,11,24,5,2,-6
1501876483510981,-16,25,-36,-47,-29,-4,4,22
1501876483510981,-2,-73,7,-4,16,-4,-14,14
1501876483532043,-6,12,-13,-18,-89,-7,-5,15
1501876483532043,-3,-26,42,19,34,11,0,-72
1501876483532972,-2,9,-25,13,1,-4,-1,14
1501876483532972,-3,28,22,-27,32,-1,0,-46
1501876483547040,2,-44,-1,26,-49,-9,-1,7
1501876483547040,-4,-21,-6,-9,33,0,-15,15
1501876483547973,-4,2,11,36,-19,-1,1,-34
1501876483547973,6,-28,13,-16,18,6,14,33
1501876483569038,-13,-6,-27,15,10,-2,-7,6
1501876483569038,1,-4,-38,-69,-33,-19,-7,16
1501876483571007,-2,-10,21,28,3,9,9,14
1501876483571007,7,28,-2,19,1,-1,-5,-8
1501876483592041,1,17,8,19,7,0,-5,-56
1501876483592041,-10,-23,13,19,20,-2,0,-15
1501876483592975,21,50,5,1,-23,12,12,63
1501876483592975,-10,-40,-16,6,24,-2,-6,5
1501876483607017,1,27,28,-17,-14,-5,-5,-4
1501876483607017,-6,-17,-35,-8,-18,-7,-2,28
1501876483607976,3,14,-5,-4,5,-3,8,-12
1501876483607976,-2,-12,1,5,19,3,4,-53
1501876483629044,-3,-2,5,18,-1,5,-7,-3
1501876483629044,6,24,27,-2,12,0,1,1
1501876483630975,-7,8,-4,36,9,-2,-3,1
1501876483630975,-6,-38,10,-15,1,0,-6,-8
1501876483652039,3,2,-13,2,16,5,2,23
1501876483652039,-1,8,-2,-19,-31,1,0,3
1501876483652979,6,11,4,-5,15,-9,-7,-21
1501876483652979,4,-2,12,14,-22,7,6,2
1501876483667050,0,22,-32,-18,11,-5,10,45
1501876483667050,-6,-25,4,37,-10,3,-14,-67
1501876483667978,-5,-26,-27,-7,6,3,10,17
1501876483667978,0,14,5,36,7,-9,-14,8
1501876483689045,0,-6,-5,5,25,3,12,10
1501876483689045,0,22,28,-9,-13,-4,-9,13
1501876483691012,-4,-20,14,-7,-29,-10,-9,-29
1501876483691012,0,71,1,-15,33,8,1,0
1501876483712040,-2,-44,0,12,1,-9,4,12
1501876483712040,-12,-14,-9,64,5,-1,-1,-34
1501876483712982,7,3,19,-48,42,15,0,-1
1501876483712982,4,30,-13,6,-14,1,-1,24
1501876483726047,1,16,-10,-45,-14,-1,9,35
1501876483726047,0,-32,26,16,15,4,7,29
1501876483733022,-16,-35,-6,-12,-22,-5,-18,-52
1501876483733022,0,40,-15,-10,-5,-6,-5,-17
1501876483749024,8,3,-1,2,5,-1,-2,-9
1501876483749024,13,11,13,-4,-22,1,14,71
1501876483750993,-18,-29,-39,-1,-43,-5,-10,-58
1501876483750993,-3,-31,-24,-31,-3,7,5,13
1501876483772041,-3,0,-7,-17,26,1,-10,-13
1501876483772041,-5,-14,13,16,-3,-6,-1,14
1501876483772985,10,23,-3,28,4,-2,7,31
1501876483772985,1,5,28,-29,-30,2,-1,-11
1501876483786056,-3,-49,5,8,-11,-3,1,7
1501876483786056,-15,3,-26,-34,13,-3,-4,-17
1501876483793052,-1,2,-23,-20,-24,-10,3,74
1501876483793052,-8,34,-21,13,78,2,-12,-88
1501876483809061,11,-9,22,-10,-25,2,5,67
1501876483809061,-9,-3,-29,-44,33,-2,-10,-63
1501876483810985,8,-8,30,27,-22,-5,-4,22
1501876483810985,3,18,4,-1,-25,-6,6,51
1501876483832025,-3,9,-5,10,29,3,3,-48
1501876483832025,8,-10,13,-5,-27,4,-2,-2
1501876483832989,-3,16,1,29,-21,-9,0,9
1501876483832989,-1,-54,-11,-1,64,12,12,37
1501876483846048,-9,16,-12,-28,-25,-6,0,-2
1501876483846048,13,20,1,16,-35,-8,-7,12
1501876483853053,-6,-24,-9,4,89,24,-1,-26
1501876483853053,-5,-21,19,-20,-94,-14,-3,4
1501876483869031,-1,-11,-16,3,51,2,-5,-1
1501876483869031,2,23,-11,-15,0,-2,3,-8
1501876483871002,7,6,1,-19,-17,-5,1,-1
1501876483871002,-2,-11,-24,26,-23,-4,9,66
1501876483892016,1,5,23,-2,-47,-4,-9,-53
1501876483892016,-1,9,1,-5,52,4,-5,-17
1501876483892991,6,-8,-6,14,40,9,3,13
1501876483892991,-13,-24,5,-2,-46,-5,-2,-10
1501876483906029,-6,12,8,5,-12,0,-3,-30
1501876483906029,0,20,30,20,-20,-5,3,23
1501876483913010,-4,-11,-30,-20,23,-4,-2,-6
1501876483913010,0,-4,-15,20,20,-6,-5,9
1501876483929057,10,33,6,-38,-10,-4,2,39
1501876483929057,5,-10,-6,13,14,8,9,-13
1501876483931006,-12,-30,19,-19,-27,-3,-11,-57
1501876483931006,-2,15,-24,-1,11,-2,-12,-44
1501876483952005,4,16,9,21,13,4,9,9
1501876483952005,-10,-11,-3,7,-25,-9,-12,-29
1501876483952996,5,5,-2,3,-9,-6,4,39
1501876483952996,-3,5,10,-24,43,12,7,-10
1501876483966035,1,1,-12,37,-22,-13,-2,17
1501876483966035,-4,12,-12,-26,18,8,-2,8
1501876483973002,5,33,29,53,-84,-6,-10,-2
1501876483973002,-1,-42,-8,-79,32,7,8,27
1501876483989039,-15,3,13,3,-9,-3,-14,-90
1501876483989039,-2,-4,-8,4,2,-5,3,20
1501876483991009,3,-10,-1,-16,9,-3,5,-3
1501876483991009,5,-20,26,39,1,-5,3,19
1501876484012003,-12,-16,-27,-2,16,3,-15,-22
1501876484012003,5,33,1,34,-38,-10,-3,2
1501876484012999,0,11,-2,-70,25,13,5,-11
1501876484012999,-4,-9,-3,41,-29,-3,-2,-2
1501876484025045,13,-22,-29,-12,46,4,7,51
1501876484025045,-5,4,-4,-6,15,-3,-11,-78
1501876484040039,2,-15,-4,10,-6,1,4,26
1501876484040039,-2,10,20,-14,-30,-6,-1,-17
1501876484049063,0,-2,-2,9,-9,8,5,26
1501876484049063,16,13,13,-22,29,9,12,54
1501876484051030,-27,-46,-26,14,-23,-17,-14,-70
1501876484051030,-2,9,-10,-22,24,-2,0,-2
1501876484072051,-6,22,-14,-3,-25,-7,-16,-39
1501876484072051,13,-58,-3,-28,80,6,9,48
1501876484073002,-7,-13,13,-57,-3,4,-4,-27
1501876484073002,-1,-2,14,40,-42,-6,-7,18
1501876484085040,-2,-5,-20,-14,-10,-1,4,-1
1501876484085040,-8,3,-3,-2,-36,-8,-2,9
1501876484094002,18,31,-5,12,22,5,8,50
1501876484094002,-12,-29,-21,-33,41,-2,-6,-24
1501876484109014,1,-19,7,4,-31,-9,-5,-1
1501876484109014,6,3,-15,-3,28,7,2,-5
1501876484111004,4,-1,8,18,7,-3,4,37
1501876484111004,-6,17,18,4,-31,-6,0,-16
1501876484132081,-2,3,7,-8,14,3,-7,-22
1501876484132081,-11,-16,6,-1,-29,-11,-11,-25
1501876484133005,18,36,7,12,-13,-1,8,42
1501876484133005,5,-23,-16,18,34,2,5,13
1501876484145051,5,25,-2,-13,-19,-6,9,11
1501876484145051,3,-14,23,-8,3,13,5,45
1501876484154008,-2,13,2,18,-5,-5,-9,-17
1501876484154008,10,44,4,-1,-36,0,-4,-15
1501876484169072,-2,-56,-18,2,76,2,17,44
1501876484169072,-19,-5,-17,-24,-40,-6,-18,-90
1501876484171007,-5,-9,-7,18,-32,1,-3,-3
1501876484171007,-3,-6,18,-1,18,-2,-6,-19
1501876484192058,5,9,0,-10,-5,3,9,58
1501876484192058,-8,8,18,22,-2,-4,0,-43
1501876484193018,0,-21,-31,2,11,2,-10,-16
1501876484193018,-4,46,-7,-37,-2,-1,-5,-19
1501876484205038,2,-38,32,15,-21,-3,-9,10
1501876484205038,0,-16,-20,-2,-3,0,1,-4
1501876484214009,-7,4,-13,-26,74,-5,3,-1
1501876484214009,-7,-31,6,21,-15,-1,-3,-1
1501876484229029,2,20,9,-7,-35,-3,5,-4
1501876484229029,-11,-10,7,-1,38,7,-7,-39
1501876484231010,7,9,-5,30,-66,-8,4,41
1501876484231010,5,-23,-19,-50,46,5,-4,6
1501876484252080,-10,-2,-9,11,-4,2,-10,8
1501876484252080,-4,4,-2,-15,-13,-12,-10,-64
1501876484253012,-5,-20,-7,-6,-13,2,2,-3
1501876484253012,5,3,22,33,36,-2,1,37
1501876484265080,4,11,-12,28,-43,-3,2,-4
1501876484265080,-10,7,-13,-34,6,10,-3,-19
1501876484274033,6,26,13,-28,4,1,-1,13
1501876484274033,-6,-8,7,22,-16,-10,-4,-20
1501876484289087,-6,-15,3,-17,-9,-2,-8,-55
1501876484289087,7,16,1,34,-10,-10,4,52
1501876484291014,-8,-35,-6,-26,35,13,2,-28
1501876484291014,3,-9,-10,-3,-59,-5,-3,5
1501876484312016,0,39,19,7,19,-1,5,10
1501876484312016,1,-21,31,60,9,4,3,1
1501876484313037,-5,8,-11,-26,-3,7,5,19
1501876484313037,4,19,16,-9,-32,-2,5,55
1501876484325058,0,21,4,-63,52,5,-7,-53
1501876484325058,9,13,-32,57,-23,-10,-5,25
1501876484334033,-12,-37,16,-14,1,6,1,-18
1501876484334033,3,-7,-18,32,25,-3,3,11
1501876484349064,1,15,10,-9,6,4,1,18
1501876484349064,6,-7,35,-11,17,7,9,30
1501876484351018,1,21,-34,2,-6,-8,-7,26
1501876484351018,-8,-16,-14,-3,-42,-10,-10,-25
1501876484372086,4,-9,13,38,-8,2,7,2
1501876484372086,3,31,0,-17,52,2,1,19
1501876484373019,-9,-28,-55,0,-46,-9,-7,-14
1501876484373019,-7,-6,10,-2,19,-1,-13,-56
1501876484385085,15,3,-12,41,37,-4,2,28
1501876484385085,0,-13,-12,-42,-54,4,11,21
1501876484394020,0,-28,0,14,24,-8,-6,-10
1501876484394020,-10,18,1,-12,-20,3,5,24
1501876484409049,-21,-28,-10,-3,-6,-7,-25,-96
1501876484409049,1,10,-22,-22,-17,-4,-2,51
1501876484411049,11,45,38,-8,-40,-8,2,-24
1501876484411049,-9,-53,-7,47,10,-2,6,7
1501876484432035,-1,34,18,11,55,19,9,-7
1501876484432035,-1,-62,-35,-18,-52,-9,-2,-3
1501876484433024,4,15,6,-7,51,5,-4,9
1501876484433024,11,19,-10,8,-34,-4,1,2
1501876484445024,-7,18,9,-1,-26,-5,7,-1
1501876484445024,-3,-10,3,-12,3,1,-5,-11
1501876484454022,-2,22,-3,20,-1,-1,5,-3
1501876484454022,2,46,0,-24,-20,-7,-15,-80
1501876484469058,-5,-67,-14,-37,-6,-4,5,61
1501876484469058,0,13,17,8,16,2,-3,-7
1501876484471027,0,4,7,-7,-7,-12,5,22
1501876484471027,-1,13,-32,-3,-6,3,-4,-6
1501876484492032,1,27,16,5,-2,4,-6,21
1501876484492032,16,-27,-2,18,7,-7,6,22
1501876484493026,-11,-14,24,12,20,10,-3,-32
1501876484493026,1,26,-3,-14,-3,3,-1,17
1501876484514029,4,-31,0,-25,-27,-3,13,19
1501876484514029,-10,21,-25,-13,-26,0,-21,-26
1501876484516026,4,-1,31,-1,53,-5,8,13
1501876484516026,-1,-6,13,0,14,-3,-6,-5
1501876484529040,9,20,-6,8,44,2,1,8
1501876484529040,-9,15,1,-4,-7,0,5,-1
1501876484531060,-1,26,-7,12,-24,-9,-9,-57
1501876484531060,-1,-32,15,-32,11,7,11,22
1501876484551068,-4,34,-14,35,-14,-7,-8,-53
1501876484551068,-1,-13,-12,-21,-47,-5,-3,6
1501876484559051,0,-3,-5,12,49,5,1,4
1501876484559051,9,3,-10,25,10,5,11,10
1501876484574092,1,32,6,-6,-10,1,-5,22
1501876484574092,-3,-18,-8,4,6,-4,8,33
1501876484576030,8,25,22,5,-16,1,-14,-50
1501876484576030,4,17,-8,-21,-26,0,9,35
1501876484589070,-16,-59,4,-2,-1,-6,-9,-28
1501876484589070,6,72,-5,-12,7,-2,0,-24
1501876484591064,7,-9,12,-7,-8,2,-1,83
1501876484591064,-10,-58,-16,17,20,-1,-11,-55
1501876484612105,-4,9,-6,-3,-19,1,3,8
1501876484612105,-1,-37,-8,17,25,1,2,3
1501876484613033,-8,-18,-3,2,3,-1,-5,1
1501876484613033,5,22,21,-18,-19,-3,4,1
1501876484634081,6,7,-37,1,-32,-9,-5,29
1501876484634081,-4,-22,15,-18,44,5,4,-33
1501876484636066,-3,-3,13,24,24,0,-1,-5
1501876484636066,7,34,11,9,2,0,-8,25
1501876484649048,-14,-61,-27,-36,-19,2,-3,-14
1501876484649048,11,62,24,11,3,2,10,44
1501876484655103,-7,-47,-20,-14,2,-1,4,8
1501876484655103,-7,6,-13,-39,-32,-4,-10,-43
1501876484672084,3,10,29,65,33,-13,-10,-20
1501876484672084,-7,5,-24,5,-4,5,1,-30
1501876484673036,5,16,-2,-2,-23,4,-3,13
1501876484673036,16,2,-3,-2,28,-5,8,56
1501876484694099,-5,45,-5,7,8,-1,-1,2
1501876484694099,-10,-86,-3,10,-9,4,-9,-23
1501876484696047,-2,8,-7,-22,-72,-6,2,-3
1501876484696047,-8,-19,14,8,50,2,-3,-21
1501876484708084,18,32,4,-1,0,4,13,73
1501876484708084,-7,43,6,17,-7,-1,-2,-42
1501876484717061,-7,-25,-6,21,9,-7,-13,-44
1501876484717061,13,31,25,18,-19,5,14,42
1501876484732102,-12,-34,-21,-57,60,1,-10,-63
1501876484732102,8,36,35,14,-2,-9,-3,42
1501876484733040,-6,-18,-18,-31,-20,2,0,6
1501876484733040,-11,13,-8,13,-6,-3,-7,-32
1501876484754041,0,-6,-5,-8,-42,-1,13,25
1501876484754041,11,-37,-20,-29,19,-10,7,63
1501876484756040,-16,9,6,22,25,-4,-25,-84
1501876484756040,5,-9,-18,-2,-29,4,2,-22
1501876484769061,-7,11,20,-2,-27,2,-7,21
1501876484769061,-2,-28,-10,-16,6,-2,-1,-11
1501876484775104,6,16,-2,1,1,0,10,49
1501876484775104,-4,-7,-7,-17,10,3,-4,-22
1501876484792115,-4,-9,-5,-19,-32,-3,2,-4
1501876484792115,-11,-2,22,-2,-9,-8,-16,-38
1501876484793043,-1,-14,-9,0,8,-2,12,30
1501876484793043,-1,-12,-4,15,11,1,0,8
1501876484814113,7,6,17,14,-33,2,-2,16
1501876484814113,-1,25,-6,-5,25,2,-9,-5
1501876484816044,1,-5,-4,-24,-34,-7,5,6
1501876484816044,-5,2,13,36,16,-2,-4,1
1501876484829063,-5,-16,-10,1,-12,2,-1,-27
1501876484829063,7,42,-5,23,-31,-6,18,54
1501876484835108,-7,-49,5,-3,-27,4,-18,-73
1501876484835108,-3,-11,-18,-32,36,-4,-8,-5
1501876484852117,4,-3,11,6,17,-1,3,-5
1501876484852117,-7,-2,3,-9,-33,-3,-12,-11
1501876484853047,12,25,8,15,62,2,15,39
1501876484853047,-18,-58,8,7,-27,-3,-5,-37
1501876484874111,2,11,-11,-7,-19,-7,-11,-15
1501876484874111,1,-5,4,-6,58,13,12,7
1501876484876080,3,-15,-21,-11,18,1,-4,-7
1501876484876080,6,56,23,8,3,8,2,37
1501876484889069,1,-36,-26,-15,-12,-3,-2,-8
1501876484889069,-3,-28,6,23,-37,-3,3,-11
1501876484895113,-7,-21,-3,-26,84,-6,-14,-20
1501876484895113,5,8,-5,-3,21,-2,7,35
1501876484912069,-11,20,12,18,20,1,-9,-54
1501876484912069,10,-4,-5,28,-8,-7,-8,14
1501876484913051,-2,2,5,-7,-42,5,10,13
1501876484913051,-2,-15,-17,-41,-21,-5,3,10
1501876484934120,1,11,19,-19,-2,11,9,61
1501876484934120,-16,-68,-8,11,16,-6,-21,-97
1501876484936051,10,33,-4,16,-4,6,6,22
1501876484936051,0,18,12,21,-7,-9,-7,-6
1501876484949070,1,8,-7,-3,28,1,15,38
1501876484949070,-6,7,11,-28,2,1,-11,-22
1501876484955099,0,25,-13,14,-32,-11,-7,4
1501876484955099,-2,-47,-5,4,-9,-5,-6,10
1501876484972070,-6,-16,3,-19,-19,2,3,-40
1501876484972070,3,5,-25,8,9,0,1,19
1501876484973069,-11,5,10,-9,-17,-2,-9,2
1501876484973069,0,-8,-10,8,-22,-7,3,-11
1501876484994116,10,4,3,-15,44,2,5,64
1501876484994116,-11,0,16,12,54,6,-5,-25
1501876484996087,2,-16,-16,7,-41,-6,10,15
1501876484996087,-3,30,-12,-29,4,1,-5,-15
1501876485008095,2,-49,7,46,-15,-8,-7,-25
1501876485008095,-5,-11,5,1,-16,6,4,-9
1501876485017057,4,4,-13,-5,47,6,11,27
1501876485017057,2,0,17,0,-93,-9,-10,-2
1501876485032105,10,-5,-16,25,66,9,11,33
1501876485032105,-5,46,5,-30,-9,1,-12,-39
1501876485033059,-8,-54,40,9,-20,-3,-4,4
1501876485033059,4,-5,-63,0,16,4,6,-2
1501876485054059,-14,-18,1,8,-45,-9,-7,-10
1501876485054059,-4,5,-21,-44,6,-4,-7,-70
1501876485056070,6,42,9,4,-26,2,-3,24
1501876485056070,-7,-33,8,1,35,5,1,-3
1501876485068123,-6,6,-8,-9,-25,-5,-4,-6
1501876485068123,1,-13,-27,-7,-47,-8,10,37
1501876485077071,0,45,10,28,-13,-5,-8,-9
1501876485077071,8,13,13,-20,5,1,4,5
1501876485092128,3,-5,5,6,34,10,1,-5
1501876485092128,-2,-12,10,11,-38,-7,-5,1
1501876485093062,2,-5,-8,-10,30,12,6,21
1501876485093062,-2,14,7,44,-1,-10,-4,-28
1501876485114125,-2,10,13,-69,-31,2,-9,-64
1501876485114125,1,-6,-37,17,-9,-5,4,31
1501876485116062,5,9,19,-17,8,5,3,-27
1501876485116062,-20,-89,-19,-17,3,1,2,27
1501876485128128,8,47,11,30,-8,-12,-9,-2
1501876485128128,4,-24,5,2,4,0,5,29
1501876485137064,5,35,15,-3,-21,-3,-1,18
1501876485137064,6,41,15,35,-24,0,4,16
1501876485152131,-3,-19,-20,3,19,4,-4,-13
1501876485152131,1,-19,-3,-11,10,9,11,38
1501876485153063,0,16,6,14,4,-11,0,5
1501876485153063,0,14,15,-21,-7,2,2,-20
1501876485174112,-9,-36,-8,7,2,-8,-6,27
1501876485174112,3,2,17,23,7,-2,11,9
1501876485176069,-4,-16,-29,-33,20,6,-16,-29
1501876485176069,-7,-6,-10,0,-15,-1,-3,0
1501876485188104,5,41,-10,4,19,-4,-4,-22
1501876485188104,-5,-39,-16,-9,-38,-1,4,10
1501876485197088,4,38,15,35,27,-2,9,20
1501876485197088,-3,-44,-15,-24,23,7,-5,-41
1501876485212109,-1,3,3,4,-34,-5,-2,14
1501876485212109,-1,17,-12,-8,-27,-8,-2,-12
1501876485213076,-4,-24,-9,-18,27,11,9,17
1501876485213076,10,31,29,13,17,-6,-4,20
1501876485234137,-6,-11,-7,-3,4,1,4,-6
1501876485234137,5,32,10,-5,-13,0,-5,27
1501876485236082,-4,-32,-12,-29,9,9,9,-9
1501876485236082,2,36,4,26,-31,-5,3,29
1501876485248108,-1,8,-20,-39,37,10,-10,-47
1501876485248108,-5,-21,12,-2,38,1,-4,-14
1501876485257082,7,-3,-12,-1,-21,-8,-2,31
1501876485257082,-5,10,10,31,-39,-3,-4,13
1501876485272109,4,10,27,6,-7,2,14,19
1501876485272109,-11,-19,-19,-1,-12,-4,-14,-35
1501876485273072,5,-5,9,15,15,-2,-3,3
1501876485273072,-3,-1,-18,-20,22,8,4,-1
1501876485294120,4,0,13,5,-20,-6,2,1
1501876485294120,4,11,14,-3,34,5,4,24
1501876485296081,0,16,33,42,-68,-15,-4,-6
1501876485296081,-8,-54,-36,-67,11,16,0,-14
1501876485308134,-10,-1,-4,18,4,-10,5,-4
1501876485308134,-7,37,13,8,10,7,-10,-2
1501876485317108,-3,-27,-12,28,-57,-11,-11,-10
1501876485317108,4,9,1,-25,82,3,4,33
1501876485332084,-5,1,-5,-1,-20,10,2,-34
1501876485332084,8,7,-8,-3,-39,-8,3,47
1501876485333084,-8,6,-2,-3,14,-6,-7,-43
1501876485333084,-5,0,3,-44,31,2,-2,-27
1501876485354114,3,-20,-15,-20,-3,-5,3,43
1501876485354114,3,24,13,5,-4,-2,1,2
1501876485356087,-6,-15,-18,-8,12,-3,-18,-40
1501876485356087,-3,10,-8,12,-53,-1,-4,10
1501876485368140,-8,-25,20,5,36,-2,-5,7
1501876485368140,-3,21,-24,-19,51,0,0,-18
1501876485377086,14,-10,7,-1,-2,5,11,28
1501876485377086,-1,21,-15,15,-27,-10,-9,-25
1501876485392103,-5,-13,7,-24,5,1,-5,-7
1501876485392103,7,28,12,21,12,-1,11,26
1501876485393089,-14,-39,-31,-21,8,0,-2,-67
1501876485393089,10,7,3,-3,-18,-2,-4,1
1501876485414120,-1,16,3,-15,-16,-8,8,23
1501876485414120,-6,-26,-3,-27,-5,-3,-26,-43
1501876485416079,5,35,7,12,-2,-4,3,29
1501876485416079,-5,-27,14,32,29,0,7,16
1501876485437101,-2,2,2,-16,-11,3,-5,-12
1501876485437101,13,62,14,10,-22,-3,7,10
1501876485438081,-18,-62,-43,-17,6,3,-4,-8
1501876485438081,-15,9,26,12,17,-6,1,-39
1501876485451120,8,6,-22,24,-24,-11,-1,7
1501876485451120,2,8,7,7,-9,4,4,9
1501876485458120,6,8,12,-13,35,7,-9,-32
1501876485458120,0,-12,-23,-4,-29,-10,4,-3
1501876485474140,0,32,-5,34,-1,11,6,9
1501876485474140,-8,-34,-8,5,26,5,-8,-19
1501876485476114,0,11,14,14,-36,-4,3,29
1501876485476114,12,-26,19,-5,37,1,2,-5
1501876485497084,-5,25,29,-10,-17,-5,-7,-29
1501876485497084,-3,-4,-45,-6,5,-3,4,0
1501876485498086,-15,-31,0,-9,-61,-10,2,9
1501876485498086,5,18,-7,-18,27,4,-3,19
1501876485512132,8,8,-4,19,-13,-6,-5,21
1501876485512132,0,-58,17,-19,36,15,8,-6
1501876485513086,0,29,11,24,20,3,8,-23
1501876485513086,-4,10,-1,8,-26,-5,-14,-13
1501876485534127,-4,-35,-15,-5,34,4,-7,11
1501876485534127,4,-18,22,3,-16,-10,9,23
1501876485536086,-4,1,-23,-33,-45,-4,-4,-11
1501876485536086,-9,-14,-9,-30,39,-2,-5,-28
1501876485557131,6,42,6,-6,-8,-1,-10,-27
1501876485557131,-6,-69,0,11,-22,-4,-4,-1
1501876485558089,-7,-6,-12,-54,-17,-2,3,10
1501876485558089,-1,17,13,28,3,-4,-4,-17
1501876485572115,0,13,-1,0,-74,-13,4,-21
1501876485572115,0,-17,5,-1,30,4,-4,22
1501876485573088,10,-5,-3,9,28,6,4,34
1501876485573088,1,4,-14,-16,-20,-5,2,-23
1501876485594159,-7,-4,14,17,10,5,6,18
1501876485594159,5,26,8,16,-5,1,4,12
1501876485596089,-7,-9,-31,17,3,-12,-14,-32
1501876485596089,-4,-13,-8,-12,-27,1,-1,15
1501876485617131,5,11,-5,-30,44,5,5,-18
1501876485617131,-9,-7,-20,5,-33,-6,-4,-13
1501876485618092,2,16,30,-5,-14,1,-1,3
1501876485618092,12,30,4,43,46,2,14,51
1501876485631158,-15,-39,-18,-29,-33,-14,-22,-26
1501876485631158,0,9,4,3,5,1,7,-29
1501876485638162,7,18,16,22,-3,2,3,45
1501876485638162,-10,-8,4,22,31,-1,-17,-37
1501876485654094,12,1,3,-1,-8,11,4,30
1501876485654094,-4,38,19,-2,24,8,2,-3
1501876485656093,-5,0,-2,-21,1,-3,-7,-15
1501876485656093,5,-22,11,-12,-8,-5,8,11
1501876485677137,2,-4,-71,15,35,-6,0,52
1501876485677137,-7,13,0,18,-9,-1,-2,-37
1501876485678096,8,26,16,-5,21,7,4,-15
1501876485678096,-7,-43,-11,-18,-9,3,-2,13
1501876485691116,-3,-25,21,-14,-13,-8,2,-20
1501876485691116,1,16,-18,12,-3,-3,-7,12
1501876485698167,-8,-8,6,-14,-20,-7,3,7
1501876485698167,13,16,7,-2,68,0,0,2
1501876485714135,-4,15,-13,-5,-25,-3,-4,0
1501876485714135,-5,-15,-22,-6,18,0,3,19
1501876485716128,-1,-4,16,11,4,7,4,-5
1501876485716128,0,26,6,-7,-30,-4,-5,8
1501876485737131,1,-5,7,37,-19,-5,-6,-34
1501876485737131,7,15,17,-13,60,1,1,5
1501876485738099,8,10,-9,-4,0,-3,-2,61
1501876485738099,-20,-3,-8,-19,-40,1,-4,-71
1501876485751126,-6,-25,-5,9,-35,0,4,-18
1501876485751126,-1,21,9,9,-24,-8,-7,-8
1501876485758161,10,-5,7,19,60,6,17,33
1501876485758161,-3,-40,-5,29,-25,0,-2,-15
1501876485774172,-4,-11,7,7,66,9,-6,5
1501876485774172,1,-6,10,-7,-86,-8,1,4
1501876485776135,-2,35,-11,-7,1,-8,-14,-39
1501876485776135,-3,1,1,-35,-1,0,-3,11
1501876485797117,-3,-6,16,-12,6,3,11,25
1501876485797117,-1,-8,-9,9,20,2,-8,-48
1501876485798103,2,0,11,11,-15,-1,-2,-4
1501876485798103,-6,-32,-33,-25,-18,-7,-5,5
1501876485811102,-3,0,4,10,39,3,1,27
1501876485811102,-1,3,6,-20,2,7,4,-14
1501876485818142,6,-3,-8,3,-2,1,13,31
1501876485818142,-17,-13,-8,1,-20,-2,-18,-41
1501876485834172,5,-9,-4,-8,12,-12,-8,1
1501876485834172,-5,5,-1,-15,-12,-5,-2,15
1501876485836138,-2,-3,-3,0,2,3,-9,-23
1501876485836138,4,-8,8,35,-8,-1,7,49
1501876485857121,-4,18,18,12,-47,-3,2,-33
1501876485857121,15,-6,-11,-26,95,6,2,2
1501876485858107,-21,-23,-23,-20,-15,-2,-14,-10
1501876485858107,6,21,6,-11,-20,1,7,34
1501876485871109,-4,-10,6,6,-2,0,-2,-4
1501876485871109,3,20,-20,12,-54,-10,-9,-32
1501876485878144,6,5,10,0,30,1,2,7
1501876485878144,8,6,13,12,24,7,5,26
1501876485894164,-10,2,-6,-17,-28,0,2,17
1501876485894164,-9,-10,11,-22,-50,-8,-5,-11
1501876485896115,4,-5,-8,12,6,-2,-2,-11
1501876485896115,-9,-9,-30,0,28,8,1,-11
1501876485917130,16,34,15,17,-10,0,7,5
1501876485917130,-4,-34,-6,-11,-5,-5,-2,8
1501876485918109,0,-2,3,9,-4,0,-1,-26
1501876485918109,4,43,18,9,-3,-4,4,13
1501876485930150,-5,-27,-1,-16,-30,-5,-2,1
1501876485930150,-6,-5,-12,26,35,6,-5,-2
1501876485939148,-8,-17,-6,-35,-42,-7,2,-4
1501876485939148,3,20,1,12,33,-1,-3,12
1501876485954149,3,-8,0,-13,10,5,-4,-23
1501876485954149,-2,8,3,14,-49,-3,5,14
1501876485956129,-5,-5,4,7,38,7,8,0
1501876485956129,5,6,5,5,0,0,-6,3
1501876485977131,-4,-12,-8,6,1,-9,-9,-4
1501876485977131,3,-3,16,-9,-2,9,9,44
1501876485978113,2,-6,1,12,-40,-8,6,22
1501876485978113,-1,9,5,24,-10,5,-3,-32
1501876485990152,1,8,-13,-26,4,-3,-2,9
1501876485990152,1,19,7,-5,13,-2,2,13
1501876485999113,1,5,3,13,-11,-2,-4,-31
1501876485999113,-4,0,14,5,4,0,2,1
1501876486014151,3,16,-8,-12,38,2,-3,5
1501876486014151,-9,-65,3,17,-29,-7,-2,6
1501876486016126,6,8,-18,-21,34,2,3,6
1501876486016126,0,-12,12,14,-19,-5,-12,-28
1501876486037134,-1,1,-19,-59,7,2,1,15
1501876486037134,2,-13,-11,-21,17,-1,1,14
1501876486038115,-9,-2,19,3,-17,-16,-24,-68
1501876486038115,1,1,2,-20,-3,6,5,52
1501876486050156,2,-11,-23,35,-7,-1,1,-30
1501876486050156,0,5,5,-1,51,6,1,-15
1501876486059154,-11,-8,-1,-8,-8,-6,0,16
1501876486059154,0,5,-20,-16,-16,-2,4,-3
1501876486074128,6,3,18,23,-31,-3,-2,23
1501876486074128,-2,7,-13,-40,14,-4,-3,-35
1501876486076120,-4,15,-3,47,17,6,-5,-17
1501876486076120,1,-12,16,-35,15,0,9,12
1501876486097135,-8,5,-9,15,-33,-1,3,-21
1501876486097135,11,-2,2,-6,-25,2,-6,10
1501876486098120,8,55,-6,5,10,6,3,9
1501876486098120,-1,-51,-2,-20,-14,-5,-4,5
1501876486110161,-7,-25,-11,-1,22,0,5,16
1501876486110161,-8,20,19,22,-25,-8,-6,-9
1501876486119139,-2,1,-16,-29,-30,-7,-8,-22
1501876486119139,2,11,14,10,24,12,11,-20
1501876486134184,6,1,-8,15,1,-9,4,7
1501876486134184,-17,-25,3,4,3,-8,-19,-42
1501876486136156,-3,-17,2,-16,6,-2,-3,2
1501876486136156,-4,8,-8,4,-30,-18,-2,24
1501876486157142,5,-1,-5,-15,80,16,2,-1
1501876486157142,-7,25,21,4,-19,-4,-7,-21
1501876486158132,1,-33,-18,4,-21,-3,2,31
1501876486158132,4,21,4,40,8,-7,7,3
1501876486170163,-3,-7,2,-67,-6,5,-1,27
1501876486170163,-7,11,-26,4,11,-4,-3,-53
1501876486179161,2,-16,16,5,-12,3,2,-6
1501876486179161,-4,25,-8,-12,-27,-7,-16,-42
1501876486194125,-11,-19,13,-36,3,-11,-12,-32
1501876486194125,8,-17,-25,-4,55,2,7,66
1501876486196134,2,1,8,-13,-20,7,6,28
1501876486196134,-4,33,4,18,-11,0,10,-13
1501876486217142,-3,-45,16,48,-25,-9,-15,-58
1501876486217142,10,10,-9,-24,22,16,7,24
1501876486218126,2,8,-11,6,19,-5,2,27
1501876486218126,1,-28,-3,-23,-2,1,1,13
1501876486230167,-11,25,-2,52,-57,-5,-11,-56
1501876486230167,-2,-9,17,-20,82,5,1,14
1501876486239146,3,17,-10,14,-10,-9,2,6
1501876486239146,6,-5,-19,-17,14,11,0,22
1501876486254166,11,28,3,12,1,4,10,45
1501876486254166,-17,-25,3,18,-51,-10,-16,-72
1501876486256127,5,4,17,6,17,3,-1,-2
1501876486256127,4,4,-13,-7,13,0,3,10
1501876486277130,-5,-72,-6,1,-23,-4,-7,-11
1501876486277130,-2,9,-3,-1,-31,-2,5,20
1501876486278129,-2,-18,16,14,-1,7,9,19
1501876486278129,-8,-19,-6,20,8,-4,-11,-25
1501876486290169,7,42,8,6,-1,-1,1,25
1501876486290169,1,9,6,-24,-34,-4,6,17
1501876486299168,3,-7,12,5,23,8,5,-8
1501876486299168,0,-27,1,-3,-42,-8,-12,-2
1501876486314171,-9,34,-18,-29,32,9,-4,-11
1501876486314171,10,-13,-1,28,-18,-5,3,9
1501876486316132,-9,-33,-31,-39,-16,-3,-1,37
1501876486316132,-6,11,3,-6,32,8,-1,-62
1501876486337153,1,15,22,11,20,3,3,-9
1501876486337153,0,10,-24,-3,-68,-5,-1,15
1501876486338142,-1,-6,-9,2,18,-10,-7,-31
1501876486338142,3,-4,-6,12,43,1,3,7
1501876486359191,-4,-12,22,-5,-65,-6,-13,11
1501876486359191,18,21,9,42,70,19,5,51
1501876486361170,-12,6,12,-10,-11,1,-1,-43
1501876486361170,-4,-4,-19,-15,-27,-6,0,-1
1501876486374195,1,2,0,5,5,-2,-1,3
1501876486374195,3,17,18,10,11,-1,4,-1
1501876486380203,2,-49,-23,-15,-18,6,10,38
1501876486380203,-6,5,-6,26,4,-5,-15,-52
1501876486397152,5,10,6,2,-2,-1,-1,3
1501876486397152,-1,11,0,10,27,5,3,-7
1501876486398136,5,24,16,1,10,1,1,-1
1501876486398136,-3,5,15,-2,-51,-6,1,44
1501876486419202,6,-6,-23,43,-10,-5,0,-10
1501876486419202,-6,-21,-13,-58,43,5,-6,-12
1501876486425194,5,25,-6,-2,-15,-1,1,7
1501876486425194,5,-7,-15,8,-23,-5,3,30
1501876486434183,-5,-11,-9,-34,-14,-1,-5,0
1501876486434183,-11,-42,-3,1,13,-3,5,-32
1501876486436140,-14,0,5,-22,-11,-5,-7,-35
1501876486436140,8,9,6,13,22,5,8,25
1501876486457157,-1,8,3,-13,-5,-1,-4,-7
1501876486457157,-1,28,4,32,-19,-9,-4,3
1501876486458150,-11,-40,-15,-34,17,5,-5,-24
1501876486458150,3,25,9,-2,-11,3,-9,6
1501876486479180,7,-21,0,1,41,-1,13,27
1501876486479180,-1,3,-8,-6,-83,-9,-3,20
1501876486481176,7,39,-2,26,34,2,0,-32
1501876486481176,-12,-35,-1,7,13,-2,0,17
1501876486494180,-15,-32,-1,-13,90,9,10,-25
1501876486494180,5,20,-1,13,-46,-8,-11,-22
1501876486496176,6,1,2,31,22,-1,-2,16
1501876486496176,-2,5,3,-20,-13,2,4,-11
1501876486517161,2,13,12,14,7,-2,-5,23
1501876486517161,0,-10,-21,-15,-19,0,1,20
1501876486518144,-11,3,15,-1,-4,-6,-7,-5
1501876486518144,3,0,-29,-26,-1,-4,1,20
1501876486539183,-7,4,-3,-8,-30,-1,-6,-34
1501876486539183,12,11,2,31,11,2,9,23
1501876486541155,-3,-6,-7,15,-26,-3,-4,-9
1501876486541155,-3,-24,-6,-42,15,-2,-2,12
1501876486553192,3,-3,3,20,-2,-1,11,43
1501876486553192,-7,-20,6,-24,-23,0,-12,-91
1501876486560184,3,9,-10,-17,13,-1,1,28
1501876486560184,-5,-23,-12,9,-4,3,-6,-24
1501876486577163,0,14,-5,1,10,-4,-4,-12
1501876486577163,4,28,8,-4,2,7,6,31
1501876486578147,-3,-32,3,10,-74,-17,-1,15
1501876486578147,-9,-18,-17,-17,5,-1,1,-47
1501876486599207,3,-6,-14,-22,21,7,-4,-17
1501876486599207,1,0,1,4,-15,-11,11,71
1501876486601149,-4,45,18,49,-15,-1,-13,-31
1501876486601149,-2,-38,-10,-46,6,2,-9,-5
1501876486613221,0,-5,-4,23,14,-2,1,-23
1501876486613221,-6,-11,7,-32,16,1,-2,16
1501876486620188,8,8,-7,-4,8,3,9,-9
1501876486620188,-3,12,11,31,-12,-4,2,29
1501876486637165,3,5,-8,-5,0,6,10,25
1501876486637165,-3,-3,29,6,4,-2,-13,-30
1501876486638151,0,2,-19,-33,27,5,-3,4
1501876486638151,1,2,16,15,-23,-7,-5,-20
1501876486659191,0,15,-17,4,-33,-6,-1,2
1501876486659191,-7,-7,-11,10,20,4,2,14
1501876486661157,-9,-44,10,22,19,3,-4,-24
1501876486661157,8,21,15,-7,-7,6,7,27
1501876486673216,-7,4,-4,0,-6,-8,-8,-19
1501876486673216,4,1,-20,-10,-10,-12,-1,13
1501876486680156,-3,-3,3,-1,-19,1,-1,2
1501876486680156,-2,11,7,5,15,6,17,33
1501876486697171,-8,11,4,-16,-8,-1,-11,-66
1501876486697171,23,18,15,12,-9,0,2,13
1501876486698164,-9,-27,-14,-18,23,-3,-9,4
1501876486698164,4,12,6,40,-28,-8,-4,-4
1501876486719213,-1,2,6,-23,38,14,11,17
1501876486719213,-8,-8,1,-11,-28,0,0,-22
1501876486721154,0,1,-1,3,8,-6,-6,17
1501876486721154,15,25,40,14,1,-4,10,36
1501876486733217,4,1,-10,10,20,6,-4,3
1501876486733217,-10,1,-12,2,4,1,-4,-22
1501876486740195,-5,-46,-14,-31,0,-1,4,-16
1501876486740195,-10,4,-4,-4,-24,-4,-3,-5
1501876486757175,9,-5,21,-4,-35,-18,2,65
1501876486757175,-19,-21,-33,-19,102,6,-14,-90
1501876486758166,11,16,17,-9,-51,-7,-1,21
1501876486758166,-3,11,-8,-24,45,7,-3,-19
1501876486779202,-5,-35,-2,4,-8,-3,-1,19
1501876486779202,7,6,-25,-3,-32,-14,4,28
1501876486781157,3,21,4,33,-40,-1,2,-9
1501876486781157,-2,21,0,-37,80,9,-1,-64
1501876486793198,-2,-29,2,-21,-34,-5,-1,16
1501876486793198,4,-8,19,16,22,6,12,41
1501876486800200,-3,6,-14,-15,-24,-2,-1,-22
1501876486800200,4,22,-21,13,-24,-1,-12,-10
1501876486817180,-5,11,33,25,-6,-2,-2,-17
1501876486817180,4,-17,-29,-21,-31,-3,-4,4
1501876486818169,3,13,-12,10,3,-6,5,41
1501876486818169,-10,-14,7,5,-7,10,14,2
1501876486839226,5,12,-10,-14,19,-6,-5,0
1501876486839226,-2,12,-6,8,-4,2,0,-8
1501876486841163,-1,-32,-2,-6,2,-3,-9,-20
1501876486841163,-4,-9,-5,-28,-35,-14,-10,2
1501876486853230,2,-2,-13,20,48,9,10,6
1501876486853230,-11,-4,18,-11,-29,3,-6,-8
1501876486862165,-4,30,-25,-37,9,3,-2,18
1501876486862165,5,-16,12,10,-29,-16,-5,1
1501876486877163,-2,-4,-9,7,45,8,-2,-9
1501876486877163,0,-22,8,0,11,2,6,43
1501876486878192,-4,7,-11,5,39,3,-1,-40
1501876486878192,4,-3,-4,16,-9,-6,7,41
1501876486899201,-3,20,7,10,-90,-9,-9,-27
1501876486899201,-3,-17,25,62,99,9,-4,-14
1501876486901165,2,-5,6,-30,-10,10,6,39
1501876486901165,10,8,4,5,-15,3,-4,-25
1501876486913206,3,36,-28,-19,-22,-6,3,18
1501876486913206,-12,-34,-18,-11,-26,-8,-3,-18
1501876486922199,3,25,35,19,16,5,5,2
1501876486922199,-11,-29,-14,-17,-21,-4,-9,-2
1501876486937168,3,-1,-2,7,30,0,-4,-19
1501876486937168,0,12,-3,-3,-40,-7,-1,8
1501876486938168,5,6,-15,-6,56,5,9,20
1501876486938168,-2,-20,12,-13,-10,-10,-12,-40
1501876486959236,-14,-27,-1,5,5,3,-1,15
1501876486959236,3,19,13,-4,-33,4,6,-39
1501876486961201,-1,-16,-7,-15,-7,-6,-3,5
1501876486961201,2,8,6,17,18,-1,-2,16
1501876486973187,0,-8,-14,-19,-14,-7,-7,-12
1501876486973187,6,5,-3,3,7,-3,7,42
1501876486982175,-7,10,12,14,-33,-7,-6,-33
1501876486982175,-2,3,-5,-6,-26,7,4,16
1501876486997193,-7,-18,-7,-33,81,1,0,-7
1501876486997193,-1,8,-12,-15,-20,-1,-4,-13
1501876486998171,1,-12,0,8,14,-4,-6,13
1501876486998171,8,51,4,6,-25,-1,9,-5
1501876487019217,-3,-40,16,25,-19,3,-5,5
1501876487019217,2,13,-2,-17,-11,1,5,5
1501876487021174,0,-47,-17,-47,18,-1,-5,8
1501876487021174,-10,2,-9,7,39,3,7,-21
1501876487033202,2,32,54,-5,-45,-3,5,8
1501876487033202,2,-22,-33,1,3,-8,-4,-4
1501876487042174,1,16,8,19,-37,3,14,9
1501876487042174,-7,-18,-9,-17,44,1,-15,14
1501876487057174,5,19,2,4,-12,1,-2,-10
1501876487057174,-4,7,5,-11,-11,-3,-1,27
1501876487058174,-3,6,10,15,-35,-2,4,-1
1501876487058174,0,-11,-24,-8,22,2,-7,-39
1501876487079240,2,30,9,8,6,3,-2,-13
1501876487079240,-3,-3,7,4,-9,1,2,17
1501876487081195,-1,-6,6,6,25,1,2,12
1501876487081195,-1,-7,-6,10,-18,-6,-5,0
1501876487093232,-4,-5,-23,-18,-22,-4,3,20
1501876487093232,1,8,8,-1,1,-4,-2,-14
1501876487102177,1,3,5,12,24,3,2,19
1501876487102177,-1,4,12,-6,-5,-4,-7,-11
1501876487117195,-5,-18,-21,-2,6,-2,-2,3
1501876487117195,-5,-19,9,1,-9,3,0,19
1501876487118178,-1,6,-5,0,43,0,-7,-43
1501876487118178,4,1,5,7,-2,-2,4,25
1501876487139216,-5,-13,-23,-18,2,5,5,-5
1501876487139216,-1,7,12,4,7,-5,-8,-6
1501876487141185,-4,-1,1,-6,-24,-7,0,-32
1501876487141185,5,9,-8,10,9,2,6,71
1501876487153251,2,-16,13,23,4,-2,-8,-23
1501876487153251,-7,-25,26,-45,-29,-3,1,6
1501876487162193,-4,0,-37,3,18,2,-9,-21
1501876487162193,-2,1,14,10,0,2,3,4
1501876487177193,-2,-10,-4,-11,-7,-2,-4,22
1501876487177193,6,33,9,23,56,0,-4,-28
1501876487178181,-8,-35,-4,-7,-38,-12,-10,-33
1501876487178181,-3,-4,2,2,21,7,0,-26
1501876487199247,3,29,-8,-15,6,0,8,16
1501876487199247,-13,-25,-21,7,-20,-3,-8,-48
1501876487201183,10,11,6,-6,24,8,8,63
1501876487201183,-3,-4,-16,1,-26,-7,0,-16
1501876487213252,5,-2,8,-11,-15,-3,-5,-30
1501876487213252,4,-12,15,37,41,9,4,20
1501876487222219,-5,8,-14,-21,-8,-11,-2,13
1501876487222219,-1,-13,6,-18,-4,10,7,21
1501876487237221,7,7,-2,-9,-45,-5,4,26
1501876487237221,-1,13,1,19,23,6,-1,3
1501876487238186,-7,-10,30,10,-23,-1,1,-56
1501876487238186,-2,-6,-21,12,-6,-1,5,20
1501876487259185,-5,-25,7,10,6,-3,-7,2
1501876487259185,4,18,-13,-7,-19,-2,-2,2
1501876487261186,3,18,13,-11,7,-4,0,30
1501876487261186,-9,-28,5,-2,-33,2,-5,-34
1501876487273254,-2,-23,-18,-5,9,-6,0,16
1501876487273254,-7,-5,0,-11,-23,1,-7,-63
1501876487282188,-1,10,12,18,17,-1,2,5
1501876487282188,-3,13,-23,-29,1,-8,-9,-45
1501876487296207,0,-3,-8,15,-8,3,-2,13
1501876487296207,-2,5,0,9,-36,-12,-2,16
1501876487298188,3,-22,-14,-16,30,7,10,53
1501876487298188,-8,9,-4,23,-2,-7,-20,-49
1501876487319260,-4,-16,18,9,16,3,0,-18
1501876487319260,3,1,-28,-13,-11,-1,14,59
1501876487321189,-12,0,-14,4,-35,-6,-24,-91
1501876487321189,10,18,20,-15,-1,0,3,42
1501876487341252,-6,-19,-10,4,28,8,1,-25
1501876487341252,5,21,8,-11,-9,4,5,12
1501876487343223,2,-36,12,4,-18,-13,0,40
1501876487343223,-1,10,-23,19,48,10,-1,-19
1501876487356190,-3,26,10,-10,-22,-3,-1,-26
1501876487356190,4,-21,-12,19,-21,-3,-1,15
1501876487358224,3,20,-11,-19,30,4,-1,22
1501876487358224,2,17,28,-2,-29,-8,9,17
1501876487379203,-2,-22,-16,31,21,-4,-3,29
1501876487379203,1,-2,27,-46,-10,0,-1,0
1501876487381228,-5,7,2,8,-16,3,2,-27
1501876487381228,7,-4,-10,-9,-6,2,7,26
1501876487401260,-1,34,14,-1,-15,0,-6,-10
1501876487401260,-1,-4,0,19,47,-4,-6,-16
1501876487403202,-2,16,-2,0,-28,1,-2,11
1501876487403202,11,-41,17,6,23,2,8,22
1501876487417221,-1,5,-31,1,-15,-2,1,0
1501876487417221,-4,-5,14,-7,-21,-3,-5,-24
1501876487418196,2,8,-39,4,-38,1,5,26
1501876487418196,-1,-8,3,21,30,-1,-2,23
1501876487439266,6,14,16,-22,4,2,1,-7
1501876487439266,3,3,-13,2,-5,-1,3,6
1501876487441200,-2,-7,13,-1,10,-3,-6,-25
1501876487441200,-3,-10,-13,2,-5,-14,9,39
1501876487462222,-22,-17,1,9,2,-3,-32,-64
1501876487462222,5,17,-10,-24,4,5,6,30
1501876487463197,6,-22,2,21,-1,1,1,-3
1501876487463197,-7,3,-4,-23,-21,-6,-6,-2
1501876487476239,10,20,24,1,-4,-3,17,54
1501876487476239,-7,-3,-34,-20,26,0,-6,-62
1501876487483257,5,-20,-14,23,22,6,1,17
1501876487483257,-11,-33,-8,-17,8,1,-1,-26
1501876487499262,0,8,17,-13,-14,-4,2,-19
1501876487499262,1,-6,-27,18,-28,-8,-11,0
1501876487501200,1,10,32,2,44,8,2,9
1501876487501200,-2,4,-7,-19,-6,3,0,-21
1501876487521242,4,11,-8,7,-8,-2,6,11
1501876487521242,-3,-1,17,-5,14,1,0,4
1501876487523201,4,28,7,30,14,-10,-2,15
1501876487523201,-5,-21,-19,-42,3,6,-7,-20
1501876487536268,-8,-7,2,-3,3,1,-5,-31
1501876487536268,5,-5,1,5,-4,-1,-1,34
1501876487543258,2,3,0,-11,-10,-6,8,-19
1501876487543258,-4,3,17,26,-26,-6,-14,-21
1501876487559263,2,-8,-13,-19,31,8,10,14
1501876487559263,-8,-8,23,-8,6,3,7,-10
1501876487561202,-8,7,-32,-1,-12,3,-10,-10
1501876487561202,4,10,6,-17,2,-12,-4,-2
1501876487581274,6,-5,-26,-20,-27,2,-3,6
1501876487581274,3,-5,32,26,67,4,11,34
1501876487583215,-2,-5,14,-6,-15,0,1,16
1501876487583215,-3,17,4,-19,-18,-9,-9,-6
1501876487596269,1,15,5,-12,6,-1,-6,-3
1501876487596269,-1,-11,-26,-13,-20,-4,-5,10
1501876487603223,-5,-8,8,-6,3,-3,-3,-35
1501876487603223,-6,5,-3,19,-13,4,-9,7
1501876487619270,-4,-26,6,17,4,-3,11,22
1501876487619270,-7,8,-8,17,-15,-3,-7,-14
1501876487621208,-3,15,21,-5,-1,3,-4,-25
1501876487621208,7,-1,0,21,-21,0,6,28
1501876487641276,2,28,-13,11,-10,-5,5,4
1501876487641276,-3,-19,-7,6,71,7,-5,-3
1501876487643217,2,4,1,-16,-2,-1,5,36
1501876487643217,-7,-13,11,16,-5,-2,-14,-61
1501876487656210,5,3,8,-25,-48,-3,2,51
1501876487656210,-12,-2,-16,-4,-9,-1,-7,-70
1501876487663222,2,5,3,1,-7,0,-2,-12
1501876487663222,1,13,-21,4,17,5,7,9
1501876487679254,-5,-19,-4,16,1,-4,-4,-20
1501876487679254,3,8,8,-16,-25,-5,5,46
1501876487681211,-4,-28,-4,-20,-9,-4,-8,-32
1501876487681211,-5,2,-28,0,15,-1,-4,-6
1501876487702225,-4,-7,21,9,-24,-6,-4,-11
1501876487702225,8,18,0,-18,59,11,6,1
1501876487703212,0,-7,-9,0,-14,-1,1,19
1501876487703212,4,13,7,-16,-2,-3,0,21
1501876487716275,-6,-11,0,9,3,-4,-8,-41
1501876487716275,-5,-24,7,1,-2,-14,-11,-24
1501876487723226,1,-6,-10,-11,6,8,8,43
1501876487723226,-3,-12,11,19,-12,-2,-1,-41
1501876487739284,7,38,-5,-19,25,6,-4,20
1501876487739284,-2,6,10,-9,-46,-9,-6,-11
1501876487741214,2,-14,-4,-7,12,0,-5,-2
1501876487741214,2,-4,-15,2,-26,1,11,30
1501876487761230,-1,-6,16,8,-3,-5,2,-11
1501876487761230,2,11,-20,21,10,2,1,9
1501876487763225,-3,31,39,3,-15,-8,-15,-30
1501876487763225,0,-15,-23,5,35,8,7,25
1501876487776257,-3,-21,-14,20,-20,1,6,-6
1501876487776257,-5,-2,10,9,-10,-5,-10,-31
1501876487783254,-2,1,8,-5,-1,-1,5,40
1501876487783254,-3,8,5,21,17,1,-6,-34
1501876487799285,-3,-7,-8,3,31,-1,-5,-46
1501876487799285,1,8,0,3,-30,1,3,10
1501876487801252,0,8,-13,-11,-24,-2,3,8
1501876487801252,-4,-8,22,21,6,-3,-3,1
1501876487821259,6,11,-5,-18,69,6,8,50
1501876487821259,-10,-50,-36,-18,-37,-10,-8,-45
1501876487823229,-3,0,-9,-2,5,-1,-7,-22
1501876487823229,-1,2,3,-14,7,-4,3,3
1501876487835280,1,13,7,9,-21,-10,0,-1
1501876487835280,6,-1,17,19,-26,9,10,50
1501876487844220,-6,2,-11,6,26,-2,-1,-58
1501876487844220,1,-15,-4,-19,20,15,1,46
1501876487859283,1,-16,1,-8,-10,-6,-5,11
1501876487859283,-3,14,11,21,-13,-3,2,0
1501876487861221,10,9,18,13,-7,2,16,55
1501876487861221,-19,-25,7,-3,-17,-8,-23,-57
1501876487881288,-1,5,-14,9,-4,2,-7,-19
1501876487881288,1,0,-1,-15,1,2,3,14
1501876487883221,0,13,-7,-4,-15,-3,-4,8
1501876487883221,6,-10,0,-12,-12,-6,0,-37
