timestamp,emg1,emg2,emg3,emg4,emg5,emg6,emg7,emg8
1501875248740130,-5,-31,29,-25,-59,-12,-4,35
1501875248740130,-5,-26,-67,-81,-10,-6,-6,-48
1501875248741144,14,53,-2,-28,-28,-11,-11,41
1501875248741144,-16,-97,3,10,-22,-10,3,12
1501875248747163,-16,27,36,11,44,7,-3,-70
1501875248747163,28,36,20,53,-4,4,22,107
1501875248750159,-17,-57,0,-36,-13,-4,-36,-79
1501875248750159,-11,39,-19,50,64,10,7,6
1501875248752127,10,-19,-65,-67,-29,1,2,24
1501875248752127,-16,-9,13,24,-44,-9,-5,-78
1501875248768127,42,-3,-16,29,51,5,19,87
1501875248768127,-26,14,52,2,-4,-6,-6,-54
1501875248775128,10,12,-4,43,42,1,15,54
1501875248775128,32,51,26,2,-7,0,-2,80
1501875248783147,-27,-43,-21,4,-49,-12,-15,-15
1501875248783147,-2,4,14,2,-96,-5,-4,47
1501875248790138,-5,7,-41,-26,88,2,-14,-88
1501875248790138,28,20,21,23,20,-5,4,-62
1501875248812131,-22,-14,2,45,-2,4,1,48
1501875248812131,8,8,-43,-116,-8,0,1,-24
1501875248813132,-10,-30,10,27,-64,-6,-3,-26
1501875248813132,-25,-21,-8,12,-12,-3,-11,-30
1501875248860169,11,-23,7,0,53,-7,5,41
1501875248860169,-11,89,-25,-17,9,9,-6,-32
1501875248861133,37,-48,1,-31,-22,-2,-6,-57
1501875248861133,-58,18,-13,30,19,0,-4,-52
1501875248861133,-2,-15,-20,-8,-36,-6,-4,-51
1501875248861133,6,4,47,4,12,1,0,17
1501875248865176,-15,-29,-12,21,16,-2,-5,23
1501875248865176,41,56,23,-10,-35,-3,5,54
1501875248871202,-7,-49,-28,-9,-25,-3,-2,-25
1501875248871202,-27,-19,-26,-8,-20,-9,11,40
1501875248879201,-15,91,0,30,23,0,-6,-31
1501875248879201,2,-127,-16,-21,17,6,-1,-5
1501875248888169,12,117,21,18,5,3,1,-49
1501875248888169,-16,-66,-25,14,-27,-8,-12,-15
1501875248902180,-12,0,-1,-62,12,1,1,-2
1501875248902180,6,39,14,14,-36,-4,4,31
1501875248909178,6,31,-2,-28,37,5,4,18
1501875248909178,11,-23,19,50,14,-6,-10,-43
1501875248924200,-9,-16,-14,-62,-28,7,5,46
1501875248924200,15,6,-21,0,-17,-11,-7,-8
1501875248933139,-23,1,2,-17,-19,7,-4,-21
1501875248933139,21,40,2,-24,21,0,4,14
1501875248948201,-11,-50,1,16,-47,-8,0,29
1501875248948201,-10,35,32,25,67,0,-5,-34
1501875248949139,19,-14,-29,-17,-30,-1,2,64
1501875248949139,-22,-34,-14,17,38,7,12,29
1501875248970151,19,42,0,-5,-29,-4,0,44
1501875248970151,30,18,13,-15,-17,1,10,100
1501875248972177,-24,1,16,16,-1,-8,-10,-80
1501875248972177,15,73,-14,-2,-13,-1,-12,-33
1501875248993208,1,-49,-6,-9,33,-3,-9,-39
1501875248993208,-16,19,16,26,-29,-3,-1,-25
1501875248994145,25,57,11,-32,36,13,15,54
1501875248994145,7,33,24,-8,-54,-5,-1,8
1501875249008144,14,-1,3,28,9,-2,9,66
1501875249008144,-7,-72,-50,-3,34,3,-3,-47
1501875249009145,18,60,3,34,-4,-7,-3,16
1501875249009145,-29,-55,-35,-81,-5,11,-2,-75
1501875249030177,-7,26,-10,40,-5,-6,-3,-24
1501875249030177,9,13,30,-24,3,3,-3,2
1501875249032145,-17,-72,-26,19,-37,-7,5,21
1501875249032145,21,38,38,7,11,0,0,24
1501875249053189,12,-5,15,16,28,5,2,-1
1501875249053189,-15,28,-11,-7,-1,5,6,-64
1501875249054172,2,-18,42,-5,-15,-3,-10,21
1501875249054172,-11,-46,-15,9,-20,-13,-18,-8
1501875249067212,-3,63,1,8,29,6,12,8
1501875249067212,-20,-33,-3,3,4,-4,2,13
1501875249074207,-2,-31,3,21,8,2,-3,-17
1501875249074207,4,7,-15,-19,-6,-2,9,49
1501875249090187,-8,-41,1,12,38,6,-12,-106
1501875249090187,5,11,-5,-82,-41,6,3,72
1501875249092159,-15,-11,-22,-15,0,-7,-15,-42
1501875249092159,6,-21,7,-3,1,-5,3,50
1501875249113217,16,13,24,42,-8,-2,2,-35
1501875249113217,-3,-17,-28,3,10,-4,-2,2
1501875249114150,-17,14,9,-7,-38,-6,-11,-60
1501875249114150,8,-2,-17,26,50,7,4,3
1501875249127186,-11,-20,6,-89,-32,-1,0,31
1501875249127186,14,21,27,21,23,-3,-2,80
1501875249134214,-6,36,7,14,-42,2,2,-8
1501875249134214,32,27,24,20,51,0,15,96
1501875249150212,-44,16,-14,-14,16,-6,-24,-92
1501875249150212,1,-44,-19,-9,-12,-5,-7,-38
1501875249152186,12,-26,-17,-11,9,-2,3,35
1501875249152186,3,46,9,8,-28,-5,2,-21
1501875249173217,-15,-73,-6,36,-9,-16,-27,-17
1501875249173217,-43,-3,-4,-8,-21,9,-3,-58
1501875249174152,16,31,-9,-9,30,-5,2,72
1501875249174152,-2,4,9,-2,-19,-1,-1,-108
1501875249187212,14,-36,-15,16,-54,-1,-2,91
1501875249187212,3,32,2,48,32,-19,-11,-72
1501875249194216,-16,-39,20,6,-3,8,-1,32
1501875249194216,6,12,-21,-49,0,8,3,20
1501875249210216,11,79,35,3,5,1,9,12
1501875249210216,-1,-24,-38,4,-31,-5,-4,36
1501875249212166,4,-11,-14,36,37,3,22,41
1501875249212166,-15,-14,-6,-21,-15,-3,-21,-24
1501875249233223,15,102,-5,21,-48,-2,10,32
1501875249233223,-1,-77,-6,-53,39,8,10,92
1501875249234157,1,17,8,11,2,-3,-3,-35
1501875249234157,-7,25,-10,16,-17,-5,-3,46
1501875249247199,-27,0,19,-8,20,1,-1,-52
1501875249247199,20,7,2,12,-21,-2,14,80
1501875249254220,3,-4,13,10,-37,-2,-8,-21
1501875249254220,-24,-84,-25,-15,49,-3,-3,37
1501875249270216,24,60,-8,-25,-41,-1,-1,-15
1501875249270216,9,59,16,8,23,-2,-11,-86
1501875249272193,-25,-61,-4,7,50,-4,-3,-33
1501875249272193,-10,-16,10,32,-54,-5,-2,55
1501875249293231,6,12,-56,-84,-21,5,15,23
1501875249293231,14,86,15,7,11,7,1,1
1501875249294161,3,-57,-2,-13,-42,-15,-15,-1
1501875249294161,-4,-53,12,18,30,5,11,-19
1501875249307234,8,1,15,15,35,-3,6,51
1501875249307234,-21,-31,-6,-1,-41,-3,-13,-64
1501875249315234,-16,1,-24,-26,19,7,-2,54
1501875249315234,25,38,32,7,-43,-12,2,-15
1501875249330224,-6,-21,14,33,17,-6,-15,-49
1501875249330224,-3,6,-37,-33,1,5,4,13
1501875249332181,-3,-20,18,8,-14,-5,7,43
1501875249332181,-9,16,-2,7,3,-2,-8,-80
1501875249353235,-4,-45,-11,-1,14,7,2,-15
1501875249353235,5,18,4,1,6,0,6,40
1501875249354201,2,3,-13,-12,-5,-1,-1,-96
1501875249354201,-10,-5,2,34,-16,-6,-10,15
1501875249367225,14,-5,-9,-24,31,5,10,31
1501875249367225,-12,-35,51,17,-34,-7,-1,3
1501875249374236,0,35,-6,-31,29,6,-6,-34
1501875249374236,19,68,3,16,2,2,-2,-33
1501875249390208,-24,-82,-8,16,-16,-10,-6,16
1501875249390208,7,19,42,0,-39,4,7,-10
1501875249392177,2,20,-59,-42,24,-1,-7,30
1501875249392177,-5,8,-13,5,-15,-2,7,8
1501875249413207,5,14,-1,4,23,4,-5,-32
1501875249413207,-10,-13,7,25,5,-4,-7,-11
1501875249414168,5,6,6,6,-23,1,4,-3
1501875249414168,4,-12,-2,11,39,4,-3,15
1501875249427208,-6,-7,-6,-43,-26,-1,15,46
1501875249427208,8,20,-4,-14,-11,-6,-11,0
1501875249434234,0,10,21,26,5,0,-8,16
1501875249434234,18,-12,-9,-17,11,3,7,-12
1501875249450209,-27,4,-2,25,-6,-5,-13,-21
1501875249450209,-8,2,11,-10,1,-1,2,-20
1501875249452168,9,49,-39,-4,13,4,0,-27
1501875249452168,-2,-5,7,-27,-4,-3,2,20
1501875249473183,13,4,4,44,46,-2,3,20
1501875249473183,-8,-31,-14,-25,-3,6,2,4
1501875249474171,2,22,25,7,-10,-3,1,21
1501875249474171,-2,12,23,-12,5,11,13,17
1501875249486231,-1,-45,-26,9,-8,-1,-2,-69
1501875249486231,0,26,3,8,9,-10,-22,-42
1501875249495210,-25,-77,11,-3,-9,-3,0,-8
1501875249495210,0,-4,-2,13,0,-2,7,32
1501875249510211,0,-2,11,-4,-2,-1,-3,22
1501875249510211,14,53,8,-1,6,3,1,-36
1501875249512174,9,-31,-28,0,-17,2,10,25
1501875249512174,-18,-80,-2,23,38,0,-6,28
1501875249533234,1,30,-1,-51,-34,-4,0,50
1501875249533234,-6,-69,-34,-2,5,-5,0,6
1501875249534205,-1,29,23,8,-15,-4,3,8
1501875249534205,-5,-14,0,4,24,3,-10,-50
1501875249547200,-5,-22,-1,3,-40,-1,-4,14
1501875249547200,-7,-18,-13,-5,39,6,-1,-17
1501875249555174,13,16,25,12,-10,2,15,43
1501875249555174,-16,4,-3,-15,-15,-6,-16,-26
1501875249570225,-3,14,14,17,18,-1,2,-2
1501875249570225,-2,-17,-20,-6,-31,-6,-4,25
1501875249572196,6,19,8,5,14,3,-2,-11
1501875249572196,7,-9,-10,9,-3,1,2,2
1501875249593178,2,38,4,-13,-11,3,4,11
1501875249593178,1,-7,-14,-1,-8,-10,-6,-13
1501875249594177,-4,-30,-22,0,20,1,0,-4
1501875249594177,-2,11,-6,-59,-61,-3,3,8
1501875249606217,8,14,7,19,-6,3,0,21
1501875249606217,-7,-67,-8,50,45,-3,4,10
1501875249615225,2,26,4,-23,-7,-5,-7,19
1501875249615225,-26,-31,1,-4,-17,-2,-1,-26
1501875249630227,13,-14,6,-11,0,-4,-2,17
1501875249630227,18,100,6,22,-6,0,2,-9
1501875249632181,-20,-70,-7,-15,10,-4,0,25
1501875249632181,-7,14,1,16,2,-1,0,-60
1501875249653191,14,35,1,7,-5,1,-5,3
1501875249653191,-6,-18,-18,-11,7,-1,-3,-14
1501875249654183,2,39,10,6,-6,4,3,-21
1501875249654183,14,7,-7,13,-2,-2,2,0
1501875249666209,-25,-70,-7,47,-21,-4,0,57
1501875249666209,-9,-8,15,-33,-14,1,-7,-18
1501875249675229,0,33,-18,-15,33,-1,-6,-15
1501875249675229,1,-40,1,7,6,-1,1,-1
1501875249690220,1,18,23,-1,-3,-7,3,5
1501875249690220,1,4,-25,-32,4,3,4,15
1501875249692195,-13,-59,14,64,25,-3,-11,-49
1501875249692195,7,36,-6,-41,-35,1,-8,-1
1501875249713243,6,8,-30,-57,1,-5,-3,-21
1501875249713243,-9,-17,-6,25,7,2,7,30
1501875249714187,10,17,30,-20,-25,0,3,-5
1501875249714187,3,7,-10,4,13,0,-10,8
1501875249726244,-3,26,-8,5,8,0,0,-22
1501875249726244,-5,45,2,17,-6,-3,2,3
1501875249735222,-3,5,-19,-23,-19,4,3,48
1501875249735222,-1,-4,9,-5,10,-1,4,-16
1501875249750224,-4,-3,-6,5,2,-6,0,57
1501875249750224,4,11,16,-5,12,3,-9,-68
1501875249752200,-7,24,2,-5,-25,-5,-7,-18
1501875249752200,5,3,3,19,-7,-4,-1,55
1501875249773246,2,26,7,3,46,11,2,-31
1501875249773246,3,-16,1,-13,-7,-6,-1,-13
1501875249774189,0,-21,-6,14,0,4,4,10
1501875249774189,-13,12,-15,-47,-12,-5,-9,-14
1501875249786252,3,-10,-15,8,7,-1,0,-18
1501875249786252,7,30,13,4,-39,-4,3,24
1501875249795201,-2,-68,-13,2,36,-2,-5,-9
1501875249795201,6,17,9,9,16,5,12,65
1501875249810230,-1,2,16,-2,-26,-2,-10,-5
1501875249810230,3,-6,-14,-42,-1,7,4,16
1501875249812203,5,14,1,-2,-12,-7,-4,3
1501875249812203,-7,15,8,12,-12,0,6,-3
1501875249832227,-2,-4,2,-3,7,-2,-7,-56
1501875249832227,-5,-22,4,17,-1,-5,-8,5
1501875249839260,2,17,-6,7,7,-2,2,-25
1501875249839260,7,14,2,-23,-41,-3,-5,-4
1501875249856258,-10,-32,-4,-13,43,-1,2,24
1501875249856258,-9,7,2,35,27,1,-7,-40
1501875249858202,-1,2,-5,-12,-12,-3,-10,-9
1501875249858202,15,26,14,-14,-11,9,5,-16
1501875249878261,-10,-57,-19,13,-27,-9,-7,-10
1501875249878261,9,-9,-10,-15,11,2,13,75
1501875249879202,-1,9,19,10,-6,-2,-4,-22
1501875249879202,-18,-9,-9,3,-24,-11,-14,-37
1501875249892264,7,22,5,4,42,7,5,13
1501875249892264,1,-9,16,-3,2,5,5,5
1501875249900209,-1,-12,-7,-12,-25,0,4,8
1501875249900209,-2,-32,-23,-15,-4,-6,3,0
1501875249915266,-9,12,0,13,-6,3,-1,-27
1501875249915266,22,23,-24,3,1,-5,4,57
1501875249917208,-12,-36,6,3,-3,0,-13,-38
1501875249917208,13,-7,28,31,21,1,1,24
1501875249938257,-14,-56,-8,-9,-21,-1,3,-5
1501875249938257,2,-10,15,8,-34,-1,4,2
1501875249939198,-5,23,-13,11,42,6,2,16
1501875249939198,1,16,-16,24,-7,-6,-6,11
1501875249951264,-4,-1,18,-32,19,7,-1,-23
1501875249951264,7,13,8,1,-20,5,5,13
1501875249960235,3,-32,-6,0,-9,-10,3,39
1501875249960235,-18,-58,-4,-3,9,-7,-14,-72
1501875249975201,1,67,-10,-10,-23,-4,-3,33
1501875249975201,-4,-14,23,-4,10,-3,-1,-3
1501875249977211,-2,9,-27,-14,-14,-5,-7,-33
1501875249977211,-4,11,11,3,26,6,0,8
1501875249998241,9,-6,-10,20,-4,-7,4,15
1501875249998241,-14,-13,-20,-3,-12,0,-4,9
1501875249999201,-3,-13,9,-7,-21,2,1,-21
1501875249999201,5,16,-19,-30,14,1,3,49
1501875250011265,8,49,10,18,-6,-2,-4,-33
1501875250011265,-2,-7,2,-4,13,-1,-3,-1
1501875250020212,-10,-6,3,-4,-12,-5,-1,-3
1501875250020212,11,24,-14,22,14,5,6,2
1501875250035206,-7,-13,4,-27,-26,4,1,14
1501875250035206,-3,8,-1,-9,14,-6,-5,-26
1501875250037215,9,16,34,7,0,-5,5,47
1501875250037215,3,46,-6,-5,9,5,8,-17
1501875250058273,-9,-25,-30,-3,-22,-3,-4,-73
1501875250058273,6,-6,-1,36,14,-5,-8,27
1501875250059206,2,37,8,-16,8,6,2,14
1501875250059206,0,-63,34,-3,-2,-2,-1,4
1501875250071233,-5,-6,-4,19,12,2,4,7
1501875250071233,-1,-17,7,0,-25,-3,-1,-20
1501875250080205,0,27,-10,-15,-18,-6,-2,-6
1501875250080205,4,8,9,-6,11,2,3,22
1501875250095246,6,-3,-10,4,10,-7,-5,11
1501875250095246,-9,-24,3,-8,-14,3,2,1
1501875250097231,1,30,8,-3,-5,3,-1,-12
1501875250097231,-2,-21,-4,7,-30,-6,1,14
1501875250118228,-5,-15,3,0,27,-2,-3,29
1501875250118228,-9,-2,-22,-5,-4,-4,-8,-56
1501875250119208,8,49,9,10,21,-1,2,13
1501875250119208,-15,-55,-23,-33,-28,4,-5,-4
1501875250131279,-1,-15,19,8,4,-7,-4,-27
1501875250131279,1,16,1,-5,-4,-1,-1,8
1501875250140236,-2,-28,-3,20,14,3,4,13
1501875250140236,4,22,-1,2,9,-2,-3,-17
1501875250155271,1,2,-4,-4,-7,2,-2,13
1501875250155271,-8,-3,5,13,11,0,-7,-26
1501875250157226,-1,28,-2,-19,-3,3,1,-32
1501875250157226,4,-12,-26,14,-2,-3,-2,37
1501875250178275,9,20,43,-4,2,3,6,-19
1501875250178275,-6,-4,4,-22,-7,-3,-5,12
1501875250180210,3,-9,-7,11,-3,-1,-2,7
1501875250180210,-14,-12,-4,-11,-9,-7,-7,-43
1501875250191275,-1,19,10,-6,17,4,5,16
1501875250191275,17,16,-10,-18,6,5,14,35
1501875250200224,-11,-5,-19,23,7,-3,-7,-50
1501875250200224,1,45,21,-13,-28,-5,-8,40
1501875250215279,-1,-41,-11,11,14,-3,-6,-35
1501875250215279,-6,20,-6,3,-3,-5,-3,-10
1501875250217226,-4,-56,-17,-19,-34,0,3,-15
1501875250217226,-3,2,10,2,43,1,2,-25
1501875250238251,2,24,-4,3,-18,-2,-2,10
1501875250238251,5,27,10,18,9,-2,8,3
1501875250239214,-7,-48,-2,-12,-15,-2,-8,10
1501875250239214,-6,-19,-14,-9,-3,2,-3,-1
1501875250251273,1,10,4,-3,-19,-1,2,21
1501875250251273,2,5,-16,2,28,-1,-1,20
1501875250260252,-10,-53,-6,-11,-12,-4,-11,-41
1501875250260252,-4,8,10,12,12,-1,-7,-36
1501875250275282,2,14,-18,-16,-10,-2,1,1
1501875250275282,-4,-52,21,-7,-31,-2,-3,15
1501875250277251,2,24,14,11,26,-4,3,13
1501875250277251,5,6,-1,-21,-24,-1,0,36
1501875250298287,21,67,-13,26,28,1,10,39
1501875250298287,-19,-87,-10,-44,-25,-5,-8,-32
1501875250299219,-1,18,17,18,0,-1,-1,2
1501875250299219,2,7,5,11,8,2,1,-25
1501875250311222,-5,-7,8,-6,-14,-5,-1,6
1501875250311222,12,57,-34,-4,-22,3,9,8
1501875250320234,1,6,-6,3,45,5,-1,3
1501875250320234,3,-30,-6,1,-10,-4,-1,0
1501875250335221,-5,-10,17,8,19,-1,-4,-32
1501875250335221,3,3,-17,-5,-10,-3,0,33
1501875250337233,-3,-7,11,8,3,0,2,-14
1501875250337233,-1,38,11,-11,-12,-4,-3,4
1501875250358282,-7,-53,-16,-10,-16,1,-1,-38
1501875250358282,-3,-5,1,22,23,-4,-2,-6
1501875250359221,5,10,-9,-22,-10,-2,0,33
1501875250359221,-6,4,8,18,21,-3,-8,7
1501875250380265,-6,-26,-11,-51,-57,-3,-2,3
1501875250380265,11,38,14,15,60,5,7,-17
1501875250382221,3,-7,6,-12,-14,-4,-14,4
1501875250382221,-7,-18,-6,15,5,2,6,-1
1501875250395264,-7,-15,-22,1,-14,-8,-7,-3
1501875250395264,-9,3,3,-7,-3,-2,-4,5
1501875250397223,13,19,14,-4,-8,4,7,28
1501875250397223,1,10,21,11,14,1,3,4
1501875250418228,-5,34,0,18,5,-3,-10,-46
1501875250418228,-1,-38,-8,-40,-17,3,-3,-24
1501875250419232,0,-9,-17,25,-5,0,4,3
1501875250419232,0,-3,-9,-46,19,1,4,23
1501875250440236,5,30,16,49,12,7,10,-15
1501875250440236,-3,-36,8,-61,-15,-6,-15,-12
1501875250442225,-5,2,0,-11,-12,-4,-4,-1
1501875250442225,-5,-15,-51,-6,-2,-2,-9,-7
1501875250455268,0,-7,6,-9,10,5,15,42
1501875250455268,8,15,-8,27,-1,-2,3,19
1501875250457230,-7,10,11,2,-4,2,6,-14
1501875250457230,0,10,-2,14,8,-4,-2,-1
1501875250478274,1,-18,8,-13,-7,1,-8,0
1501875250478274,-8,36,-3,39,11,2,0,-19
1501875250479229,12,6,-10,-17,-30,3,14,68
1501875250479229,-2,8,0,21,20,-3,-19,-97
1501875250500271,-16,-46,-12,-20,-25,-3,-7,4
1501875250500271,1,-2,9,16,22,-1,-3,12
1501875250502231,2,6,-12,26,16,-5,-2,5
1501875250502231,-1,-14,6,-42,-6,1,5,3
1501875250515247,7,24,14,-17,-13,2,5,31
1501875250515247,0,-9,-20,28,-29,-5,-4,23
1501875250521298,-14,-11,13,-38,37,2,-5,-42
1501875250521298,3,1,-9,23,-9,-6,3,9
1501875250538270,0,-8,-26,-8,-9,-2,6,29
1501875250538270,0,47,20,6,17,2,-5,-18
1501875250539232,0,-17,-13,33,-5,-9,-13,-15
1501875250539232,-3,-4,-13,-22,-6,6,2,-7
1501875250560274,-5,-3,-3,-25,-27,-2,-1,43
1501875250560274,-8,-14,-2,6,7,1,3,-13
1501875250562232,1,9,-10,24,10,-1,4,-4
1501875250562232,7,12,23,-13,-9,1,1,64
1501875250575234,1,0,0,15,-15,-3,-1,-55
1501875250575234,3,-1,-1,3,19,-3,5,20
1501875250581244,-16,10,-4,-25,-9,1,-13,-87
1501875250581244,3,-15,-7,13,-5,-2,7,33
1501875250598253,-3,-7,2,3,20,0,-4,-3
1501875250598253,3,-3,9,6,-18,-5,-1,0
1501875250599249,-2,-20,-8,-5,-3,-2,2,0
1501875250599249,7,24,5,10,-14,-1,-1,4
1501875250620242,-6,-7,-2,-14,11,0,1,28
1501875250620242,-15,-12,2,-1,-1,2,-6,-82
1501875250622236,8,17,-7,-15,3,-2,1,-7
1501875250622236,5,3,14,44,12,2,4,33
1501875250634301,0,11,5,-17,24,3,-4,-24
1501875250634301,-4,-12,4,-9,-20,-8,-10,41
1501875250642297,1,0,19,13,2,6,5,-11
1501875250642297,-3,43,2,-1,18,-3,-2,-38
1501875250657278,2,-52,-7,-2,-2,1,-1,27
1501875250657278,-6,11,0,-1,-7,-2,2,7
1501875250658255,2,-26,4,-29,-29,-7,1,23
1501875250658255,-6,-7,-11,-4,6,-4,-9,-8
1501875250680260,5,-3,2,17,6,0,1,-43
1501875250680260,-8,-25,-14,-4,7,-1,-7,-28
1501875250680260,11,27,3,6,-30,-5,5,101
1501875250680260,-11,-27,-5,-14,14,6,2,-63
1501875250694240,0,20,-1,9,-8,-5,-10,-12
1501875250694240,2,6,-1,-3,-4,0,3,-22
1501875250702279,-2,-14,2,5,7,1,4,4
1501875250702279,-4,-39,-2,25,-8,-5,1,25
1501875250717303,1,12,-2,-16,14,-4,-3,31
1501875250717303,8,12,-3,-26,-21,3,7,35
1501875250718242,-11,-2,-5,-7,11,-2,-12,-24
1501875250718242,-7,-13,-22,4,-40,-2,-1,-16
1501875250740243,-6,-4,21,0,22,-2,-5,-10
1501875250740243,19,39,-29,1,-5,-1,9,86
1501875250740243,-10,-44,5,12,15,6,3,-52
1501875250740243,-5,18,-9,-8,-28,-5,-6,-21
1501875250754283,4,5,-3,25,39,3,3,-18
1501875250754283,-8,-4,32,-15,-19,-5,-2,-13
1501875250762307,12,-25,-20,5,-18,1,0,53
1501875250762307,4,1,16,7,24,2,2,-20
1501875250777245,-12,-13,-11,-12,-18,-1,-5,-15
1501875250777245,-3,-1,12,14,-7,-4,-4,-41
1501875250778257,0,28,-3,-31,14,-1,-3,-6
1501875250778257,2,-2,19,5,17,-4,2,13
1501875250800247,2,19,-27,3,-1,2,5,3
1501875250800247,9,9,-6,4,-2,2,2,-7
1501875250800247,-12,10,-8,2,-1,-3,-14,-61
1501875250800247,2,-27,2,10,7,-5,3,54
1501875250814287,-14,-21,2,-29,-19,-2,-19,-93
1501875250814287,-11,-30,8,11,1,1,-8,3
1501875250822286,10,37,-4,-3,10,0,8,44
1501875250822286,7,-7,10,48,16,3,4,-18
1501875250837287,2,0,-4,-62,-13,-1,-2,4
1501875250837287,-6,-12,-1,-4,5,-3,-1,20
1501875250838260,0,-1,-7,8,11,-2,-3,0
1501875250838260,-5,6,7,-15,-27,0,-1,9
1501875250860281,11,11,3,28,-30,-7,3,17
1501875250860281,-7,-7,1,-29,29,2,-6,-14
1501875250860281,7,11,1,1,-1,2,6,61
1501875250860281,-3,-7,-6,-12,4,3,-6,-63
1501875250874317,5,8,13,18,4,0,5,99
1501875250874317,0,16,-5,10,-3,-3,-8,-62
1501875250882291,-13,-35,0,-9,-27,-2,-3,-8
1501875250882291,7,22,-6,-3,33,-1,4,10
1501875250905324,-4,-14,18,-25,-22,-3,-9,35
1501875250905324,-8,-20,-5,28,34,8,1,-31
1501875250906286,1,-3,3,-17,-6,-9,-3,-13
1501875250906286,-2,28,-11,-16,-36,4,4,26
1501875250919329,9,-10,6,22,11,-1,3,3
1501875250919329,-3,-23,-2,8,-20,-4,-3,7
1501875250920281,-3,25,5,3,16,-3,-7,10
1501875250920281,13,-24,-7,-28,-2,3,9,60
1501875250934254,-10,0,-10,-1,3,0,-12,-21
1501875250934254,3,-9,6,-7,-14,0,4,13
1501875250942281,5,-11,-16,18,1,-3,2,-4
1501875250942281,-1,24,7,5,-14,-3,-4,26
1501875250965318,3,12,-1,6,25,3,4,2
1501875250965318,2,18,-1,-5,-12,-2,1,3
1501875250966291,5,-43,4,-8,-11,-1,1,-11
1501875250966291,-4,-3,7,10,33,-4,1,8
1501875250980278,-16,-11,-17,-35,-14,4,-7,-26
1501875250980278,7,14,-7,0,-3,-2,1,26
1501875250980278,4,28,8,0,3,4,4,-15
1501875250980278,-10,-13,5,7,-8,-4,-11,-33
1501875250994317,4,-2,-5,5,-23,-3,8,11
1501875250994317,1,-9,0,-12,36,2,0,32
1501875251002299,-4,4,10,0,-13,0,-5,8
1501875251002299,-3,-13,-9,-8,-12,-1,-4,-25
1501875251017298,7,22,-4,17,19,-3,3,13
1501875251017298,3,4,-5,18,-3,5,6,27
1501875251018259,-7,-4,-14,-30,-37,-2,-5,-42
1501875251018259,-14,12,2,-7,20,-2,-7,-7
1501875251040279,3,-34,3,5,10,3,6,-1
1501875251040279,-3,-17,1,9,-5,-2,-6,-20
1501875251040279,2,20,2,6,0,-1,1,9
1501875251040279,4,-16,-9,-15,0,0,4,27
1501875251054318,3,41,8,8,-29,-1,-6,-82
1501875251054318,-10,-30,-15,11,32,-1,-6,14
1501875251062304,-7,-13,12,-6,1,6,5,-4
1501875251062304,3,14,-7,-10,-17,-3,-9,25
1501875251077296,5,0,3,34,15,-4,8,20
1501875251077296,-5,9,-12,-43,-8,-2,-2,-56
1501875251078272,1,5,5,21,22,4,-3,11
1501875251078272,4,3,-1,20,-4,-4,6,4
1501875251099276,-4,-29,8,-45,-15,0,-4,13
1501875251099276,2,20,-5,3,-22,-2,-6,11
1501875251100274,3,10,-7,8,18,-4,-2,-1
1501875251100274,4,5,11,8,16,3,1,-30
1501875251114266,-9,-3,-17,8,-8,-1,-2,9
1501875251114266,-1,-7,-5,-15,-1,-4,0,-3
1501875251122263,0,-21,15,-11,3,-1,5,39
1501875251122263,-6,19,6,38,-7,2,-6,-36
1501875251137294,7,-10,-11,-54,5,2,-3,-11
1501875251137294,1,23,7,-10,-7,-1,4,-18
1501875251138270,-16,-40,-11,3,-4,-2,-5,22
1501875251138270,6,-16,-11,-15,-12,-7,-3,-9
1501875251159295,-2,-1,6,28,11,4,4,11
1501875251159295,1,22,14,-8,-13,2,6,29
1501875251160268,0,27,-19,1,-2,-2,-8,-49
1501875251160268,2,5,-2,-5,-44,-4,-3,-9
1501875251174276,-17,-30,-11,-1,39,0,-9,-35
1501875251174276,19,32,8,-4,-10,-2,10,45
1501875251182270,-17,-13,-13,6,6,-2,-10,-34
1501875251182270,-5,5,-14,8,8,-1,-6,-26
1501875251197297,5,11,-3,-15,-31,-1,-2,21
1501875251197297,-6,-12,-3,2,3,-2,-3,-5
1501875251198272,8,38,12,-5,-7,0,5,-6
1501875251198272,-8,-31,-17,-42,-16,-3,-1,2
1501875251220302,-1,9,12,48,22,-1,0,20
1501875251220302,-7,-62,-4,1,-18,-6,-6,-19
1501875251220302,5,-1,-6,-5,-1,5,7,34
1501875251220302,6,20,-3,9,33,4,3,14
1501875251234273,-7,-35,-7,9,8,-5,-7,-28
1501875251234273,-1,-3,0,8,-6,-1,-2,6
1501875251242334,-1,-14,-1,-11,-12,-5,-3,-46
1501875251242334,0,23,11,-18,-18,0,0,44
1501875251257343,-1,-13,-6,9,11,-2,3,-18
1501875251257343,-6,-40,-7,-11,-23,0,-7,6
1501875251258273,7,4,10,3,28,0,7,32
1501875251258273,-2,-26,-4,6,-3,3,-5,1
1501875251280303,6,44,2,-24,-28,-9,-7,-9
1501875251280303,-5,-3,-1,34,37,3,0,-2
1501875251280303,-3,1,-1,-17,-15,1,7,25
1501875251280303,5,1,16,0,-11,5,4,-11
1501875251303342,0,10,0,27,16,1,-8,20
1501875251303342,-11,-9,-18,-29,-23,-4,-2,-15
1501875251303342,9,18,5,25,-2,-3,-3,24
1501875251303342,-7,-16,-14,-32,11,0,-1,10
1501875251317339,9,28,14,-14,-4,-3,9,17
1501875251317339,7,11,-5,14,14,0,-4,-16
1501875251318280,-9,-27,6,6,-12,-1,-2,-7
1501875251318280,-1,4,-11,-9,2,-4,4,6
1501875251339341,0,-3,-2,5,-13,-4,1,31
1501875251339341,-2,14,14,15,20,6,-7,-19
1501875251340310,-5,0,-7,-9,-2,-2,0,-3
1501875251340310,-2,7,0,-8,-12,-6,-6,-7
1501875251363312,2,2,-2,4,-15,1,5,1
1501875251363312,-5,-19,0,-17,3,-4,-1,11
1501875251364279,-1,-12,-1,28,30,-4,-4,-20
1501875251364279,0,-9,-8,-25,-44,-1,3,8
1501875251377322,5,28,-10,-7,16,-3,-3,28
1501875251377322,-1,38,12,-10,-18,-3,-2,-3
1501875251378280,0,-10,-7,9,12,0,-2,-5
1501875251378280,-4,-6,10,15,-14,-3,1,-6
1501875251399349,6,39,12,-6,11,4,10,20
1501875251399349,-3,-21,-16,4,-7,-4,-8,-33
1501875251400317,2,4,2,-14,-7,0,-10,-34
1501875251400317,-1,-23,-3,16,15,-1,-1,-9
1501875251423317,-10,-15,3,-2,-15,-2,-2,-21
1501875251423317,2,21,2,16,23,1,4,41
1501875251423317,2,5,-8,-21,-11,-1,1,29
1501875251423317,-4,-13,-8,3,-42,-1,-2,-1
1501875251437342,-6,-17,-3,-4,44,3,-2,-6
1501875251437342,2,13,9,14,10,5,3,-25
1501875251438296,6,-8,16,-24,-26,-4,1,14
1501875251438296,-9,16,-13,-12,18,-1,-5,-19
1501875251459324,5,-15,9,32,-13,-2,0,37
1501875251459324,-1,-30,-20,-22,0,-2,-3,6
1501875251460317,4,47,0,13,15,7,3,-19
1501875251460317,-3,-21,-8,-27,0,-6,-4,-4
1501875251483339,-9,0,-12,11,-4,-4,-4,-19
1501875251483339,5,-1,-1,-20,-9,2,4,15
1501875251483339,-8,3,9,5,-27,-2,-4,-25
1501875251483339,2,40,2,-5,32,0,5,49
1501875251497351,-9,-59,-6,23,13,5,-1,-70
1501875251497351,6,5,4,-17,-25,-5,-2,-1
1501875251498300,-14,-9,-7,2,22,-7,-3,-12
1501875251498300,13,10,12,9,0,0,3,50
1501875251519299,-3,-50,-9,-10,-28,-5,-4,-70
1501875251519299,6,47,1,1,38,8,0,-5
1501875251520300,-3,-66,-3,-13,-17,-1,3,6
1501875251520300,-1,6,11,-8,1,0,-4,-15
1501875251543326,4,42,3,8,2,0,5,20
1501875251543326,5,-2,5,-4,-28,-5,1,22
1501875251543326,4,5,-23,-7,-9,0,-6,-22
1501875251543326,-10,-14,2,14,28,3,-3,-14
1501875251557324,2,6,16,5,-21,2,0,21
1501875251557324,-7,17,-7,4,-2,-8,-2,-39
1501875251565324,8,-25,12,21,23,1,-1,67
1501875251565324,2,9,10,-20,9,6,0,-28
1501875251579354,-2,8,-13,-3,-7,-3,1,28
1501875251579354,-12,5,32,2,2,0,-4,-36
1501875251580324,8,1,-60,-5,-13,-4,1,-8
1501875251580324,-7,-31,-2,26,4,-5,-4,-24
1501875251603293,-2,10,-8,-33,-31,1,-5,5
1501875251603293,4,-2,-15,13,9,4,9,32
1501875251603293,-3,23,23,11,-4,-3,-2,-8
1501875251603293,1,5,-9,-13,3,-1,-1,8
1501875251617364,-1,3,0,4,2,-1,1,1
1501875251617364,-8,-6,-11,3,-15,-5,-12,-48
1501875251618303,0,-16,10,-9,7,3,1,-9
1501875251618303,-4,-4,-1,9,-7,-3,-5,-13
1501875251639341,1,-15,23,-2,8,-3,5,34
1501875251639341,-1,25,-27,-5,-6,-1,-3,-15
1501875251640331,-5,-13,8,8,9,-3,-9,9
1501875251640331,-1,-1,-14,-17,-22,0,-1,-19
1501875251662360,-4,5,-7,13,11,1,-3,3
1501875251662360,0,-55,11,3,-9,-2,8,39
1501875251663310,1,26,7,-9,-11,3,2,-29
1501875251663310,0,12,9,-1,10,-9,-2,7
1501875251677342,-5,-27,-1,4,25,-1,-7,8
1501875251677342,4,0,10,31,9,0,8,38
1501875251678297,0,-1,-33,-29,-24,2,-5,-40
1501875251678297,-7,-7,6,9,-8,-3,-2,1
1501875251699338,-1,13,-12,-8,-3,2,0,-5
1501875251699338,-2,15,12,-23,-6,2,-4,-24
1501875251700337,-2,-32,-1,15,20,-3,1,25
1501875251700337,6,3,-6,-6,-2,0,-3,-22
1501875251722344,-3,-19,13,-2,-4,-5,-3,17
1501875251722344,8,41,3,13,-1,0,6,26
1501875251723312,-16,-26,-7,-24,-15,-11,-14,-45
1501875251723312,-2,-5,0,13,14,5,-3,-9
1501875251737340,0,16,1,-22,-25,-1,-1,-47
1501875251737340,1,-7,-5,3,30,0,3,56
1501875251738312,-6,18,-5,2,-4,1,-3,-42
1501875251738312,2,-5,22,10,5,-5,-4,1
1501875251759352,-5,18,1,7,-32,-2,-1,-8
1501875251759352,8,-16,11,-14,4,6,7,2
1501875251760344,2,-5,-32,2,5,-3,2,38
1501875251760344,10,14,1,-7,-54,0,2,7
1501875251782367,-10,11,1,23,52,-1,-7,-15
1501875251782367,-8,-40,-6,4,14,1,-1,8
1501875251783316,-4,28,17,-1,-9,-5,2,-29
1501875251783316,2,-13,9,-8,-10,6,-3,12
1501875251796318,6,-13,-44,-12,-4,-6,-1,11
1501875251796318,-6,-12,-3,-1,5,-6,-7,-5
1501875251805328,6,31,32,20,2,4,7,26
1501875251805328,2,0,-10,-28,-3,-3,0,-1
1501875251819343,-2,-10,8,13,8,1,1,-1
1501875251819343,-3,-9,-5,-18,-8,1,-6,-9
1501875251820305,8,21,-5,-6,13,0,1,20
1501875251820305,-5,-1,-6,4,9,0,8,35
1501875251842352,-2,-11,-9,-9,-2,-2,-4,-18
1501875251842352,-3,-7,7,27,-14,-5,-3,-37
1501875251843345,-5,8,11,-18,-5,-1,-6,14
1501875251843345,2,9,-6,-3,9,1,4,-8
1501875251857349,3,8,-5,-15,-10,-4,-3,12
1501875251857349,-4,18,10,6,-35,-3,-1,-44
1501875251858321,-1,-4,3,-8,17,1,-1,29
1501875251858321,-4,-35,-10,30,22,-2,-2,-7
1501875251879344,0,-27,-10,-35,2,5,1,-9
1501875251879344,2,36,5,2,-12,-2,-5,-18
1501875251880345,-2,-19,2,-7,3,0,3,44
1501875251880345,-4,-14,6,19,25,3,4,-21
1501875251902351,8,36,28,4,-13,1,5,25
1501875251902351,-10,-27,-27,-23,0,-3,-16,-72
1501875251903323,-3,1,5,7,-3,-4,-6,-25
1501875251903323,-5,-2,-5,7,-8,-1,1,4
1501875251917352,9,59,8,6,-2,-3,-6,-11
1501875251917352,-3,-46,-9,-30,-1,1,5,51
1501875251918311,0,-12,6,31,20,0,2,19
1501875251918311,-5,11,10,-34,0,0,-6,-19
1501875251939377,-2,-15,-2,12,-1,1,5,8
1501875251939377,9,36,16,2,2,-2,-2,-2
1501875251940348,11,7,0,24,9,4,9,34
1501875251940348,-16,-39,-29,5,3,3,5,-13
1501875251962351,-14,-35,-1,-8,5,-1,-23,-59
1501875251962351,-7,-6,-16,-12,1,1,-2,3
1501875251963327,-2,-7,10,0,-13,-2,-3,-35
1501875251963327,11,39,-3,10,-1,-5,-1,23
1501875251976362,7,11,4,7,-10,5,11,29
1501875251976362,-6,-35,-26,11,8,-5,-6,-5
1501875251984355,9,35,33,12,29,0,1,17
1501875251984355,-1,-6,-3,-12,-15,-4,-2,10
1501875251999363,14,47,2,-15,-9,3,11,39
1501875251999363,-25,-43,-1,0,-2,-3,-17,-56
1501875252000352,-11,-19,-19,1,-13,-2,-1,-22
1501875252000352,2,-3,3,-3,16,-1,-3,1
1501875252022325,-3,-10,2,4,8,-6,3,21
1501875252022325,12,36,9,-11,-22,-2,5,-22
1501875252023353,6,-4,-8,-17,-11,2,-3,36
1501875252023353,1,-8,-4,7,-8,-2,-5,0
1501875252036384,-1,-16,5,16,-8,-2,3,16
1501875252036384,3,-24,-2,-1,48,1,3,14
1501875252045350,0,11,-12,-34,-45,-1,-2,-48
1501875252045350,-3,20,-5,16,4,-8,-1,-1
1501875252059358,-11,-38,-14,-26,1,3,-2,-14
1501875252059358,3,17,8,13,5,-2,9,37
1501875252060357,5,-36,1,13,3,-2,-1,1
1501875252060357,-3,4,-7,-6,-11,0,-2,-17
1501875252082362,1,35,19,-4,-14,-7,-10,-29
1501875252082362,-1,-24,10,6,1,1,-3,-5
1501875252083330,-1,25,-20,-22,2,-4,1,39
1501875252083330,-1,-19,-28,12,-1,-3,1,3
1501875252096384,-7,-23,-17,13,-1,-3,-3,-15
1501875252096384,6,35,13,-29,-35,2,1,10
1501875252105355,0,8,2,4,-4,-2,2,12
1501875252105355,-1,-12,14,3,9,0,-8,-30
1501875252119338,-2,-19,14,-1,13,-1,-2,-21
1501875252119338,1,2,-14,-4,16,2,2,23
1501875252120322,-6,-6,0,-11,-15,3,0,-19
1501875252120322,1,3,2,1,-10,-4,-2,15
1501875252142363,6,18,10,-5,-10,-2,-1,13
1501875252142363,0,-11,1,13,9,-2,5,29
1501875252143337,-10,-32,-4,3,-2,1,-9,-32
1501875252143337,-6,9,17,-16,-13,0,-4,-32
1501875252156388,1,21,-14,4,8,3,1,0
1501875252156388,1,7,13,4,5,-3,-1,-2
1501875252164330,-12,2,-7,-8,0,-6,-4,0
1501875252164330,-2,-27,-17,28,17,0,-1,28
1501875252179367,7,11,-10,-5,-20,0,6,-11
1501875252179367,-6,29,3,-14,3,-2,-16,-51
1501875252180366,-6,-27,-6,-3,-14,-2,2,12
1501875252180366,8,13,4,7,4,2,7,53
1501875252202371,-14,-39,1,6,15,-6,-12,-37
1501875252202371,5,25,0,-12,-29,3,5,20
1501875252203327,6,-1,5,18,10,0,-3,-5
1501875252203327,0,20,18,-29,-22,6,6,3
1501875252216371,-8,-35,-31,-3,8,-4,2,17
1501875252216371,1,12,-4,9,0,3,3,24
1501875252224371,4,6,-7,6,-27,-5,0,-9
1501875252224371,3,8,9,-2,39,1,-1,3
1501875252239377,10,18,-13,19,-25,-3,0,-5
1501875252239377,-15,-27,-5,5,39,3,-2,29
1501875252240368,4,28,9,-39,-20,-2,-4,-8
1501875252240368,-5,-5,5,-5,-12,0,-1,-25
1501875252262406,-2,11,11,29,25,1,-5,3
1501875252262406,9,-40,-8,-21,-29,-3,-3,11
1501875252263334,9,30,3,14,-1,-4,0,-6
1501875252263334,-26,-57,-19,-15,-19,-5,-14,-27
1501875252285381,4,2,0,-11,4,0,2,40
1501875252285381,3,22,26,29,2,-3,2,17
1501875252286344,3,18,-6,-3,49,5,3,-2
1501875252286344,5,-10,-10,-14,-29,-4,-9,-22
1501875252299378,-9,-41,-7,-32,-17,-2,-5,-17
1501875252299378,-2,2,0,-4,-14,-6,0,11
1501875252300364,-4,23,-2,3,-6,1,3,18
1501875252300364,12,0,3,15,17,-3,1,16
1501875252322378,-2,-5,-5,-17,-5,1,1,-5
1501875252322378,-5,-14,-8,10,-2,-2,-3,-20
1501875252323348,-2,0,2,-8,5,1,-2,16
1501875252323348,-1,6,6,-4,1,4,5,17
1501875252345337,13,25,10,5,9,0,6,24
1501875252345337,-15,-22,-9,-23,-23,-7,-19,-81
1501875252346337,-3,-8,-4,25,30,5,-4,-20
1501875252346337,-1,-16,9,2,8,-1,1,-1
1501875252359375,-3,12,14,-27,-23,-4,-1,-5
1501875252359375,-2,-29,-22,6,-14,-4,4,62
1501875252360377,-5,-4,5,3,12,3,-3,-45
1501875252360377,6,68,9,1,-3,1,-3,-27
1501875252382401,-7,-32,-25,3,0,0,1,12
1501875252382401,4,5,6,-7,0,-2,-5,-20
1501875252383352,-7,-28,9,-9,-54,-6,-2,20
1501875252383352,3,43,-11,0,32,0,4,20
1501875252405402,3,-37,11,9,18,5,1,-5
1501875252405402,-1,10,-5,8,-1,-2,1,-6
1501875252406377,-5,-20,-18,-4,-24,-6,1,9
1501875252406377,2,4,-1,-8,-18,0,-6,-5
1501875252419378,0,16,16,14,4,-1,-1,-13
1501875252419378,-1,5,-3,8,23,-2,-2,-39
1501875252420347,3,4,-1,-20,-12,3,6,13
1501875252420347,0,-16,-1,20,-10,0,3,7
1501875252442407,-14,4,23,-27,5,1,-5,-31
1501875252442407,1,-7,-17,6,-19,-4,0,21
1501875252443355,1,17,-20,27,24,-4,-5,-21
1501875252443355,1,-13,-2,-39,-1,3,11,32
1501875252465376,-2,-38,-21,11,10,-2,-12,-48
1501875252465376,-4,-10,1,-5,0,4,3,-15
1501875252466371,-4,0,5,0,-4,-5,-3,0
1501875252466371,4,3,17,4,-8,2,2,15
1501875252479416,-2,25,0,10,10,2,6,2
1501875252479416,6,28,7,17,6,-3,-1,-5
1501875252480342,-2,-42,-8,-29,-15,-4,-2,12
1501875252480342,0,8,11,-4,2,-2,-1,11
1501875252502385,2,13,-26,-3,-7,1,1,25
1501875252502385,2,-15,-9,-6,-21,0,-2,-15
1501875252503346,-4,-8,19,18,16,-2,-1,15
1501875252503346,-4,5,-28,-13,4,-3,-1,-13
1501875252525410,2,30,13,9,12,-2,-1,14
1501875252525410,4,-6,0,-6,0,6,4,9
1501875252526358,-8,-19,-5,12,-5,-6,-14,-6
1501875252526358,0,1,9,-2,-9,-1,0,-11
1501875252539387,0,-12,-28,-4,6,-3,2,15
1501875252539387,-2,4,6,-7,-6,-1,1,13
1501875252540385,5,13,1,-11,1,1,1,-9
1501875252540385,-5,-4,4,18,-7,-2,-3,-15
1501875252562414,5,-11,5,5,3,1,4,32
1501875252562414,0,24,-1,-9,-10,-4,-2,8
1501875252563366,5,7,-6,-17,5,7,11,5
1501875252563366,-3,3,-5,6,-30,-4,3,19
1501875252585392,-6,16,-7,-10,32,-3,-18,-53
1501875252585392,-8,-81,-14,3,4,0,-3,-7
1501875252586351,3,11,13,18,21,2,3,0
1501875252586351,-2,-5,-34,-14,-22,-2,3,16
1501875252599420,4,15,15,-8,-27,-1,9,20
1501875252599420,-1,22,8,9,13,-4,-8,-17
1501875252600357,-1,5,-14,-7,-22,1,-1,-40
1501875252600357,-3,-17,11,-11,29,-2,-7,-13
1501875252622396,-4,2,9,24,-3,1,-1,2
1501875252622396,2,-9,-8,-27,-16,-3,2,-3
1501875252623352,7,32,3,4,9,0,2,5
1501875252623352,-8,-57,-9,-2,6,-2,1,31
1501875252645393,1,0,-8,8,-23,-3,0,-24
1501875252645393,-3,6,15,-1,22,2,-3,-9
1501875252646365,-5,-11,-3,0,1,0,-10,3
1501875252646365,5,16,20,-9,-2,-1,-3,-22
1501875252659354,-2,-11,-21,6,-5,-4,1,22
1501875252659354,4,10,-22,-7,-12,-1,7,28
1501875252660364,-10,3,2,-5,-5,-2,-12,-81
1501875252660364,-8,-10,2,5,16,0,1,-21
1501875252682419,1,-15,11,-5,-32,-3,4,25
1501875252682419,-4,17,-5,-13,13,2,-5,-32
1501875252683370,3,-13,3,1,5,1,3,51
1501875252683370,5,17,-6,23,-10,-4,-9,-17
1501875252705404,-4,0,2,-21,15,4,1,-15
1501875252705404,8,20,-12,3,-13,0,8,28
1501875252706395,-10,-25,11,-1,7,-3,0,33
1501875252706395,2,23,-6,11,7,1,2,-13
1501875252719424,-3,-8,19,-4,-10,0,-3,-23
1501875252719424,1,11,-16,9,26,-1,0,28
1501875252720358,5,1,-8,-1,-29,-1,10,10
1501875252720358,4,0,-6,-8,14,-5,-14,-57
1501875252742359,-2,9,-6,-3,-14,-5,-3,25
1501875252742359,-8,-12,11,-3,-2,2,-5,-45
1501875252743360,-2,4,1,22,8,-4,-3,-8
1501875252743360,8,22,1,-14,-22,3,5,0
1501875252765419,-6,-51,-9,-5,14,2,-2,43
1501875252765419,-4,-11,3,10,-2,-3,-3,-3
1501875252766372,6,1,-14,-23,5,1,8,57
1501875252766372,-2,0,-1,7,-15,-2,-4,-51
1501875252779398,0,33,1,5,6,0,-1,-28
1501875252779398,0,-20,3,9,-18,0,6,25
1501875252780392,-3,-1,2,3,18,1,-2,-4
1501875252780392,-1,-5,6,-3,9,1,-7,-4
1501875252802400,0,12,-4,-9,-11,2,2,8
1501875252802400,2,34,-3,10,4,-3,-5,-20
1501875252803375,11,-47,-1,-1,-18,1,7,17
1501875252803375,-17,-6,5,7,6,-7,-9,4
1501875252825435,-2,5,-8,20,-19,-3,-6,-16
1501875252825435,-6,-16,2,-17,9,-3,-3,32
1501875252826401,-3,18,-14,5,13,3,-1,-31
1501875252826401,2,-1,7,-7,-2,2,3,19
1501875252839410,-1,2,-7,16,4,-3,-1,-18
1501875252839410,10,12,13,3,2,1,8,40
1501875252840364,-6,16,4,-33,-19,-4,-11,-46
1501875252840364,-8,-45,-7,16,4,-4,-3,-4
1501875252862409,1,5,13,10,5,-1,1,3
1501875252862409,1,32,-6,-38,-31,-4,1,-1
1501875252863391,6,-25,0,-18,17,-1,-4,19
1501875252863391,-9,2,-11,18,20,2,-1,-23
1501875252885415,4,13,2,-32,-2,-2,2,9
1501875252885415,-7,-24,3,6,-3,0,-5,15
1501875252886389,-5,2,3,19,-2,-2,3,10
1501875252886389,-4,-5,-11,-18,-30,-5,-2,15
1501875252899435,1,-9,5,7,35,1,-1,-7
1501875252899435,2,17,-8,-18,-13,3,-2,-15
1501875252907408,3,-4,1,-2,-8,-3,3,22
1501875252907408,-6,-46,-10,14,3,0,-6,-27
1501875252922407,-9,11,-1,-25,-11,-3,-4,14
1501875252922407,4,2,12,21,-2,-2,4,28
1501875252923395,-8,-35,-12,3,4,0,-7,-35
1501875252923395,7,29,-2,6,-5,2,8,11
1501875252944434,3,-11,-10,-7,23,2,-2,12
1501875252944434,-5,5,-5,26,20,3,-8,-71
1501875252952415,0,10,5,-3,10,-3,0,7
1501875252952415,7,7,16,-22,-7,1,2,28
1501875252959413,-1,-2,-32,5,-16,-4,-1,-7
1501875252959413,-6,-16,-1,-8,-7,-3,-3,-30
1501875252967434,-2,8,-9,11,-13,-1,1,19
1501875252967434,-4,-14,5,-12,-1,-2,-2,-17
1501875252982417,0,0,10,-1,8,-3,-2,-9
1501875252982417,5,1,6,11,3,2,1,7
1501875252983373,-2,-3,2,7,8,1,0,8
1501875252983373,4,15,-3,-15,-17,-4,-1,-4
1501875253005442,3,-8,10,-3,-13,0,1,22
1501875253005442,-4,-3,-8,-1,19,-1,0,2
1501875253006387,2,21,11,12,1,-1,-3,-12
1501875253006387,13,33,2,1,8,0,9,58
1501875253019422,-13,-58,-3,16,-12,-2,0,-37
1501875253019422,-4,-8,-3,-31,-3,0,-6,-20
1501875253027442,1,-4,-2,-6,-8,2,4,10
1501875253027442,1,28,6,4,-11,-3,-2,-15
1501875253042415,5,-14,-14,16,15,-1,-2,5
1501875253042415,-3,3,7,-9,-3,0,1,16
1501875253043377,-9,-31,-21,-13,-19,-8,-11,-16
1501875253043377,4,-4,3,8,13,4,9,31
1501875253065420,-1,23,12,-19,-24,-6,-8,-27
1501875253065420,-5,17,2,-8,13,-3,0,-16
1501875253066389,-3,-41,-20,15,18,-2,-1,-31
1501875253066389,-8,-7,7,-15,-6,-2,-8,-7
1501875253088398,4,6,0,0,9,0,3,3
1501875253088398,1,-6,7,3,-31,-1,-2,-18
1501875253088398,5,16,-2,0,-2,-2,-3,5
1501875253088398,-4,4,1,0,9,-10,-6,-1
1501875253102418,2,4,13,17,-2,7,5,24
1501875253102418,0,-6,-12,-21,5,-5,-3,32
1501875253103384,-1,41,4,-6,0,1,-2,-24
1501875253103384,0,-32,21,14,4,-1,-1,-4
1501875253125391,0,8,-9,-24,1,3,-2,3
1501875253125391,-4,-19,-7,43,14,-7,-1,29
1501875253126383,14,30,12,-36,-13,6,9,32
1501875253126383,-14,-18,-16,4,4,2,-14,-37
1501875253139430,-8,0,6,12,14,-3,-3,-6
1501875253139430,4,0,-2,-19,-25,2,2,-5
1501875253147442,-6,-7,3,13,-4,-3,-4,-11
1501875253147442,6,4,-7,-7,1,4,7,3
1501875253162421,4,0,5,-3,1,0,1,5
1501875253162421,-3,-7,-9,12,-5,1,-1,10
1501875253163383,1,11,4,9,18,-4,0,-14
1501875253163383,1,-8,4,-7,-11,5,5,-35
1501875253185430,-8,13,2,-1,9,-8,-8,7
1501875253185430,-1,5,-18,7,2,-2,1,5
1501875253186396,2,-12,-6,-10,-6,0,-1,-19
1501875253186396,5,27,11,3,3,1,4,62
1501875253199433,0,-28,-2,-12,-17,-2,4,-34
1501875253199433,-3,-11,13,47,1,-5,-10,-3
1501875253207452,-5,7,-4,-55,-7,0,-1,13
1501875253207452,3,4,-12,-1,-5,-2,-2,4
1501875253222447,3,7,4,-5,-5,1,3,5
1501875253222447,4,7,8,5,5,-2,1,2
1501875253223387,-5,-14,0,13,-7,-2,-1,7
1501875253223387,1,4,-5,-1,-2,1,-1,-9
1501875253245389,3,14,8,-2,-7,0,-2,40
1501875253245389,0,-14,12,-2,-13,0,-1,-36
1501875253246390,-7,9,-14,-10,-7,-5,-4,15
1501875253246390,-6,-18,-25,-12,1,-5,0,-9
1501875253268406,-2,7,-4,5,6,4,2,-8
1501875253268406,10,12,-1,-5,13,0,-4,-5
1501875253268406,-13,-3,16,1,-11,-2,-4,-10
1501875253268406,1,-1,1,16,0,0,3,14
1501875253282461,-7,-9,-13,-10,0,-1,-9,-18
1501875253282461,-1,3,-3,-17,-5,-1,2,2
1501875253283390,5,9,2,16,1,1,2,-9
1501875253283390,-3,8,1,0,6,1,1,12
1501875253305432,-3,-9,-6,-2,-6,-7,-10,-28
1501875253305432,3,-2,-6,-5,-17,3,3,24
1501875253306402,5,4,9,22,29,-1,1,-8
1501875253306402,-6,-11,-21,-12,-14,-3,-8,-17
1501875253328392,0,11,21,-2,0,1,3,23
1501875253328392,-4,2,-13,-2,-6,-3,3,-7
1501875253328392,3,-28,-8,12,8,-1,-5,12
1501875253328392,2,20,-3,-30,-20,-2,2,39
1501875253342433,-1,18,11,4,12,4,-3,-44
1501875253342433,-3,9,-18,-19,-9,-3,2,-1
1501875253343409,-4,-33,7,17,2,3,3,34
1501875253343409,-2,-20,-3,1,12,-4,-8,-17
1501875253365403,-1,2,-4,-9,4,2,1,-8
1501875253365403,0,-3,2,0,-13,0,-1,-8
1501875253366407,1,31,1,-10,2,-2,-1,-15
1501875253366407,0,-5,3,-5,0,-1,3,12
1501875253388397,-3,-3,-5,7,-16,-8,-7,22
1501875253388397,-1,-8,4,1,12,4,-6,-15
1501875253388397,-5,-13,-4,2,-9,-3,0,-17
1501875253388397,8,12,-6,15,-1,0,3,41
1501875253402442,-11,-3,3,-9,-5,0,-5,-54
1501875253402442,-6,1,-8,-14,-4,-1,-1,2
1501875253403432,-1,-1,-10,4,-11,-4,-2,11
1501875253403432,-3,-8,12,4,25,5,0,-10
1501875253425397,7,-11,-26,4,-4,-3,3,22
1501875253425397,-3,1,6,-4,-5,-1,-7,-38
1501875253426408,2,18,5,-4,12,-2,1,20
1501875253426408,-6,-26,-8,-10,-17,-3,-2,-9
1501875253448418,11,4,-2,9,9,3,13,51
1501875253448418,-10,-18,5,-4,2,-4,-20,-59
1501875253448418,6,16,1,-17,-8,2,-1,-5
1501875253448418,-3,3,6,4,-1,-4,-6,-21
1501875253462456,-1,5,3,3,3,-1,0,3
1501875253462456,6,-8,-4,-4,0,-1,11,40
1501875253463402,-7,-26,27,11,3,-2,-2,-12
1501875253463402,-4,-4,-34,-24,-37,-1,-3,-4
1501875253485403,-3,9,7,-2,27,2,-4,-29
1501875253485403,3,-11,10,10,20,1,1,26
1501875253486404,-4,2,-2,7,0,-3,-7,-18
1501875253486404,-2,-13,5,2,-4,-2,1,5
1501875253508422,1,-10,-5,2,-21,-1,-2,9
1501875253508422,5,14,-4,8,5,2,9,30
1501875253508422,-7,16,-8,-19,-14,-2,-1,-34
1501875253508422,0,-4,5,9,12,3,-4,4
1501875253522471,0,-9,-5,0,-5,-2,-2,3
1501875253522471,-6,0,6,-10,4,0,-1,-9
1501875253523415,-2,-3,13,9,-11,-3,0,-8
1501875253523415,-4,2,-10,7,10,0,1,-22
1501875253545465,-4,-3,-13,4,-19,-3,-6,-5
1501875253545465,-2,2,-2,-23,1,-4,1,20
1501875253546418,7,14,-8,-1,-4,2,1,3
1501875253546418,-2,3,11,-6,3,-4,-3,-1
1501875253568408,4,10,4,4,-2,-2,7,11
1501875253568408,-7,-17,0,10,-8,-4,-9,-38
1501875253568408,5,7,-1,2,10,2,0,29
1501875253568408,1,3,-6,19,5,-1,-3,-17
1501875253582474,-4,0,11,-13,9,-1,1,4
1501875253582474,3,11,-4,-4,-12,3,4,4
1501875253583408,-3,-5,-3,-10,-13,-2,-1,-8
1501875253583408,8,9,11,0,16,6,7,32
1501875253605442,-3,-9,-5,-2,-8,-6,-8,-41
1501875253605442,-6,-19,-15,8,8,-3,-5,7
1501875253606423,-2,-1,-3,18,4,0,3,-18
1501875253606423,-5,7,7,-14,-26,-4,-4,-36
1501875253628430,4,4,-8,-3,2,-1,0,11
1501875253628430,4,1,5,14,6,-1,0,-15
1501875253628430,-1,-1,-4,-7,-12,1,5,33
1501875253628430,6,7,8,10,4,-6,0,30
1501875253642478,-4,-12,-2,-24,-23,6,-5,-5
1501875253642478,4,18,-5,-13,22,2,6,24
1501875253643448,-6,6,2,2,3,-2,-4,-28
1501875253643448,0,-43,-18,-2,-7,0,-1,-14
1501875253665482,-1,13,6,7,12,-2,-2,3
1501875253665482,0,-6,-13,-2,-17,-3,0,9
1501875253666425,1,10,4,-7,5,0,-1,14
1501875253666425,-3,0,11,4,-3,0,-1,2
1501875253688434,-4,-10,-2,10,8,-3,0,10
1501875253688434,-3,-10,-4,-4,0,-2,4,-24
1501875253688434,-9,-14,-11,-2,8,0,-7,-24
1501875253688434,3,22,-9,-13,-1,1,-5,-6
1501875253702485,-1,-10,2,-4,-7,0,4,25
1501875253702485,-1,-2,3,-1,1,1,-4,-18
1501875253703415,-1,-14,-5,8,-16,-3,0,-9
1501875253703415,-2,14,3,-5,23,0,-4,-25
1501875253725448,-1,-10,-4,-10,-12,-2,-1,2
1501875253725448,1,15,18,14,13,0,2,-6
1501875253726418,1,-9,-31,-11,-4,-2,-2,38
1501875253726418,-2,-10,-6,0,-5,-4,-3,6
1501875253748434,1,-3,3,0,2,1,-3,-9
1501875253748434,-3,2,-1,2,-14,-1,-2,6
1501875253748434,7,-7,6,-1,3,1,1,0
1501875253748434,-4,8,6,0,-3,-1,3,1
1501875253762437,-2,4,-4,2,6,1,-3,-11
1501875253762437,1,-14,5,4,-14,-6,3,41
1501875253769456,-6,9,2,-9,8,-4,-2,-7
1501875253769456,-3,-3,-4,17,2,4,-2,29
1501875253785457,1,-2,1,-31,-9,-1,-6,-51
1501875253785457,-2,-11,-23,-8,6,-1,-4,7
1501875253786431,2,5,9,11,7,-1,2,7
1501875253786431,-5,-2,5,-5,-12,-3,-1,-27
1501875253807484,2,-3,1,0,-3,-2,0,38
1501875253807484,-2,16,-2,-4,0,0,-3,-6
1501875253808453,0,-11,5,0,2,4,3,9
1501875253808453,-5,-18,1,-4,-6,-5,-8,-23
1501875253821487,5,2,-26,6,1,0,3,16
1501875253821487,-6,-5,11,9,-10,-6,-4,-19
1501875253829486,3,5,-10,-20,4,3,3,21
1501875253829486,4,3,9,9,2,-2,-2,35
1501875253845470,-8,3,1,-4,-5,0,-1,-30
1501875253845470,3,-1,-1,3,2,2,-3,-8
1501875253846422,0,6,3,3,-28,-4,-1,-13
1501875253846422,6,5,3,0,21,3,7,18
1501875253868443,2,3,-6,5,-8,-5,0,15
1501875253868443,1,-3,4,-4,-3,-2,-4,-4
1501875253868443,-3,17,-2,10,-2,-3,-3,-14
1501875253868443,-4,-32,-7,-8,9,-2,-3,-17
1501875253881457,-5,-12,-5,-4,-23,0,0,11
1501875253881457,1,-3,-2,-16,19,5,3,10
1501875253889494,0,-11,12,-6,2,1,-2,-16
1501875253889494,1,16,-2,10,-7,-5,-2,3
1501875253905494,2,15,5,10,0,0,0,-10
1501875253905494,1,-9,11,15,1,-3,3,24
1501875253906427,-9,-5,0,-15,-3,2,-7,-17
1501875253906427,-2,-8,-11,-1,-21,-4,-2,5
1501875253927485,0,-7,5,3,20,1,-1,-14
1501875253927485,3,10,-3,-7,-5,1,0,8
1501875253928460,2,10,0,10,0,-2,-1,17
1501875253928460,-4,-2,-2,-7,-1,1,0,-20
1501875253941493,-3,1,4,1,7,-4,-1,4
1501875253941493,-1,6,2,10,-3,-2,-2,-9
1501875253949489,-1,-10,-4,-12,2,-1,0,2
1501875253949489,3,17,7,-1,-5,-3,0,3
1501875253965462,-2,3,1,0,1,-2,0,-5
1501875253965462,0,-11,-2,1,8,2,6,4
1501875253966442,3,-8,-7,0,-13,-5,-3,-4
1501875253966442,1,21,0,7,9,0,3,-11
1501875253987497,3,13,5,-30,1,5,1,26
1501875253987497,1,2,-4,7,4,2,1,0
1501875253988464,0,-7,-7,4,-9,-3,-3,11
1501875253988464,-3,-6,0,-3,3,-2,-2,-16
1501875254001476,4,17,2,6,-7,-1,1,-2
1501875254001476,-1,-1,3,-15,-14,-1,-1,16
1501875254009495,0,-8,-15,10,17,0,1,-3
1501875254009495,-1,4,2,-3,1,-2,-1,1
1501875254025480,-2,-3,2,18,21,-1,2,2
1501875254025480,-5,-11,-15,-23,-20,-2,-5,-18
1501875254026444,-5,8,10,23,19,0,-7,-30
1501875254026444,-1,-6,-8,-32,-31,1,-1,-1
1501875254048453,-2,-7,2,-8,-9,-4,-1,-2
1501875254048453,-3,-4,-1,15,20,-1,-3,-7
1501875254048453,2,14,4,-9,-6,-2,4,2
1501875254048453,4,15,2,15,2,0,7,35
1501875254061499,-8,-37,-16,-2,-21,-6,-18,-63
1501875254061499,-5,7,6,-10,-1,-2,-4,-17
1501875254069480,-1,-12,2,11,7,0,-1,-11
1501875254069480,7,4,4,-15,-16,-2,1,15
1501875254085478,0,0,3,16,12,2,8,33
1501875254085478,-7,3,1,-9,-3,-2,-5,-18
1501875254086449,0,-1,-6,-10,-5,2,-2,-3
1501875254086449,-3,-8,-4,11,11,0,-2,-13
1501875254107508,5,18,-1,6,2,0,4,28
1501875254107508,-2,-15,3,-7,-23,-8,-7,-30
1501875254108482,-1,-7,-3,-9,15,6,6,19
1501875254108482,0,1,2,-7,-12,-3,-1,-2
1501875254121465,-1,1,-10,2,16,3,-1,-6
1501875254121465,1,7,3,20,5,-1,3,12
1501875254129485,1,-2,-1,-4,-13,-2,0,16
1501875254129485,-5,-12,-4,-2,7,2,-3,-26
1501875254145478,-1,4,3,3,-11,-5,-2,13
1501875254145478,2,-4,-2,-5,-24,-2,1,-1
1501875254146452,0,11,7,30,34,-1,1,-40
1501875254146452,-8,-8,-6,-45,-10,1,-3,0
1501875254168443,3,-12,-4,8,15,2,6,1
1501875254168443,0,11,-22,-11,-16,-1,-4,3
1501875254168443,-4,-3,2,-9,-11,-5,-5,6
1501875254168443,-3,-6,-13,21,5,0,1,1
1501875254190484,0,4,2,-2,1,-2,-1,-12
1501875254190484,1,-9,-1,0,2,-1,2,-6
1501875254191455,1,-4,-3,-11,-9,-3,1,17
1501875254191455,-3,6,-4,-1,2,-2,-5,-16
1501875254205516,-2,-19,-3,-10,-6,3,2,31
1501875254205516,2,4,13,16,4,0,-2,-27
1501875254206456,-6,-7,-7,-13,-8,-4,-3,-4
1501875254206456,-2,-3,4,9,8,-2,-1,0
1501875254227510,4,17,0,5,-44,-6,-3,-14
1501875254227510,-11,-25,-12,-31,35,3,1,11
1501875254228483,1,3,11,6,14,4,1,8
1501875254228483,1,0,-10,9,-5,-2,-4,-28
1501875254250512,-1,1,-1,0,1,0,1,1
1501875254250512,0,4,-4,9,-10,-5,1,-6
1501875254251459,1,-1,6,-12,-18,-2,5,33
1501875254251459,-4,4,1,1,10,-3,-7,-19
1501875254264465,-5,-3,9,6,1,-3,-5,-16
1501875254264465,0,8,5,1,8,1,1,-2
1501875254273447,1,-9,-14,-5,-5,-3,2,20
1501875254273447,8,1,6,0,-3,1,3,6
1501875254287470,-6,10,-4,-6,0,-1,-4,-45
1501875254287470,-10,-27,-6,-1,0,-1,-2,21
1501875254289449,-2,-2,-6,-1,-16,-6,-1,-23
1501875254289449,-3,-11,3,-8,10,5,2,13
