timestamp,emg1,emg2,emg3,emg4,emg5,emg6,emg7,emg8
1501876774817613,-19,-78,-83,-32,-61,-15,-17,-76
1501876774817613,-8,-16,-11,-22,48,10,4,-2
1501876774821670,5,32,62,74,5,-7,4,30
1501876774821670,22,84,24,-102,2,17,-3,-33
1501876774823619,-4,44,-13,49,12,13,6,37
1501876774823619,0,-2,0,-2,-20,-11,-8,-17
1501876774825614,-13,7,-53,47,16,-5,-9,-6
1501876774825614,16,-27,0,-50,-37,1,10,26
1501876774827673,31,13,4,-5,34,-2,-6,0
1501876774827673,-43,-40,75,-52,-28,-5,-5,-26
1501876774835618,-8,21,-87,94,25,5,7,-5
1501876774835618,3,13,-33,-19,-32,-25,-13,-17
1501876774842673,-7,-34,-80,-98,-10,9,9,22
1501876774842673,8,14,88,113,7,8,-2,6
1501876774857662,32,24,58,3,-4,-9,-8,-18
1501876774857662,-32,26,49,-15,63,12,-5,-8
1501876774865624,-8,-49,-20,30,5,-4,6,20
1501876774865624,14,51,11,-52,-27,-14,-14,-10
1501876774888667,-11,-20,-40,-88,-54,7,10,26
1501876774888667,-2,10,19,96,36,5,0,-53
1501876774889616,10,106,67,-30,11,-4,1,37
1501876774889616,0,70,-33,64,-27,-1,5,0
1501876774934650,-10,-13,-9,37,32,5,3,-11
1501876774934650,17,44,38,-78,-7,-8,2,36
1501876774936629,-10,-26,53,62,-32,6,-4,-17
1501876774936629,-1,23,-27,36,-15,-31,-16,-25
1501876774937609,-14,-23,15,-68,49,26,0,-47
1501876774937609,-4,-21,-78,13,0,5,3,-10
1501876774939654,11,29,20,35,-16,-6,2,6
1501876774939654,5,4,-7,-81,15,0,2,8
1501876774947643,-15,-8,5,11,-32,-13,-9,-10
1501876774947643,-2,12,41,65,-11,5,2,3
1501876774954673,-7,-8,-86,-110,28,-5,-5,-32
1501876774954673,2,-16,-7,22,27,20,16,29
1501876774962619,13,-13,68,64,4,-9,2,36
1501876774962619,-9,-29,34,-58,-9,2,3,-8
1501876774977615,5,40,16,7,-8,-12,-4,6
1501876774977615,-18,-36,-12,-5,4,10,-16,-68
1501876774984672,9,11,-21,19,-29,-7,0,16
1501876774984672,-13,-5,-31,54,50,4,-5,-14
1501876775008652,-4,-33,30,-41,31,0,6,23
1501876775008652,4,28,-6,-5,2,-5,-1,6
1501876775009653,9,26,-65,-5,-51,0,10,19
1501876775009653,6,-23,10,14,23,-13,-19,2
1501876775022655,-1,80,49,4,-1,-1,-1,3
1501876775022655,-23,-81,0,12,-26,-6,-6,-28
1501876775023627,-1,36,-52,-32,2,0,0,10
1501876775023627,9,74,30,-30,-30,-14,3,31
1501876775045643,-10,-68,-8,37,33,8,6,-39
1501876775045643,-2,18,20,-19,-52,-2,-5,18
1501876775046617,11,44,54,-92,27,1,-2,14
1501876775046617,-19,-52,-21,30,3,6,0,-16
1501876775068634,-5,20,-38,8,-59,-11,-5,-19
1501876775068634,3,12,25,62,60,19,3,-20
1501876775069629,-10,-33,-23,-76,-35,-16,-3,-6
1501876775069629,8,20,-43,11,49,14,8,5
1501876775082690,19,12,41,3,-14,-7,4,36
1501876775082690,0,-31,-78,-81,-30,-4,-1,23
1501876775083651,-7,0,19,98,14,9,-4,-23
1501876775083651,4,4,-3,-12,17,-3,-1,-10
1501876775105687,-9,-55,-7,25,15,8,6,15
1501876775105687,11,60,10,-33,-27,-12,0,12
1501876775105687,11,25,86,40,10,-6,-8,-10
1501876775105687,-13,-9,-40,36,-3,3,-1,-17
1501876775128659,-13,-36,-40,-93,-33,-10,-15,-18
1501876775128659,4,19,38,83,12,-1,7,39
1501876775129621,-7,7,-33,-36,40,18,6,-36
1501876775129621,9,-12,65,14,-32,-6,-6,4
1501876775142666,7,14,-15,83,38,6,4,33
1501876775142666,-7,-49,-44,-22,-39,-1,7,23
1501876775143655,12,-4,-50,-14,-13,-7,-5,-22
1501876775143655,-21,-15,11,17,-2,-4,-6,-14
1501876775165697,9,7,28,-79,-1,7,-2,14
1501876775165697,-12,-9,0,37,-13,-7,1,-29
1501876775165697,1,-29,-7,-5,38,2,-8,-18
1501876775165697,6,-10,-49,-15,-29,-8,0,0
1501876775188675,6,38,-11,-19,18,1,-2,2
1501876775188675,4,50,37,75,56,15,6,7
1501876775189665,5,-6,26,-10,-34,-13,1,37
1501876775189665,3,16,7,6,-50,1,2,-16
1501876775202664,-14,-8,11,40,40,0,-6,-23
1501876775202664,15,1,16,-19,1,2,-1,-2
1501876775203660,-2,-3,-17,-1,-19,0,2,20
1501876775203660,-17,-59,29,-8,-14,-4,4,13
1501876775225673,2,19,-77,-67,-60,-2,-4,-30
1501876775225673,8,20,0,-12,41,-3,-1,32
1501876775225673,-4,8,-17,20,-17,-3,-12,-42
1501876775225673,-5,12,32,-37,-1,-4,1,5
1501876775248628,-2,-24,-24,58,22,4,-3,-10
1501876775248628,0,6,17,23,-20,-1,4,19
1501876775249636,-4,21,33,-53,-5,-11,-10,-37
1501876775249636,13,-13,-19,37,28,5,5,4
1501876775262653,2,-13,76,41,15,9,0,-3
1501876775262653,-9,5,-49,-45,-65,-9,-8,7
1501876775263661,-8,-22,-4,-31,33,1,7,20
1501876775263661,-7,48,-19,18,2,-1,-2,-2
1501876775285672,20,6,18,17,20,-7,-3,18
1501876775285672,-2,-44,39,22,-2,-6,-3,-34
1501876775285672,1,33,14,26,25,3,1,7
1501876775285672,3,-21,-73,-28,-27,2,4,31
1501876775308696,-11,21,-18,14,-4,-1,5,3
1501876775308696,6,24,36,-21,-10,-2,-11,-35
1501876775309645,7,-3,-57,4,-15,-7,-1,28
1501876775309645,5,10,10,44,2,-5,-1,-10
1501876775322653,-13,-26,-80,-109,-7,-6,-5,-6
1501876775322653,-4,-1,14,49,-62,1,1,7
1501876775330675,1,4,-13,-50,68,9,5,7
1501876775330675,-1,-33,4,46,-36,-4,-6,-12
1501876775345653,1,5,18,-31,-8,-10,-2,16
1501876775345653,-5,-16,-47,-22,9,-1,-6,-41
1501876775345653,-8,-25,6,-9,-10,6,5,-6
1501876775345653,13,31,40,-16,-13,-4,-4,4
1501876775368688,-16,6,-7,25,-11,1,1,-1
1501876775368688,-3,-36,29,-57,21,-4,2,13
1501876775369646,8,26,15,61,-36,-3,2,16
1501876775369646,0,-19,46,-34,41,5,6,16
1501876775382649,-6,-4,0,58,9,4,3,-13
1501876775382649,25,53,36,-57,49,-1,-5,-29
1501876775390705,-9,-39,-48,43,-18,7,-2,26
1501876775390705,-2,33,27,-76,-1,-5,-8,-32
1501876775413700,-1,-20,10,23,14,3,5,18
1501876775413700,-9,14,35,77,-12,-2,-4,-14
1501876775414638,-10,-19,-73,-12,-50,-9,-3,-34
1501876775414638,-10,-25,-60,-4,27,4,1,-12
1501876775428703,10,41,52,42,-28,2,4,17
1501876775428703,-1,15,-14,-2,39,5,3,14
1501876775429651,2,-25,38,-55,-19,-9,-6,16
1501876775429651,5,10,-8,-15,-10,2,3,-8
1501876775442660,-7,-27,6,-8,-83,-8,-9,-32
1501876775442660,-4,-21,-18,0,88,5,4,14
1501876775450685,2,9,42,-29,5,0,-2,5
1501876775450685,-11,3,7,34,-15,-6,2,-2
1501876775465712,21,20,-39,-24,7,2,1,50
1501876775465712,-17,-32,12,11,-27,-4,-5,-61
1501876775465712,1,9,27,4,7,-1,-2,-1
1501876775465712,1,-17,-8,-11,27,10,0,8
1501876775488642,-3,10,28,-6,-18,-13,-6,-19
1501876775488642,3,-2,-17,29,-9,6,9,46
1501876775489668,-11,-16,11,10,62,-1,-3,-29
1501876775489668,-7,2,-68,-12,-39,-6,-7,-15
1501876775502683,8,12,-10,38,54,7,-1,6
1501876775502683,-2,-32,3,-24,-42,-5,2,7
1501876775510713,-8,-18,-23,-15,6,-7,-2,18
1501876775510713,1,1,15,-20,6,4,2,28
1501876775525697,-2,-5,4,2,-12,0,1,-30
1501876775525697,-3,15,-40,-11,15,-6,-4,3
1501876775525697,3,10,32,107,-49,-12,0,29
1501876775525697,-2,8,-48,-51,19,6,-7,-48
1501876775548692,-26,-48,-6,30,17,-1,3,-10
1501876775548692,12,78,-14,-52,-40,-3,-1,8
1501876775549645,-12,-30,0,-18,12,2,-4,-12
1501876775549645,8,-3,11,23,-47,-8,0,20
1501876775562646,1,-2,8,-46,63,5,1,-3
1501876775562646,-2,-21,-4,19,-13,-6,-2,12
1501876775570718,4,10,-17,-29,4,7,-6,-27
1501876775570718,-2,-2,28,39,-12,-7,-2,11
1501876775585721,5,39,-13,0,-12,-4,-4,-20
1501876775585721,-6,-63,-25,35,-1,1,0,28
1501876775585721,-5,36,44,-1,-16,-4,-3,-49
1501876775585721,-3,-34,-10,-34,13,-2,1,-2
1501876775608681,0,-20,53,14,-19,5,1,5
1501876775608681,-1,26,-49,-100,42,2,2,17
1501876775609649,0,-15,30,106,-8,-6,1,5
1501876775609649,-5,13,3,34,26,-4,-3,-5
1501876775621648,7,10,-17,-28,-34,-7,-2,3
1501876775621648,-4,-10,37,31,-24,6,1,-11
1501876775630649,1,4,-14,-29,45,4,4,16
1501876775630649,3,26,82,10,-9,-2,-2,8
1501876775645687,-5,-54,-51,3,6,-9,-6,-26
1501876775645687,-9,9,10,0,14,0,-6,-4
1501876775645687,7,10,11,6,-40,-12,1,15
1501876775645687,-5,8,18,-23,21,13,1,-15
1501876775668715,-4,-5,11,79,-54,-1,0,0
1501876775668715,-4,-5,-3,-64,81,-4,-4,-13
1501876775669676,2,-15,1,17,-14,0,5,42
1501876775669676,4,3,-45,-1,6,-6,-13,-54
1501876775690727,9,20,-7,-37,0,-1,2,30
1501876775690727,-6,3,15,6,-30,-3,-4,-33
1501876775691665,-1,-2,-20,72,-23,-6,3,17
1501876775691665,7,-4,28,-20,23,5,10,41
1501876775705723,-5,-6,10,-18,0,-1,-8,-49
1501876775705723,8,7,-15,-47,-12,2,4,38
1501876775705723,-10,8,-37,-26,6,3,-3,-21
1501876775705723,-3,-33,13,-53,-62,-8,-4,7
1501876775728717,-3,-2,-55,3,11,-5,2,27
1501876775728717,6,12,10,6,6,1,-7,-27
1501876775729693,0,-10,64,26,7,4,-3,-7
1501876775729693,0,11,-43,35,-7,-6,-1,8
1501876775750704,-2,-3,30,17,7,6,1,16
1501876775750704,3,-21,14,63,4,-4,-1,-10
1501876775751663,-3,-3,-48,-68,-52,1,2,18
1501876775751663,-5,10,36,12,73,3,-1,-36
1501876775765730,4,-7,8,-6,4,4,6,42
1501876775765730,-6,4,-23,26,-57,-3,1,-6
1501876775765730,0,-7,-12,11,40,-10,-8,-12
1501876775765730,0,-25,39,-87,-8,-3,-6,3
1501876775788714,-9,9,-54,-27,-27,-6,-6,-13
1501876775788714,18,11,11,41,22,4,13,44
1501876775789672,-12,0,-31,2,-46,-3,-10,-72
1501876775789672,4,-10,31,20,-4,5,1,39
1501876775810717,4,35,25,-50,25,1,0,7
1501876775810717,-3,-10,-23,103,45,9,-3,-25
1501876775811660,11,-3,-36,-73,-2,7,7,21
1501876775811660,-6,8,-26,-25,-11,-9,-4,-13
1501876775825705,-9,-32,22,53,-15,-2,1,1
1501876775825705,-4,-24,30,1,7,-6,2,14
1501876775825705,8,33,24,20,19,-5,-2,1
1501876775825705,-1,-15,-27,9,-10,7,5,11
1501876775848721,-12,-19,1,-63,0,-3,-13,-53
1501876775848721,5,-11,-28,23,0,0,-1,6
1501876775849662,-11,-24,22,-2,3,-4,-7,-18
1501876775849662,6,13,-27,60,11,0,4,50
1501876775870728,-3,2,-16,-8,-15,8,8,4
1501876775870728,-8,-14,14,-22,20,-3,-7,-15
1501876775871671,8,28,54,7,-5,5,0,-1
1501876775871671,3,-24,-78,23,-48,-7,0,5
1501876775885691,-6,-9,-12,-26,68,0,-2,-5
1501876775885691,-4,-9,4,-46,-67,-9,-1,-6
1501876775885691,4,14,3,26,48,6,-1,4
1501876775885691,-5,17,-17,13,26,-4,-3,-7
1501876775915731,-1,-53,-23,-22,-7,4,2,-6
1501876775915731,2,26,18,-9,-38,-8,-1,11
1501876775917677,-11,13,23,15,35,5,0,-30
1501876775917677,-4,9,1,-10,-30,-4,-7,-19
1501876775930738,4,-2,21,35,34,1,-2,12
1501876775930738,-1,12,20,-56,6,1,3,4
1501876775932702,5,-5,-46,5,-14,-5,8,39
1501876775932702,-9,16,31,-19,-20,-1,-10,-37
1501876775953737,8,24,-8,18,11,1,0,1
1501876775953737,3,7,41,35,-11,2,1,14
1501876775959702,-7,0,-28,-60,20,-4,0,26
1501876775959702,7,-13,25,45,-4,0,-2,-12
1501876775966668,2,9,-19,-62,-28,-2,1,12
1501876775966668,-5,4,-2,-6,-12,-2,-7,-11
1501876775975705,2,-31,-12,-32,-14,4,2,-13
1501876775975705,-3,27,43,21,-9,-6,3,8
1501876775990669,9,11,37,19,8,2,-3,-8
1501876775990669,-1,-10,-24,2,1,-3,1,9
1501876775992672,2,-9,-31,-9,-27,-1,-8,12
1501876775992672,-3,14,41,-11,11,2,0,15
1501876776013740,1,1,0,34,8,-3,0,-21
1501876776013740,-8,21,-10,-28,-2,2,-4,13
1501876776014678,-1,-35,8,38,-5,6,2,-45
1501876776014678,-3,-17,-31,-31,8,0,-1,-6
1501876776027675,2,11,-10,19,-24,-10,3,13
1501876776027675,-6,-1,1,-10,10,0,-10,-4
1501876776035708,4,-2,32,23,-12,2,1,17
1501876776035708,1,-27,-55,-21,19,0,6,2
1501876776050713,-11,-16,30,7,-37,-8,-10,-14
1501876776050713,6,-16,-34,-83,10,-3,-4,-23
1501876776052686,-8,1,22,38,7,-7,-3,21
1501876776052686,1,-7,-10,-15,-3,-2,-3,-4
1501876776073677,2,21,-12,27,-28,-4,6,-17
1501876776073677,-12,-17,-19,17,60,6,-9,-14
1501876776074678,4,9,0,-29,6,7,3,-7
1501876776074678,4,6,41,31,-45,-5,9,67
1501876776087702,-6,-34,-19,-36,35,-3,-13,-75
1501876776087702,-7,-4,19,37,-18,4,3,8
1501876776103711,12,42,-5,-10,-14,-3,13,17
1501876776103711,-16,-42,12,43,19,2,-21,-43
1501876776110725,5,20,16,-23,-23,-9,1,32
1501876776110725,5,-15,2,-11,-18,-1,-3,-22
1501876776112688,3,5,-9,-1,19,7,12,33
1501876776112688,9,-12,6,-5,11,-4,3,3
1501876776133684,0,3,-25,-2,8,8,-4,29
1501876776133684,-2,-1,-13,25,-16,-11,-2,4
1501876776134680,-1,-12,-11,43,-12,6,-7,-33
1501876776134680,-3,33,3,-25,9,-5,5,2
1501876776146713,0,27,42,-6,7,5,3,2
1501876776146713,-5,-34,-3,39,5,1,0,-15
1501876776163682,-2,2,-9,-6,-41,-17,-15,-18
1501876776163682,7,26,16,-24,54,20,5,-11
1501876776170680,-17,-60,-61,-19,-26,-7,-8,6
1501876776170680,5,12,19,-9,15,2,4,2
1501876776172690,-1,5,-22,-37,-5,-11,2,33
1501876776172690,-11,-32,-39,12,-7,-4,-16,-33
1501876776192715,1,25,21,46,8,3,2,-21
1501876776192715,0,20,2,-12,-30,-3,2,19
1501876776200681,-2,7,-27,-27,27,1,-7,-38
1501876776200681,-4,-29,-12,-6,-30,-9,3,13
1501876776207706,2,-2,13,-6,14,4,-3,16
1501876776207706,3,10,-20,24,-16,-15,-7,-13
1501876776215733,-1,-10,-23,-1,0,4,3,-15
1501876776215733,-3,19,0,-1,41,7,-2,3
1501876776230685,7,-12,0,51,2,-7,1,19
1501876776230685,-1,0,5,16,-10,-1,9,18
1501876776232686,-2,-37,-63,-88,15,-1,-9,-5
1501876776232686,-7,3,37,34,-14,-7,-2,-12
1501876776253728,6,31,-2,-16,-8,-2,1,16
1501876776253728,-1,4,-3,-41,10,8,8,11
1501876776254687,-7,-17,17,49,14,-4,-5,-16
1501876776254687,1,22,-26,-4,-28,-1,-2,-14
1501876776275696,-6,9,19,-51,-10,-4,3,19
1501876776275696,5,5,26,34,15,6,-3,-10
1501876776277699,-8,-22,-5,-53,-47,5,4,13
1501876776277699,4,-1,-20,10,6,2,3,-12
1501876776290728,7,43,39,60,6,-10,-4,17
1501876776290728,-5,-29,-97,-63,21,9,2,9
1501876776292699,3,17,72,50,-35,-7,-7,6
1501876776292699,6,3,-13,-35,10,2,2,27
1501876776313731,-5,8,-32,-27,15,8,2,-38
1501876776313731,2,1,17,72,9,4,1,-8
1501876776314690,-13,-10,-23,-23,6,-2,-2,0
1501876776314690,5,24,34,11,-7,-5,6,25
1501876776335755,-10,-21,-44,-19,-24,-9,-14,-39
1501876776335755,0,6,-4,-13,8,0,-6,-16
1501876776337703,7,3,36,45,21,0,2,5
1501876776337703,-6,-2,-26,-22,-12,-1,4,14
1501876776350741,7,-2,16,-28,2,6,1,11
1501876776350741,1,3,22,26,0,-3,-5,-8
1501876776352702,-6,-5,-15,34,-21,-10,-3,0
1501876776352702,6,21,10,15,-15,0,0,6
1501876776372719,-9,-34,8,-8,34,6,1,-39
1501876776372719,-9,-27,-13,-15,-32,-5,-8,-8
1501876776380707,3,5,52,12,59,10,4,19
1501876776380707,-12,11,-50,1,-49,-2,-2,-36
1501876776395711,13,-14,9,4,14,2,5,70
1501876776395711,-11,-15,-7,6,7,-1,-10,-29
1501876776397706,0,3,-15,26,-24,-9,-5,-16
1501876776397706,6,-22,20,-39,41,4,8,10
1501876776410765,-6,22,-12,49,-16,-6,-3,-10
1501876776410765,3,15,55,-22,-45,1,1,-1
1501876776416759,0,3,-45,-41,24,-6,-1,16
1501876776416759,8,15,44,13,43,11,1,2
1501876776433708,-7,-16,-15,-35,-7,-4,2,14
1501876776433708,-4,8,-26,-19,-31,-11,-11,-24
1501876776434697,-6,22,4,7,19,12,4,-11
1501876776434697,7,7,3,-33,-7,-8,3,-12
1501876776455762,-4,-39,0,72,-21,-7,-7,11
1501876776455762,0,6,-32,-25,18,7,3,-5
1501876776457709,7,2,25,-4,-37,-3,-1,-4
1501876776457709,-7,16,1,18,27,-5,-6,16
1501876776469732,3,6,-22,-36,-8,-6,4,-6
1501876776469732,4,12,30,12,-5,-3,5,36
1501876776478732,3,-23,-20,-3,-3,-1,4,-4
1501876776478732,-5,3,-15,-24,-47,-3,-15,-41
1501876776493736,-9,-21,10,-1,32,0,-2,-2
1501876776493736,4,24,-23,1,-20,-9,0,-12
1501876776494701,-7,10,22,-21,-3,6,7,18
1501876776494701,3,-49,2,37,13,-9,-7,-12
1501876776515746,6,18,-49,-23,7,3,-2,9
1501876776515746,0,5,30,-18,-12,-2,2,1
1501876776517713,-4,-17,16,-9,-27,-5,0,0
1501876776517713,3,5,-16,1,11,1,3,7
1501876776530769,-4,27,44,18,-14,-6,-12,-9
1501876776530769,-6,-22,5,-24,29,4,1,5
1501876776536761,6,1,-41,30,-13,-7,3,8
1501876776536761,-4,-7,-5,35,-10,4,-5,3
1501876776553722,8,-14,47,-39,16,6,7,30
1501876776553722,-3,38,-37,33,-2,-3,-4,-48
1501876776554704,-7,-58,24,-21,-1,-3,-11,-11
1501876776554704,-9,7,-1,31,12,1,5,0
1501876776575770,4,33,-39,56,3,0,-4,-8
1501876776575770,-1,-45,9,-11,1,-8,-3,15
1501876776577740,6,21,13,-37,-7,3,2,5
1501876776577740,0,-4,-25,-20,1,-2,7,8
1501876776590715,-12,7,-8,13,-20,-7,-12,-34
1501876776590715,-1,-29,5,-12,-1,8,7,14
1501876776597730,-6,10,-31,9,-7,-10,-9,14
1501876776597730,-7,-25,-15,-50,-11,-6,-8,-17
1501876776613766,-1,21,20,-4,9,-2,-5,-40
1501876776613766,6,12,-13,16,22,3,0,-3
1501876776614707,-5,-8,19,19,-23,0,0,14
1501876776614707,-4,2,4,-19,26,-5,-6,-5
1501876776635775,8,33,-19,-6,-45,-1,7,6
1501876776635775,-13,-39,18,-15,50,-3,-2,-9
1501876776637720,2,6,-9,-43,29,12,10,5
1501876776637720,-4,-13,21,24,-53,-10,7,26
1501876776658750,-4,-29,-2,5,32,5,-15,-27
1501876776658750,7,27,6,-2,-17,-7,-3,18
1501876776659710,5,17,-1,9,16,-1,-6,9
1501876776659710,-4,-7,-1,8,-24,5,2,-38
1501876776673774,-3,-9,21,-28,8,-2,8,18
1501876776673774,-1,-4,-8,23,-39,-1,-2,6
1501876776674746,0,-2,7,31,36,7,0,1
1501876776674746,3,27,10,-55,-6,-3,-4,-10
1501876776703779,4,-10,-8,-11,-26,-3,13,9
1501876776703779,0,-36,-12,21,35,1,-4,32
1501876776704713,-11,1,-29,2,-38,-12,-12,-55
1501876776704713,-3,-20,8,-55,19,11,0,-7
1501876776710730,0,-16,13,78,7,-1,2,1
1501876776710730,-3,5,-29,-78,-17,-7,5,41
1501876776716753,4,-28,19,20,7,-1,0,-53
1501876776716753,8,31,9,25,34,1,-4,21
1501876776733779,-6,-15,-38,22,-15,3,4,21
1501876776733779,-5,16,30,-39,-27,-11,-4,-21
1501876776734715,-5,-3,-3,-6,26,11,2,7
1501876776734715,5,37,2,34,-1,-4,3,8
1501876776755753,1,-33,-50,-52,-12,-4,-7,-6
1501876776755753,-8,-24,-1,10,13,-8,-4,5
1501876776757716,4,5,-11,30,12,3,1,-15
1501876776757716,-5,5,35,41,-27,2,1,10
1501876776769756,5,-18,0,-66,20,9,4,9
1501876776769756,0,2,-39,16,-33,-4,-2,-17
1501876776778751,2,8,19,-32,34,-2,-1,22
1501876776778751,-2,-3,-22,-5,-11,0,3,-12
1501876776793758,-8,-8,20,16,-2,-6,-2,-1
1501876776793758,7,0,7,-35,-25,0,0,4
1501876776800765,-3,8,8,35,8,0,7,29
1501876776800765,6,-3,-21,5,1,-6,-14,-16
1501876776815786,-5,7,3,-51,5,2,-4,-11
1501876776815786,-4,17,6,44,-1,7,2,-2
1501876776817731,4,4,3,31,-15,-7,-2,19
1501876776817731,-4,-9,-28,-40,10,-2,-2,-26
1501876776829760,4,3,18,-1,0,1,7,33
1501876776829760,1,-9,-21,16,7,-2,-7,-11
1501876776838753,-3,-12,13,13,1,-3,-4,7
1501876776838753,2,3,-4,-40,1,5,-1,0
1501876776853759,-7,-6,12,28,-4,0,3,-26
1501876776853759,9,30,7,1,11,3,7,23
1501876776854721,-10,-6,-12,-20,-35,-16,-9,-2
1501876776854721,4,25,-2,-18,10,3,4,0
1501876776875792,-4,-11,12,45,28,3,-4,-9
1501876776875792,1,-1,-10,-35,-9,-6,-2,-2
1501876776877745,-7,-3,5,-14,-11,4,0,-27
1501876776877745,4,-2,24,20,25,4,3,25
1501876776889762,2,27,-47,-39,-23,-2,-1,-8
1501876776889762,-4,10,16,62,28,-5,0,-9
1501876776898738,-3,0,-10,-29,-43,-2,0,-2
1501876776898738,0,-58,11,30,17,1,-3,26
1501876776913772,-2,-12,13,31,-12,-6,-8,11
1501876776913772,4,6,1,5,7,4,6,-1
1501876776914724,-4,-5,-41,-32,-11,-2,-5,-5
1501876776914724,-10,2,18,20,-7,-6,-3,-7
1501876776935765,9,14,-25,7,-13,-4,5,30
1501876776935765,-12,-31,10,-19,14,12,2,-49
1501876776937732,-2,22,52,41,-12,-14,-5,-13
1501876776937732,0,-13,4,43,34,11,1,-4
1501876776949768,2,10,-22,-10,18,12,8,13
1501876776949768,2,7,10,25,-13,-4,6,38
1501876776958727,2,-11,-39,-25,-49,-4,-2,-4
1501876776958727,1,-4,12,-8,25,2,2,2
1501876776973770,-2,3,32,12,-10,-4,-7,-20
1501876776973770,-1,-32,-2,-1,7,-2,-6,1
1501876776974728,0,3,17,21,2,6,-3,-8
1501876776974728,4,8,-32,17,-53,-10,0,7
1501876776995743,-4,14,-2,-85,38,-2,-4,-14
1501876776995743,-4,-8,49,18,-12,4,5,14
1501876776997741,3,11,25,0,7,-1,-3,-15
1501876776997741,-5,-15,-53,5,10,-5,-2,-15
1501876777009789,-2,12,54,-5,-23,0,1,21
1501876777009789,3,16,-32,39,26,4,-3,2
1501876777018743,8,2,10,-86,-2,1,2,12
1501876777018743,-8,-17,12,-15,-2,0,0,-10
1501876777033791,-5,-25,-27,5,-36,-12,0,12
1501876777033791,-1,15,13,-16,6,0,-12,-29
1501876777034731,-1,-6,5,34,12,7,5,23
1501876777034731,5,23,-26,-9,-30,-10,-3,-28
1501876777055769,-4,5,-10,10,28,4,-2,6
1501876777055769,3,8,25,-10,-16,-5,2,7
1501876777057733,-3,7,-8,40,29,-4,-2,-31
1501876777057733,-2,-6,-5,-52,-21,5,1,56
1501876777069773,-7,-13,-25,-24,11,-7,-6,-25
1501876777069773,2,16,-17,13,10,4,0,-14
1501876777078766,6,17,-28,-31,-4,2,1,6
1501876777078766,-18,-14,18,9,-13,-7,-7,-23
1501876777093768,3,-13,-2,48,12,5,1,5
1501876777093768,-3,0,-35,-33,-26,-9,1,-6
1501876777094736,3,-9,25,-7,23,-1,9,52
1501876777094736,-3,26,5,10,-15,-10,-19,-88
1501876777115798,4,6,-13,-8,-5,6,3,-2
1501876777115798,-8,-1,15,-3,-14,-15,-6,-18
1501876777117748,-12,-26,-39,6,9,13,4,2
1501876777117748,-1,-10,3,-49,-64,-10,-2,0
1501876777129758,5,10,30,33,62,6,2,15
1501876777129758,0,-17,5,-3,20,3,2,17
1501876777138746,0,5,-19,8,-8,-2,-5,-2
1501876777138746,-2,-1,-2,14,5,1,5,2
1501876777153739,3,-14,-26,-37,-50,-2,-1,2
1501876777153739,5,2,-1,16,-5,5,-6,-22
1501876777154752,-4,17,-11,-30,6,-1,-3,8
1501876777154752,-4,-11,29,19,15,-1,5,-2
1501876777175740,-3,4,-4,2,-18,-7,-7,-9
1501876777175740,6,17,8,40,-1,2,-1,-6
1501876777177742,5,0,39,26,15,2,-2,-20
1501876777177742,-1,0,-20,-25,-6,-1,1,24
1501876777198741,-4,4,-36,-23,-27,-8,1,-8
1501876777198741,-5,-18,-13,11,10,3,1,16
1501876777199741,1,9,19,-58,13,5,-3,-2
1501876777199741,5,25,-10,-29,9,-5,-2,13
1501876777213742,-5,-33,32,-4,0,4,0,-6
1501876777213742,-4,-12,-9,-50,-22,-11,0,-17
1501876777214742,0,7,-16,41,-12,-7,-2,16
1501876777214742,-1,8,19,49,43,6,0,-16
1501876777235757,-2,25,10,9,3,-2,4,8
1501876777235757,-2,-5,-17,-53,-16,-4,-1,14
1501876777237745,3,-1,16,-7,-3,-4,-9,-37
1501876777237745,-6,27,-32,5,-22,9,2,11
1501876777258791,-3,-34,7,-14,30,-8,-5,-17
1501876777258791,0,5,-18,-10,14,4,4,14
1501876777259744,-4,0,10,24,-19,-7,-6,-9
1501876777259744,9,6,-25,-9,3,0,3,13
1501876777273809,-9,-13,2,-13,-19,-2,0,-12
1501876777273809,-3,-10,0,32,-2,-1,1,6
1501876777274746,0,9,-14,-5,-8,-7,-2,17
1501876777274746,-5,-63,-20,27,19,9,-1,-34
1501876777295745,4,30,41,2,22,7,4,5
1501876777295745,2,-5,5,-26,-25,-4,-3,8
1501876777297748,-3,4,10,31,7,-3,5,-2
1501876777297748,2,-10,18,27,8,-4,-8,20
1501876777318787,5,19,-15,-8,-24,-2,-2,-10
1501876777318787,3,-5,29,8,23,7,2,8
1501876777319749,1,-10,-9,-14,0,-2,2,-7
1501876777319749,-12,-9,12,4,-5,-3,-2,-2
1501876777332768,2,-7,-12,22,-27,-1,2,18
1501876777332768,-2,26,-1,-9,-5,-7,-6,-6
1501876777339792,1,-13,-19,-64,61,6,4,-7
1501876777339792,1,-7,-12,25,15,1,5,15
1501876777355818,-1,34,52,32,-34,2,-2,-24
1501876777355818,-1,-18,-61,-33,-4,0,1,11
1501876777357761,-7,-13,-30,14,-22,0,-8,-7
1501876777357761,4,11,33,-7,1,-5,-4,-1
1501876777378793,4,-11,-4,-5,22,-2,2,34
1501876777378793,-8,5,25,16,2,-1,-6,-59
1501876777379753,-3,20,4,15,-16,-3,3,13
1501876777379753,5,1,-11,-18,36,-1,-2,19
1501876777392751,-6,-21,-6,-30,-13,1,-8,-34
1501876777392751,4,0,-14,21,18,6,5,34
1501876777399792,-2,-2,-2,-39,-24,-6,-4,-24
1501876777399792,1,5,-1,18,-7,3,5,11
1501876777415785,-1,-10,-30,1,-6,-3,1,10
1501876777415785,0,24,9,-9,-30,-7,-2,-17
1501876777417754,8,-11,20,25,20,17,8,13
1501876777417754,-1,-16,-3,-2,10,-5,1,20
1501876777438797,4,6,44,54,30,1,-3,-21
1501876777438797,-11,-4,-51,-86,-40,-10,-7,-4
1501876777444817,-5,-1,0,26,-18,-3,1,16
1501876777444817,10,4,-14,-53,-6,-10,-2,-9
1501876777452792,-8,-17,14,32,9,9,-1,8
1501876777452792,1,11,8,39,15,-2,1,3
1501876777459796,3,0,-1,-26,-20,3,0,13
1501876777459796,-6,-21,-24,-34,-18,-2,-3,-15
1501876777475794,4,34,24,26,29,3,-1,-7
1501876777475794,-1,-11,-7,-4,-4,3,3,4
1501876777477767,-3,-20,-22,2,-41,-9,1,15
1501876777477767,4,8,35,21,27,3,2,-5
1501876777498798,-2,5,-33,-20,-20,-3,-3,6
1501876777498798,-3,0,34,37,21,2,3,5
1501876777499758,3,-6,-27,-26,-6,0,-6,-2
1501876777499758,-11,15,38,11,-21,0,-8,-27
1501876777512782,2,-1,-42,-34,-4,-8,-1,-6
1501876777512782,-1,-11,-12,5,-1,4,-2,-1
1501876777519797,4,19,16,7,20,-4,0,7
1501876777519797,-8,-20,30,24,-13,3,-2,-3
1501876777535760,-4,-9,-21,-29,2,-6,-5,-7
1501876777535760,4,7,7,3,8,7,1,0
1501876777537762,-14,-38,-15,0,16,-2,-2,-8
1501876777537762,6,5,-14,-12,-8,-3,2,14
1501876777558808,-5,1,-4,41,-38,-6,-5,-18
1501876777558808,2,8,5,0,25,-6,0,0
1501876777559770,3,-9,43,17,15,11,1,-1
1501876777559770,-4,17,-26,8,-11,-3,3,-27
1501876777572831,-6,-18,-20,-9,-11,-3,3,19
1501876777572831,4,-4,3,-29,-7,0,-5,-6
1501876777579765,-3,10,4,16,3,-3,3,3
1501876777579765,-3,-8,-22,-7,-28,-12,-10,-16
1501876777595796,10,-5,21,11,33,9,6,28
1501876777595796,-6,-5,9,13,-2,-1,-5,-15
1501876777597776,-1,11,-17,-59,6,-1,-1,14
1501876777597776,7,-17,12,17,-17,-1,7,19
1501876777618808,-9,-22,-10,-39,1,-4,-9,-28
1501876777618808,-1,-10,1,7,14,2,-2,9
1501876777619766,-1,6,11,26,-11,-11,-6,-20
1501876777619766,-3,-5,-4,-8,20,8,1,-2
1501876777632829,4,23,2,10,-10,6,2,11
1501876777632829,3,-5,-4,5,14,1,10,46
1501876777639807,-8,3,18,47,-10,-7,-12,-82
1501876777639807,-2,-2,-55,-32,31,12,2,8
1501876777655767,2,11,44,4,6,-2,0,-2
1501876777655767,3,5,5,-15,-13,0,0,-13
1501876777657769,0,-13,-4,36,-15,-3,7,38
1501876777657769,-6,-13,-5,-36,11,-4,-9,-16
1501876777678842,1,11,24,7,-7,-1,-1,-18
1501876777678842,2,13,-41,-4,-1,0,2,11
1501876777679777,-4,2,-1,-29,17,-2,-10,-6
1501876777679777,2,-6,-14,-11,-20,5,2,19
1501876777691836,7,22,19,4,-62,-4,5,42
1501876777691836,-11,-36,-32,-6,66,-3,-8,-71
1501876777700785,1,23,-4,13,8,-1,-2,5
1501876777700785,-4,3,-1,6,-16,-3,2,15
1501876777715818,-2,-11,-19,-17,8,-4,-2,-19
1501876777715818,-1,8,39,23,-39,-2,-1,8
1501876777717783,-4,7,-10,-7,10,2,1,-3
1501876777717783,8,-9,25,17,-16,0,3,6
1501876777738842,-4,-17,-36,-17,15,-3,-1,-2
1501876777738842,-3,1,-9,0,-14,-8,-4,0
1501876777739785,1,-12,19,7,10,4,1,-5
1501876777739785,-1,24,18,24,-41,-5,0,5
1501876777751841,-1,-9,-13,7,75,5,3,-3
1501876777751841,4,7,35,-3,-22,-8,-3,24
1501876777760789,-2,-1,-2,10,-73,-1,5,9
1501876777760789,4,-12,-1,-26,54,5,-4,3
1501876777775798,-1,13,1,23,-11,-5,-9,-22
1501876777775798,3,-9,17,3,6,2,1,-1
1501876777777786,-1,4,-5,-16,-15,-7,5,22
1501876777777786,-2,27,26,7,-7,-7,-8,-33
1501876777798828,-4,-49,-46,-31,-6,0,-2,-17
1501876777798828,0,19,5,-4,-3,1,2,9
1501876777799788,-2,-9,1,0,-5,0,-2,2
1501876777799788,1,-6,-3,25,37,2,3,4
1501876777811817,4,38,6,-16,3,0,0,14
1501876777811817,-8,-3,20,15,-16,-3,-5,-24
1501876777820793,-2,-36,-17,-22,-12,3,-1,-12
1501876777820793,-3,10,10,-5,17,-12,-3,3
1501876777835840,2,15,24,21,-1,12,3,-1
1501876777835840,0,5,-9,-5,-23,-4,-1,15
1501876777837791,1,1,-15,-29,24,-5,-2,6
1501876777837791,-3,-14,-41,1,-12,0,-5,-10
1501876777858829,-2,1,36,-8,-3,1,1,-4
1501876777858829,0,-12,-69,10,9,2,0,-5
1501876777859785,-2,4,18,-7,2,-3,-3,-6
1501876777859785,-4,19,13,20,-21,-5,0,17
1501876777871817,4,4,-4,-47,-9,-7,0,13
1501876777871817,-8,-6,0,-10,3,-2,-10,-32
1501876777880799,3,-2,6,-5,35,2,3,9
1501876777880799,0,-4,-5,13,-4,10,5,-5
1501876777895827,-7,-24,3,11,-21,-9,-7,4
1501876777895827,2,-6,6,-12,-6,-8,-2,11
1501876777897781,2,-4,2,10,3,7,-3,-1
1501876777897781,-5,-26,-8,-2,-1,-1,0,-9
1501876777918824,0,4,11,16,5,-2,-1,-9
1501876777918824,-6,-12,-4,-62,9,-13,-5,7
1501876777919817,1,3,-20,21,8,16,5,-2
1501876777919817,7,-8,19,1,-16,-3,-1,10
1501876777931816,-7,20,-17,11,-17,-5,-1,6
1501876777931816,0,-20,-1,-2,5,-14,-4,10
1501876777940803,-4,27,19,-14,-5,11,0,-41
1501876777940803,-5,7,-26,-16,14,8,-1,-13
1501876777955854,1,11,-17,3,-32,-19,-3,11
1501876777955854,-2,-2,47,34,37,27,7,9
1501876777957794,-1,-19,-54,-11,-16,-15,-4,-4
1501876777957794,2,16,31,16,-1,-7,-8,4
1501876777978784,0,14,4,-8,-1,1,4,-3
1501876777978784,2,-3,-20,19,-3,1,-3,-3
1501876777979797,10,25,9,4,-5,7,8,28
1501876777979797,-11,-21,-7,-7,-11,-9,-5,5
1501876777991846,2,-9,-12,-9,0,7,1,-2
1501876777991846,-2,-18,-20,4,-3,6,9,17
1501876778000806,-6,20,3,12,-11,-16,-16,-40
1501876778000806,2,1,-3,-23,8,1,1,14
1501876778015856,4,-16,21,10,-3,-1,-2,-5
1501876778015856,-3,50,-11,-28,-17,-5,3,4
1501876778017788,-6,-86,-46,19,32,11,2,20
1501876778017788,-4,0,13,-27,-12,-6,-3,-21
1501876778038834,-4,-11,-10,-1,14,0,1,2
1501876778038834,1,5,15,7,-24,0,-1,-13
1501876778039791,1,13,19,0,5,-1,0,11
1501876778039791,0,1,-13,3,-10,-2,-2,-12
1501876778051859,3,-11,-33,-18,13,17,5,11
1501876778051859,-3,6,27,11,-13,-16,-4,12
1501876778060810,-2,16,10,4,10,1,-5,-22
1501876778060810,1,-22,3,1,5,4,4,-7
1501876778075836,-9,14,-12,10,-21,-29,-11,-18
1501876778075836,15,35,62,1,-2,24,4,-5
1501876778077803,-6,-26,-36,-15,31,-4,2,32
1501876778077803,3,33,-1,37,-1,-12,-2,20
1501876778098834,-7,-77,5,-76,-23,21,5,-10
1501876778098834,-3,7,5,22,21,-8,-7,-13
1501876778099828,2,14,13,-1,-22,-6,-3,-2
1501876778099828,-1,-20,-8,-4,4,5,5,-16
1501876778120864,-6,37,-9,10,12,-14,-6,-1
1501876778120864,-4,-27,-26,-4,-12,11,7,-3
1501876778122806,3,-2,21,3,-3,-12,-2,20
1501876778122806,-8,-17,-11,-17,10,1,-11,-3
1501876778135838,9,6,-1,10,-9,9,2,-13
1501876778135838,-2,-14,-8,-13,0,-5,-2,-7
1501876778137806,3,41,9,17,-4,0,0,-3
1501876778137806,0,8,26,-6,-3,-16,-3,5
1501876778158838,-7,-31,-29,25,15,-10,-1,15
1501876778158838,1,-8,8,11,3,40,6,-11
1501876778159796,-1,1,14,-10,-21,-5,-1,-20
1501876778159796,4,28,1,-5,4,8,8,11
1501876778188865,-4,6,28,6,-16,-16,-6,2
1501876778188865,-1,-1,17,18,-11,-22,-10,11
1501876778189798,0,-1,23,-12,22,0,5,-5
1501876778189798,-2,-21,-37,-4,0,25,2,-6
1501876778195808,3,8,-6,17,24,2,4,14
1501876778195808,1,14,-15,-25,-21,-6,3,20
1501876778197831,-6,-14,-4,-7,-14,-8,-10,-49
1501876778197831,3,-19,-7,-21,-20,-17,-3,24
1501876778218869,-5,8,0,-10,-40,6,-5,-48
1501876778218869,1,8,-5,5,73,9,2,5
1501876778219801,2,7,-25,3,-24,-9,-2,24
1501876778219801,0,-6,61,4,17,-1,4,-15
1501876778240847,-1,14,2,3,-30,3,-7,11
1501876778240847,-7,-39,-30,-28,-2,-10,-7,-7
1501876778242802,-7,-41,-16,9,22,5,0,-3
1501876778242802,5,28,16,19,-29,5,2,2
1501876778255875,-3,12,-5,-31,24,-12,-1,1
1501876778255875,0,-13,-18,0,-22,-17,-6,-12
1501876778257828,0,16,8,-14,-1,16,2,7
1501876778257828,3,8,-6,6,4,4,-1,23
1501876778278804,1,-11,9,2,-1,-3,-2,-9
1501876778278804,-7,11,-16,14,-6,-21,-11,-42
1501876778279803,4,-8,7,-4,16,12,5,8
1501876778279803,2,38,-48,-11,-3,19,4,-6
1501876778300869,3,-42,16,21,31,-11,-2,16
1501876778300869,-1,-26,30,-10,-34,4,1,27
1501876778302816,-5,5,-14,2,6,1,0,-28
1501876778302816,-6,-4,-4,-12,-8,-15,-8,-7
1501876778315824,6,33,16,-1,-10,0,-3,4
1501876778315824,-5,2,-27,3,3,-3,3,0
1501876778321851,-2,0,10,4,-17,-7,-8,2
1501876778321851,6,-18,0,-9,13,13,14,9
1501876778338863,-9,0,-52,-7,6,-8,-11,-11
1501876778338863,2,11,35,10,-12,10,5,3
1501876778339808,-4,-2,-32,-1,2,-10,-12,-9
1501876778339808,0,14,-7,9,23,-14,-8,0
1501876778360867,-8,-26,22,5,12,1,14,-20
1501876778360867,5,34,11,-2,25,43,6,4
1501876778362809,0,-23,-22,-10,-15,6,8,0
1501876778362809,-3,-10,4,14,-5,-20,-3,4
1501876778375826,-2,2,23,-9,2,17,-4,-11
1501876778375826,-1,-3,-15,-3,-8,-45,-6,2
1501876778381813,4,0,15,15,15,24,3,0
1501876778381813,-10,-11,14,-20,0,-9,-5,-9
1501876778398812,5,39,-8,-6,1,19,5,17
1501876778398812,-4,-16,-30,-10,-26,-19,-4,-11
1501876778399812,-4,5,2,3,12,-1,-5,-22
1501876778399812,2,-22,-5,-4,-16,-5,-2,6
1501876778420874,2,18,-13,15,13,11,6,1
1501876778420874,-3,6,30,-9,0,4,-7,-24
1501876778422844,1,0,-14,-1,-13,-8,4,5
1501876778422844,-2,-8,-1,7,-5,5,-3,-3
1501876778434874,-1,-13,-11,-19,8,-11,-4,-2
1501876778434874,3,-9,20,13,-37,-8,-3,5
1501876778441853,-2,2,-7,10,36,-8,-1,6
1501876778441853,-1,5,-19,-9,2,18,2,-5
1501876778458850,1,-13,-10,8,-12,-4,0,12
1501876778458850,-2,-7,-7,-10,4,-17,-3,0
1501876778459815,-1,3,9,-7,-44,16,5,2
1501876778459815,2,3,29,16,20,-10,-5,-5
1501876778480880,0,3,-16,1,0,-7,-1,7
1501876778480880,-6,-17,-27,-15,22,3,-3,-2
1501876778482817,-1,-1,7,0,-2,6,3,7
1501876778482817,-4,-20,-17,-14,-33,-6,1,-1
1501876778495817,-2,6,20,10,12,6,-3,2
1501876778495817,2,17,-19,7,6,-8,-7,-9
1501876778501878,3,6,13,-12,2,-28,3,13
1501876778501878,-4,-4,-10,8,3,23,-1,-4
1501876778518853,2,0,17,8,-4,1,4,3
1501876778518853,-1,-1,-7,-7,-8,7,4,12
1501876778519817,0,11,11,1,-3,1,-5,-26
1501876778519817,-1,8,-4,3,-35,-17,-2,7
1501876778540887,-4,-12,-2,2,50,-8,-5,-19
1501876778540887,1,-8,-5,2,-10,4,-7,5
1501876778542818,-3,-14,-7,-8,-12,-1,-4,3
1501876778542818,-3,12,7,2,8,24,10,3
1501876778554824,-4,-21,-23,-10,-17,0,-1,1
1501876778554824,1,-1,6,2,9,-6,3,1
1501876778561886,6,15,10,8,-2,-4,-3,11
1501876778561886,-6,-24,22,-8,-13,-33,-14,-22
1501876778578893,-3,-1,1,-6,-7,20,7,-1
1501876778578893,1,5,-11,1,39,24,5,-1
1501876778579822,-3,-4,-10,-9,-33,-24,-2,9
1501876778579822,5,21,2,-2,22,3,-4,-2
1501876778600863,0,-7,-8,-21,-6,-16,-9,-5
1501876778600863,-3,-4,21,2,-9,-27,-5,4
1501876778602823,-1,-7,-30,5,-1,47,-4,-1
1501876778602823,3,2,2,9,40,14,15,3
1501876778614863,-2,0,6,1,-33,-19,-7,9
1501876778614863,0,12,-12,3,7,3,3,-4
1501876778629864,0,-3,22,-1,-7,-34,-9,13
1501876778629864,-3,19,-28,-5,-1,10,-1,-21
1501876778638826,-6,-26,8,1,-28,3,-2,-10
1501876778638826,-1,-11,-19,-6,52,19,8,13
1501876778639836,3,-10,-13,-5,-1,-7,2,-1
1501876778639836,0,6,4,-5,-41,-20,-10,7
1501876778660891,3,13,24,6,50,15,6,1
1501876778660891,-2,-6,0,14,-22,-1,-3,-7
1501876778662837,-8,-8,-4,-17,-14,-1,-2,-10
1501876778662837,-2,10,6,-5,19,-20,-9,-1
1501876778674827,5,9,-8,7,-6,12,9,4
1501876778674827,0,-4,17,11,-19,3,0,-4
1501876778683837,-1,1,28,8,17,6,4,3
1501876778683837,-3,-14,-26,-5,-13,-10,-3,7
1501876778698827,6,15,1,-3,-2,-9,-6,-3
1501876778698827,2,6,-15,-6,-5,24,8,4
1501876778699867,-5,-7,-5,7,-13,-12,-1,-22
1501876778699867,0,-7,8,23,34,9,5,1
1501876778720872,-2,14,18,-10,-2,0,-2,8
1501876778720872,0,-14,-21,-3,-31,-21,-2,-6
1501876778722861,-2,6,7,3,27,14,-4,-8
1501876778722861,2,-12,5,4,-1,-4,4,6
1501876778734871,-3,-11,0,6,1,1,-1,11
1501876778734871,-3,15,-5,-4,-30,-4,-2,-10
1501876778743863,-2,-9,2,-18,23,-6,-3,4
1501876778743863,-3,-20,9,8,-3,0,-2,-5
1501876778758888,1,5,-18,-7,4,-9,-4,-4
1501876778758888,-2,2,18,-12,-5,7,-1,3
1501876778759832,0,-1,13,11,-26,-26,-2,0
1501876778759832,0,5,-18,-23,7,6,-2,0
1501876778781873,1,15,17,12,-7,11,2,9
1501876778781873,-1,-24,-13,17,43,15,-2,-8
1501876778784849,3,15,33,-5,-9,11,11,-2
1501876778784849,-3,-4,-26,-7,-13,-8,-6,3
1501876778794893,-2,-3,-9,7,-11,-7,-3,-5
1501876778794893,-2,16,20,-17,-2,-25,-4,-11
1501876778803835,-6,-8,-1,17,20,17,-4,15
1501876778803835,-2,-11,-7,8,5,7,4,0
1501876778818834,0,0,-18,0,-19,-4,4,2
1501876778818834,-4,-19,22,-7,17,3,-6,-7
1501876778819835,0,-6,-35,-18,-15,-6,-2,-5
1501876778819835,1,14,37,10,6,6,-1,-3
1501876778840899,-3,-9,-10,-3,0,0,-3,-3
1501876778840899,1,10,-14,2,6,0,6,0
1501876778842868,2,6,10,6,-2,-2,0,7
1501876778842868,1,4,-2,-20,-9,-7,-3,6
1501876778854907,-2,-5,-3,8,-3,-21,-7,-15
1501876778854907,-5,-6,29,4,0,30,3,-2
1501876778863872,-2,-12,-27,-7,9,4,3,-3
1501876778863872,-2,-9,-34,5,-15,6,2,8
1501876778878850,-2,28,21,-14,14,-11,-4,3
1501876778878850,0,-9,-29,-3,-16,-15,-4,3
1501876778879840,-2,2,15,0,22,3,-1,-7
1501876778879840,-4,-4,4,-2,-9,-3,-3,-13
1501876778900903,0,-16,-3,-5,-11,2,-1,-2
1501876778900903,1,-1,-20,-7,-8,-4,-1,5
1501876778902875,1,1,4,-3,13,2,-1,-3
1501876778902875,0,2,-31,-6,-11,-4,-1,-3
1501876778914880,-2,-12,21,9,8,6,-1,1
1501876778914880,2,7,-5,2,-3,0,0,1
1501876778923873,-1,-1,8,2,-15,-14,-1,-1
1501876778923873,0,5,9,-3,-1,3,-2,-3
1501876778938913,-1,-8,-10,-5,3,10,5,2
1501876778938913,-2,-2,7,-10,-6,-12,-6,-3
1501876778939842,0,8,-46,0,-4,1,-1,5
1501876778939842,-4,-4,13,1,5,0,1,-5
1501876778960907,-1,-8,-11,25,-3,4,4,-10
1501876778960907,-2,0,-12,-15,-3,-7,-3,0
1501876778962879,-1,6,37,-8,-6,-3,-4,-2
1501876778962879,-1,-3,-16,-3,-2,-3,-2,0
1501876778974910,-6,-3,-1,-11,4,0,4,6
1501876778974910,5,3,8,-6,2,-3,-4,-3
1501876778983844,-12,-4,-30,5,-3,1,5,-9
1501876778983844,5,-10,0,5,-3,-2,-5,4
1501876778997883,13,3,0,19,1,0,3,12
1501876778997883,-16,0,-14,-29,-3,3,-5,-1
1501876779004919,3,-5,-6,-4,-3,-11,8,2
1501876779004919,-7,1,11,-26,-4,1,-7,-6
1501876779020887,7,-3,-5,15,1,2,-2,3
1501876779020887,8,5,-4,16,8,4,2,2
1501876779022848,3,-5,10,-8,-3,1,-4,-2
1501876779022848,-4,-1,3,12,0,-3,2,-1
1501876779034917,-4,-1,5,-15,-2,-4,-4,-3
1501876779034917,-4,-1,-13,1,-4,-14,-2,-3
1501876779043859,-3,1,22,11,3,15,-3,-2
1501876779043859,2,3,10,2,5,4,9,4
1501876779057906,-6,-5,-7,7,-2,-3,-3,-4
1501876779057906,-1,3,-7,-16,1,1,1,1
1501876779064896,5,-1,-17,-2,-12,-16,-6,8
1501876779064896,-9,-4,-2,27,-5,0,-5,-12
1501876779080922,-2,-9,-48,-30,3,-3,-4,2
1501876779080922,-1,-4,23,-16,-7,-2,2,-11
1501876779082882,2,0,-16,-31,-1,0,-4,2
1501876779082882,1,2,22,8,4,0,-6,-10
1501876779103876,-18,-5,21,36,-7,-6,5,-15
1501876779103876,27,8,0,22,2,1,7,13
1501876779104863,-3,-2,-3,-19,-4,0,2,2
1501876779104863,6,-1,-3,-48,-5,-3,-5,-5
1501876779117911,-7,4,6,-1,4,-2,-7,-5
1501876779117911,-2,0,18,27,1,0,-2,10
1501876779124917,2,2,-16,14,2,2,0,-13
1501876779124917,4,1,24,2,0,-4,1,8
1501876779140885,-8,0,-8,-20,1,3,1,2
1501876779140885,-6,-6,26,12,-3,2,1,-3
1501876779142863,2,-3,-21,9,1,-4,-2,4
1501876779142863,-5,1,3,-3,2,-4,0,2
1501876779163865,5,-6,-9,-6,-4,-3,-3,1
1501876779163865,1,1,-37,5,4,11,6,-16
1501876779164864,-6,-2,50,13,2,-2,-4,-1
1501876779164864,4,-3,-21,-13,-9,-2,2,1
1501876779178888,5,0,5,-23,-4,-5,-5,-6
1501876779178888,-7,1,-26,18,0,-6,-6,0
1501876779185856,-3,-6,-9,0,2,2,-1,2
1501876779185856,-1,-1,-9,7,3,-1,4,1
1501876779200898,-1,-3,-22,18,-3,-2,-1,2
1501876779200898,-6,-4,4,-38,-3,0,0,0
1501876779202889,-2,2,18,-8,-8,-10,-3,-3
1501876779202889,-1,-2,-24,-2,1,-7,-5,0
1501876779223894,-2,-3,0,-10,5,21,5,0
1501876779223894,-1,0,9,19,-1,-12,-1,0
1501876779224858,2,3,8,-3,1,13,1,1
1501876779224858,2,-4,-22,0,-6,-8,-1,-2
1501876779236926,-13,-2,38,24,-6,-9,-8,-5
1501876779236926,6,4,-30,-11,0,-5,-1,2
1501876779245873,-6,0,44,31,1,-4,-1,6
1501876779245873,-6,0,6,-21,-6,3,0,-6
1501876779260906,10,4,-10,-24,-2,-2,0,2
1501876779260906,-4,-7,-2,-10,0,-1,-3,-1
1501876779262871,4,1,-16,34,5,0,-3,3
1501876779262871,-7,3,-7,-13,0,4,-1,-10
1501876779283888,0,1,0,-9,-3,-1,2,2
1501876779283888,-4,0,15,46,1,-2,-2,-1
1501876779284863,6,-1,-21,-22,-5,-11,-6,-5
1501876779284863,0,-1,5,-10,2,4,3,4
1501876779296901,1,2,0,-20,3,4,0,-2
1501876779296901,-2,-5,12,3,1,-2,0,1
1501876779305897,-4,0,-9,-12,-5,-9,-2,-3
1501876779305897,1,-1,-2,23,2,12,2,2
