timestamp,emg1,emg2,emg3,emg4,emg5,emg6,emg7,emg8
1501875067010581,39,-30,-6,41,9,4,2,106
1501875067010581,-27,42,12,4,-15,-7,32,-26
1501875067011625,29,-37,70,8,-3,7,-18,-81
1501875067011625,-26,106,-43,41,-35,-28,-21,71
1501875067015576,-39,14,-78,-103,50,26,-20,-78
1501875067015576,8,8,-34,18,-13,-7,-15,-7
1501875067019606,34,0,24,107,6,-5,15,102
1501875067019606,-34,-23,61,60,23,16,12,-86
1501875067021599,17,-16,-56,-73,-19,-11,9,29
1501875067021599,-67,-66,-43,65,-95,-33,-19,-68
1501875067032596,13,58,-12,26,65,30,17,-9
1501875067032596,47,-46,-16,-19,-2,14,1,52
1501875067036596,-16,19,-13,-24,-10,-5,7,-34
1501875067036596,-21,-86,13,-76,17,15,-24,2
1501875067059623,-17,33,-51,26,-69,-32,-15,-100
1501875067059623,16,-1,-34,-12,13,0,16,34
1501875067061615,-28,8,-2,-23,12,-5,-24,-71
1501875067061615,18,37,-5,-26,-7,-4,25,51
1501875067081617,-36,-20,55,-23,3,0,-3,-22
1501875067081617,-16,16,6,31,16,-1,-13,-8
1501875067082604,0,-14,31,-50,-29,-4,30,-12
1501875067082604,68,42,-22,7,52,23,-7,86
1501875067098592,6,11,2,23,5,-3,6,-11
1501875067098592,14,35,38,30,-9,-1,6,55
1501875067137621,-2,-33,3,-61,-19,-1,0,-16
1501875067137621,4,45,33,19,24,3,12,56
1501875067137621,-3,-32,-42,15,-20,-4,-8,-28
1501875067137621,-1,-13,-45,-11,21,3,-11,39
1501875067141601,9,38,41,-15,-7,4,15,34
1501875067141601,-1,-41,-56,-76,-30,-11,-1,-23
1501875067142596,-3,28,-31,-16,32,4,-9,-50
1501875067142596,10,-22,11,-16,-39,-3,0,1
1501875067150590,-26,4,11,-21,27,9,-4,-24
1501875067150590,3,-35,32,34,-13,-8,-18,-34
1501875067156597,0,6,36,47,-11,1,4,34
1501875067156597,-8,12,-31,-31,2,-2,-1,-15
1501875067172590,3,-8,1,41,16,10,3,-2
1501875067172590,17,90,18,-60,-15,-2,9,40
1501875067178622,-17,-87,17,12,5,-5,1,45
1501875067178622,6,10,39,127,-10,-1,11,55
1501875067195597,-22,70,-17,-6,35,8,-2,-84
1501875067195597,-19,-65,-34,23,11,1,-12,-7
1501875067209618,14,26,15,-38,-9,6,0,42
1501875067209618,21,37,22,-47,21,4,4,10
1501875067211599,-25,-69,5,31,-35,-17,9,100
1501875067211599,23,20,-51,57,-11,-3,-3,27
1501875067232651,-4,8,20,-50,28,10,0,-58
1501875067232651,-17,-18,17,66,-70,-26,-10,-54
1501875067234592,14,3,11,-69,34,21,-2,-10
1501875067234592,5,36,24,46,17,3,7,16
1501875067246594,-9,-3,-31,-10,-28,-13,2,-32
1501875067246594,8,-20,3,-78,9,2,-13,63
1501875067253635,1,-12,8,9,-21,-11,-12,-83
1501875067253635,-24,-12,-37,21,-9,5,5,-1
1501875067269631,12,12,-28,4,-2,-4,-11,-17
1501875067269631,-26,22,18,16,19,7,8,25
1501875067271605,15,25,-16,23,-13,-12,-12,25
1501875067271605,-15,-51,13,-5,7,2,2,-26
1501875067292637,7,-24,-38,-65,-48,-19,-1,67
1501875067292637,-3,6,-6,-5,70,17,10,-42
1501875067294595,21,-13,4,14,-31,3,1,11
1501875067294595,-20,38,51,51,12,-2,-8,-63
1501875067307601,2,0,-8,10,22,5,7,20
1501875067307601,11,-22,-57,-96,-56,-16,-12,-5
1501875067315598,-20,22,6,75,5,-10,-12,-36
1501875067315598,42,12,-14,-26,19,8,12,51
1501875067329599,-46,-20,18,64,-9,-2,-6,-80
1501875067329599,-5,0,40,4,-21,-8,-3,-5
1501875067331607,34,40,16,-16,47,14,2,-17
1501875067331607,-24,-56,4,-57,-45,-12,4,11
1501875067352659,12,66,6,-24,28,9,-17,-36
1501875067352659,1,-57,-15,10,-6,-8,-13,-30
1501875067353637,16,-16,-16,18,-15,-6,4,28
1501875067353637,-28,-8,10,36,3,1,-3,-45
1501875067366668,9,3,57,-18,13,5,15,50
1501875067366668,3,18,-13,17,25,8,3,-27
1501875067373668,-16,-44,-27,-31,-12,-12,-10,32
1501875067373668,12,-10,17,-56,1,0,1,34
1501875067389643,8,21,26,20,6,-3,5,5
1501875067389643,-13,14,-34,27,3,6,-19,-34
1501875067391601,-1,-14,-49,-73,-27,-5,19,15
1501875067391601,1,-1,30,12,20,-1,-9,-38
1501875067412639,3,35,68,51,-19,4,5,-6
1501875067412639,-1,-11,-2,28,19,1,2,7
1501875067413613,-10,-30,11,52,2,-2,-5,-18
1501875067413613,-19,8,-31,8,4,-2,-4,7
1501875067426644,7,-34,-67,-62,-11,-2,-3,16
1501875067426644,5,24,51,19,1,-1,6,27
1501875067434642,-8,-2,-47,15,10,9,5,-37
1501875067434642,9,-1,21,13,-6,-7,-7,29
1501875067449670,13,7,-16,50,14,-3,-1,29
1501875067449670,6,-10,37,-11,-2,4,-1,1
1501875067451614,6,-13,-71,-84,-43,-21,-13,33
1501875067451614,-16,12,-5,34,48,14,0,-19
1501875067472605,-17,-12,-17,-32,-29,-4,-1,-33
1501875067472605,4,3,-14,2,-1,-5,-6,2
1501875067474604,10,23,48,9,0,-6,-2,1
1501875067474604,13,-19,22,15,17,14,16,37
1501875067486626,-17,-22,-10,35,-18,-14,-9,-90
1501875067486626,-5,2,-50,-46,6,1,5,-8
1501875067495606,-3,18,29,36,8,0,-5,-7
1501875067495606,7,-11,-25,-43,-27,1,-4,-19
1501875067509648,5,-15,12,-5,31,9,8,37
1501875067509648,-15,-3,27,15,-30,-8,-1,-13
1501875067511607,-5,20,45,-9,9,4,3,-4
1501875067511607,-6,16,23,95,-8,-5,1,11
1501875067532639,8,-47,-26,-35,-17,-8,-10,-2
1501875067532639,-3,-1,6,-11,16,-6,-2,-22
1501875067533609,-10,-4,-39,8,7,10,7,27
1501875067533609,29,38,49,4,-2,2,11,7
1501875067546614,-21,7,-25,-27,-25,-7,-8,31
1501875067546614,-9,3,0,52,37,9,6,0
1501875067555610,12,11,38,-41,6,-5,4,20
1501875067555610,-12,-19,-84,-38,0,2,-9,-53
1501875067569651,12,7,4,23,-9,-3,1,53
1501875067569651,-1,-18,-12,-24,-3,-13,-4,1
1501875067571623,1,12,52,48,-1,9,18,2
1501875067571623,-4,-11,-28,-75,10,-3,-16,-2
1501875067592651,13,24,-28,-4,-3,2,4,4
1501875067592651,-19,2,32,53,-10,1,-2,-57
1501875067593613,-8,-16,-19,-24,-12,-7,-7,-25
1501875067593613,12,17,-35,-4,6,-8,-5,22
1501875067606631,4,37,25,-50,14,8,-1,-23
1501875067606631,-5,-38,-22,-12,-14,0,4,70
1501875067615613,16,0,26,47,-13,3,-2,54
1501875067615613,-16,-9,18,-34,16,-8,-10,-56
1501875067629616,-4,8,-66,41,6,3,1,-16
1501875067629616,41,25,3,-48,-9,1,13,60
1501875067631629,-18,-29,3,11,-1,-6,-12,-20
1501875067631629,-4,-4,9,16,-37,-5,3,-3
1501875067652678,-6,-15,51,38,32,-5,-9,9
1501875067652678,3,25,4,3,-9,0,-1,-2
1501875067653628,-31,-61,-13,5,-13,-2,-7,4
1501875067653628,2,20,29,8,17,-2,-2,-4
1501875067666634,21,-2,-9,0,-11,-2,12,86
1501875067666634,-19,-22,0,26,-22,-9,-17,-117
1501875067675617,-14,33,18,22,23,11,14,46
1501875067675617,-5,12,-24,-66,-31,-8,-10,12
1501875067689658,6,-10,57,48,55,7,2,29
1501875067689658,2,32,-18,-28,8,2,-1,-28
1501875067691652,24,-10,13,17,-15,-7,13,-15
1501875067691652,-4,-13,21,12,-5,2,-10,58
1501875067712628,-26,-21,-59,-35,-22,-4,-12,-111
1501875067712628,-14,8,9,12,4,6,5,2
1501875067714618,26,12,-31,-11,10,-4,4,43
1501875067714618,-20,-4,46,66,-19,-6,-10,-55
1501875067726637,-6,23,15,-59,-16,1,1,-49
1501875067726637,16,-19,-54,-29,17,1,9,63
1501875067735621,6,23,23,21,4,-2,-12,-86
1501875067735621,1,-16,-35,-31,7,3,13,-31
1501875067749658,-21,-6,-23,61,-40,-17,-12,10
1501875067749658,-6,1,2,-82,28,14,-2,-26
1501875067751633,3,-31,-55,-25,-21,-10,-15,31
1501875067751633,-6,14,1,-30,2,4,7,-21
1501875067772693,5,8,20,-3,2,5,9,-6
1501875067772693,21,4,-12,30,-28,-13,-2,100
1501875067774622,-28,-13,-23,-21,18,7,-9,-76
1501875067774622,19,-19,10,1,-16,-8,-8,22
1501875067786623,6,-1,34,1,-5,1,7,4
1501875067786623,3,18,31,-3,-6,-7,-9,27
1501875067795624,12,-5,-13,-26,12,9,6,30
1501875067795624,4,-11,-12,-38,-6,-6,5,1
1501875067809668,-7,-14,10,58,-3,-9,-7,-13
1501875067809668,-12,-1,83,1,6,10,2,12
1501875067811624,1,-15,-49,-12,2,-11,-11,21
1501875067811624,-11,-3,0,21,2,5,7,-29
1501875067832669,58,26,16,21,15,6,4,115
1501875067832669,-29,-14,-4,6,-30,-3,-4,-119
1501875067838684,-14,2,22,10,21,2,-7,-17
1501875067838684,2,12,-41,4,-3,-4,4,30
1501875067846626,5,0,16,-15,11,10,7,4
1501875067846626,-7,-23,-22,47,-48,-15,-14,-44
1501875067862628,16,11,47,-47,0,4,3,58
1501875067862628,-5,-17,-32,26,3,-1,-2,-8
1501875067869663,-21,-4,21,-20,8,1,2,-13
1501875067869663,8,8,-22,-14,8,7,12,-10
1501875067871639,-17,-4,-16,25,-32,-19,-5,-44
1501875067871639,15,37,102,-7,19,12,-6,24
1501875067892640,0,-18,-74,12,-12,-2,0,19
1501875067892640,-31,-8,3,3,10,-1,3,-9
1501875067893630,9,21,10,55,6,-3,0,19
1501875067893630,-23,-25,10,-47,-13,-4,-9,16
1501875067914670,-6,6,17,-19,-1,-4,-4,19
1501875067914670,45,12,1,3,47,14,5,84
1501875067916642,-47,-30,-46,-13,-14,-3,5,-64
1501875067916642,3,-3,16,-17,-13,-7,-8,-7
1501875067929642,-19,-8,4,-14,6,5,-1,-61
1501875067929642,9,-6,-14,18,-13,-13,2,52
1501875067931634,21,32,42,-20,20,13,6,39
1501875067931634,3,10,-32,3,2,-1,4,21
1501875067952644,-16,-44,-8,16,-47,-12,-11,-58
1501875067952644,-10,10,14,7,42,5,2,24
1501875067953635,12,17,-5,21,22,5,-1,-7
1501875067953635,-10,-25,-42,-44,-15,-7,-3,23
1501875067974666,8,16,16,9,-3,-2,5,31
1501875067974666,-7,7,17,-23,8,0,-6,-13
1501875067976645,-12,-9,-33,-23,-21,-5,-9,-3
1501875067976645,16,25,-22,-15,4,1,7,8
1501875067989669,10,29,21,22,4,-3,-2,55
1501875067989669,-3,-26,-26,3,-1,5,-6,-65
1501875067991646,9,27,9,-9,5,2,-3,-4
1501875067991646,17,14,37,47,1,0,5,-11
1501875068012705,-28,-18,-18,3,13,1,6,-5
1501875068012705,2,-9,8,-6,-10,-1,-3,10
1501875068013650,-3,-11,-20,-4,6,0,-6,-42
1501875068013650,3,-1,-5,26,-17,-3,3,11
1501875068034702,16,-4,-13,-45,15,0,-5,-25
1501875068034702,-1,8,7,-8,5,-3,2,-17
1501875068036673,0,0,18,28,-14,-1,3,20
1501875068036673,0,-16,-49,59,-5,-2,-2,3
1501875068049677,-7,13,53,-46,3,2,-3,16
1501875068049677,-21,-17,-85,-82,-5,1,0,-18
1501875068051666,19,2,19,14,-5,-1,7,57
1501875068051666,-18,9,38,35,0,-8,-24,-95
1501875068072705,-5,-25,-22,-14,-7,3,-2,9
1501875068072705,2,2,-2,12,-10,-5,8,-2
1501875068073668,-7,13,32,-24,1,-4,-14,-60
1501875068073668,13,-2,-10,35,-4,-2,5,56
1501875068094684,-20,4,1,6,-6,1,-3,-70
1501875068094684,8,-2,27,28,-6,-4,-5,31
1501875068096641,8,6,-42,-55,29,12,11,27
1501875068096641,3,-11,17,17,12,-3,1,5
1501875068117714,2,-15,-43,-24,13,-1,-7,-2
1501875068117714,6,20,25,28,-16,-1,4,25
1501875068118678,-2,-4,10,5,-16,-7,-1,9
1501875068118678,-4,-9,6,-53,12,13,9,-28
1501875068131663,-9,-18,-7,11,-4,-9,-3,13
1501875068131663,3,3,42,15,-5,-8,-14,-4
1501875068139686,-11,-7,-27,-16,-9,-6,0,-5
1501875068139686,-5,-1,6,17,-1,1,0,8
1501875068154687,4,25,7,19,15,5,9,-8
1501875068154687,2,-11,-42,-65,-3,-5,-3,4
1501875068156656,5,5,9,42,10,1,-1,17
1501875068156656,4,3,-51,7,-7,-3,5,22
1501875068177684,9,12,-5,-37,-3,-1,-8,6
1501875068177684,-9,-5,-15,6,-3,0,-1,-16
1501875068178659,-2,-1,17,19,4,3,14,9
1501875068178659,-10,4,-10,-39,-9,-4,-7,-29
1501875068191664,11,1,7,22,-4,-1,-8,-11
1501875068191664,-8,-20,-6,-12,-3,0,-3,4
1501875068199699,-17,-4,8,17,0,-4,-9,-35
1501875068199699,19,3,4,-12,-11,-2,7,66
1501875068214687,1,0,-46,9,-5,5,9,3
1501875068214687,1,25,19,-30,-5,-4,-9,-54
1501875068216648,12,-32,-32,-42,-16,-3,1,54
1501875068216648,-19,4,36,4,2,-1,-1,-43
1501875068237691,12,17,7,2,5,2,2,29
1501875068237691,-18,-18,8,-16,2,2,4,-41
1501875068238694,-14,-1,-1,9,-13,-6,-15,-59
1501875068238694,2,2,-8,-2,11,1,-2,4
1501875068250722,1,-18,-1,-33,-5,-7,3,23
1501875068250722,2,8,8,34,18,3,8,-16
1501875068259698,10,22,-15,-11,7,4,-1,3
1501875068259698,-9,-29,-1,-1,-8,-2,-5,-3
1501875068274695,-3,-1,33,20,-5,-5,0,-1
1501875068274695,12,8,-10,-15,2,6,8,41
1501875068276663,-10,-16,20,36,-26,-15,-7,12
1501875068276663,-2,-4,11,-8,23,13,7,20
1501875068297693,0,-4,-3,14,2,0,-2,-26
1501875068297693,-1,3,-9,8,0,-2,-2,15
1501875068298685,-17,-36,-17,-2,4,-1,-9,-59
1501875068298685,-1,0,-8,-48,-24,-6,-4,-16
1501875068311669,-9,-7,12,-14,-6,-4,0,2
1501875068311669,25,48,22,30,16,2,7,35
1501875068319693,-9,-20,-12,-20,-19,-6,-13,-6
1501875068319693,8,-6,-7,45,13,-3,-4,-4
1501875068334696,-2,2,5,-14,1,1,-3,-7
1501875068334696,-5,1,10,9,-34,-6,6,43
1501875068336666,9,31,34,28,30,9,11,-24
1501875068336666,-7,-47,-47,-36,-11,-5,-10,4
1501875068357657,-6,-3,-45,8,11,2,3,15
1501875068357657,-2,-7,-11,26,-10,-5,-2,-11
1501875068358659,14,5,33,8,5,5,1,50
1501875068358659,-4,20,-18,-26,-9,2,2,-2
1501875068370656,-10,-1,13,4,9,-3,-5,-18
1501875068370656,2,-24,-13,-2,-2,-5,-2,-2
1501875068379659,-2,17,-1,-31,-4,-2,-3,-15
1501875068379659,4,-19,-5,-10,4,1,2,-3
1501875068394721,2,17,8,-20,-19,-1,8,56
1501875068394721,-7,16,-12,25,36,3,-21,-94
1501875068396691,-10,-56,2,-34,-23,-7,-3,0
1501875068396691,1,11,28,80,22,3,0,-5
1501875068417696,-5,7,38,15,-15,-6,0,-1
1501875068417696,1,-10,-21,18,10,2,7,33
1501875068418661,2,21,-30,-16,-4,0,3,-3
1501875068418661,14,25,7,-3,3,0,1,24
1501875068430661,-20,-30,17,3,14,2,1,-62
1501875068430661,-8,-9,2,-14,3,4,0,-2
1501875068439672,8,10,9,22,-17,-8,-5,35
1501875068439672,-3,-12,-5,-5,7,-4,-4,-36
1501875068454684,0,25,-35,-11,2,6,1,-4
1501875068454684,-3,-12,-24,-55,-26,-7,-7,-9
1501875068456674,2,0,60,27,20,8,6,-3
1501875068456674,7,24,-21,10,-2,-6,1,20
1501875068477702,4,-18,14,-3,-20,0,0,9
1501875068477702,-1,-23,-20,21,17,8,7,-6
1501875068478684,6,0,-1,-25,2,1,-6,18
1501875068478684,0,27,34,10,-7,-2,4,-1
1501875068499706,1,-25,-45,-19,-8,-9,-9,-12
1501875068499706,-14,4,39,5,-18,-6,-2,1
1501875068501680,-6,1,-6,10,12,-1,1,-18
1501875068501680,-2,0,-18,-9,-4,6,5,-15
1501875068514706,5,12,-6,13,9,5,8,2
1501875068514706,7,1,34,-13,1,-2,-6,23
1501875068516675,-11,7,-38,-3,-20,-4,-6,-18
1501875068516675,-7,-22,20,17,-3,-2,-2,-1
1501875068537714,6,9,-10,15,15,2,-3,4
1501875068537714,5,1,27,11,-3,1,7,4
1501875068538704,-8,9,-12,-1,0,4,2,-26
1501875068538704,12,0,-12,-38,0,-2,-7,43
1501875068559708,7,-1,-16,9,-24,-9,-6,12
1501875068559708,0,2,-13,-4,16,2,8,-6
1501875068561701,-2,-12,22,2,-2,-4,-5,3
1501875068561701,-14,-3,-7,-10,-15,0,-3,-39
1501875068574708,-2,-1,-7,7,19,-3,-8,0
1501875068574708,4,16,-21,-2,-9,0,-2,-3
1501875068576680,2,11,5,14,11,0,5,-3
1501875068576680,-7,-11,-9,-33,-8,-3,-6,-5
1501875068597740,-2,9,13,3,-15,-6,-3,13
1501875068597740,-2,3,-7,9,-10,-8,0,-38
1501875068598671,5,9,2,-2,5,0,-5,14
1501875068598671,0,22,-4,3,24,7,1,10
1501875068619707,-6,-18,26,-4,-2,0,-3,-13
1501875068619707,2,-10,-1,-10,-6,-1,3,36
1501875068621679,-6,-17,-35,12,-14,-11,-4,-11
1501875068621679,-7,-14,-15,-61,-16,-6,-5,-25
1501875068634709,-6,7,42,42,17,1,-9,-52
1501875068634709,8,-14,12,-2,9,7,2,18
1501875068641699,-9,19,-12,2,11,-1,2,-4
1501875068641699,1,11,42,20,-5,3,14,36
1501875068657690,3,-7,-25,-33,12,1,-4,5
1501875068657690,-6,-8,-8,-14,-13,-8,-14,-35
1501875068658675,9,-1,37,7,5,5,6,30
1501875068658675,-6,-6,29,23,-1,-2,-4,-12
1501875068679676,13,11,-38,2,-18,-3,12,25
1501875068679676,-8,-1,20,2,-3,-1,-7,-23
1501875068681680,5,-3,-26,-27,18,1,-2,17
1501875068681680,-5,-3,-6,4,-13,-2,0,0
1501875068694710,8,11,39,5,3,3,11,32
1501875068694710,-10,1,16,42,-2,-4,-17,-35
1501875068700745,-12,-25,-23,-13,-14,-6,-3,-44
1501875068700745,1,8,-11,-21,5,5,-4,-12
1501875068717738,2,-5,-30,-16,-3,-4,3,18
1501875068717738,0,14,-5,-5,-10,3,1,13
1501875068718688,5,15,7,14,-8,-3,2,13
1501875068718688,-5,-24,-14,19,10,-4,-4,3
1501875068739717,3,5,25,1,25,9,3,-7
1501875068739717,-7,-12,-18,2,-8,-2,-7,-11
1501875068741716,5,11,3,9,-8,-2,2,21
1501875068741716,6,3,-6,2,-18,-4,8,17
1501875068754685,-12,-14,-7,-16,-3,-1,-10,-19
1501875068754685,4,7,-17,-1,3,-3,8,24
1501875068761697,2,3,3,-11,0,3,-1,-16
1501875068761697,3,-1,-2,-6,5,2,-1,-18
1501875068777718,-4,5,0,-11,0,-3,-4,-16
1501875068777718,-2,-4,-12,25,5,-3,-1,17
1501875068778695,-3,9,6,-3,-16,-7,-1,-6
1501875068778695,5,-26,-9,-2,23,5,2,17
1501875068799747,-2,-6,5,41,-5,-2,-1,4
1501875068799747,7,17,33,-19,-1,3,8,26
1501875068801718,-5,-31,-41,9,2,-2,-5,1
1501875068801718,-1,12,5,-7,-1,-2,-4,-8
1501875068814729,1,-3,-14,-10,-12,-2,0,3
1501875068814729,0,0,42,8,2,-2,11,45
1501875068820723,0,17,-8,11,-11,2,-6,-77
1501875068820723,0,2,-13,24,9,-9,-5,29
1501875068837724,-5,-18,-41,-34,0,3,-6,-4
1501875068837724,5,13,-17,12,2,0,-1,-29
1501875068838684,-7,-12,-2,-9,3,-4,-8,-14
1501875068838684,-5,-13,-33,-17,-32,-6,-5,-11
1501875068859726,0,13,1,-43,-7,-8,-2,3
1501875068859726,-3,-10,4,-16,7,6,0,-17
1501875068861697,5,-17,0,-11,3,3,6,42
1501875068861697,-5,15,3,15,1,-4,-3,-31
1501875068874748,-2,-12,42,53,-13,0,1,11
1501875068874748,0,-6,-68,-4,-9,0,-4,-19
1501875068880750,-1,13,15,-8,14,-1,0,9
1501875068880750,-1,-16,61,21,0,3,3,4
1501875068897750,0,-6,-21,-38,14,-2,-1,-8
1501875068897750,-5,0,-16,-31,-9,-3,-4,-8
1501875068898688,5,13,10,-12,1,5,-3,12
1501875068898688,-6,-25,-11,-15,6,1,0,-3
1501875068919730,-5,9,11,29,-16,-5,-4,-9
1501875068919730,-1,-13,-3,25,3,-5,-1,7
1501875068921701,2,4,0,-12,-2,-3,1,43
1501875068921701,1,30,29,19,1,2,-2,-6
1501875068934754,1,-8,-5,3,2,-1,3,6
1501875068934754,5,-16,-33,-5,9,3,13,46
1501875068941731,-9,-7,-10,-19,-14,-4,-18,-55
1501875068941731,-9,-18,-10,-13,-11,-5,-12,-25
1501875068957756,8,12,19,18,-2,2,0,-1
1501875068957756,0,8,18,-4,10,-1,-3,-3
1501875068958692,1,0,10,22,-15,-4,9,17
1501875068958692,-3,-7,-11,-4,27,-9,0,10
1501875068979703,1,21,-4,13,24,18,1,-7
1501875068979703,-1,-15,11,-68,-13,1,-1,-2
1501875068981728,-11,-24,-49,26,-10,1,0,14
1501875068981728,-4,5,-24,-7,-9,-6,-1,-9
1501875068993751,3,12,4,-21,-12,-3,0,11
1501875068993751,7,7,24,14,-5,-4,-4,11
1501875069002703,-1,4,30,18,7,-1,3,-8
1501875069002703,-8,-9,-54,-11,11,6,-3,-44
1501875069017761,-7,-13,-18,14,-11,-6,-3,10
1501875069017761,-7,-1,12,-6,2,-2,-7,-36
1501875069018700,12,22,28,-18,-2,-5,8,32
1501875069018700,-1,-31,-17,62,-4,-1,-9,-20
1501875069039733,1,18,9,-31,4,-2,-3,-12
1501875069039733,-3,-7,24,25,-4,-4,-4,-5
1501875069041696,1,-17,-58,-25,0,-1,9,3
1501875069041696,3,23,27,-2,0,5,3,38
1501875069053734,2,6,22,9,-15,-2,5,15
1501875069053734,-14,-16,16,-23,3,-9,-22,-42
1501875069062734,-4,-11,20,25,19,5,-3,-8
1501875069062734,2,20,-19,-11,-21,-1,5,6
1501875069077739,-3,-15,19,-6,15,2,4,6
1501875069077739,2,7,-14,18,-1,-3,-1,21
1501875069078698,1,-15,17,-4,8,4,1,-2
1501875069078698,-5,-19,19,-49,-24,-2,-2,-3
1501875069099741,0,4,-28,13,-5,-7,3,9
1501875069099741,4,10,-19,14,-2,0,-2,-12
1501875069101712,6,-2,11,-7,8,-2,-3,13
1501875069101712,0,8,0,5,8,0,6,21
1501875069113767,-2,14,-2,-16,-6,0,-8,-26
1501875069113767,4,-12,-25,2,0,3,8,38
1501875069122700,-17,-37,-33,-33,-24,-8,-13,-59
1501875069122700,6,17,28,30,20,1,0,8
1501875069144741,-2,1,6,1,6,0,10,34
1501875069144741,1,-9,4,-11,-17,-7,-8,-10
1501875069146716,2,7,-10,46,8,0,-4,-1
1501875069146716,-2,-11,-12,-47,-1,-3,-1,2
1501875069159703,-2,14,-4,-13,-5,-4,-4,-38
1501875069159703,3,15,0,-4,0,6,11,35
1501875069161714,-4,-13,-9,-4,-5,-3,-7,-13
1501875069161714,1,-5,3,-7,-10,-6,-4,6
1501875069173762,0,-9,-9,42,5,4,-5,-20
1501875069173762,-5,4,-1,-10,-19,-7,2,3
1501875069182737,2,13,25,5,26,5,7,15
1501875069182737,2,5,-18,-2,0,5,-1,-6
1501875069197738,2,9,-5,-28,-1,-4,-2,8
1501875069197738,-3,-24,0,22,-8,4,3,-22
1501875069198713,-5,10,-16,0,6,-4,-2,-6
1501875069198713,5,0,2,-10,9,7,8,11
1501875069219748,-6,-11,12,19,-3,-3,-8,-9
1501875069219748,-2,15,-15,-19,-2,-2,-6,-14
1501875069221742,-1,4,5,20,17,-1,5,16
1501875069221742,7,-10,0,1,-13,0,10,29
1501875069233775,-2,-9,26,-13,2,2,-4,-42
1501875069233775,0,8,19,44,35,2,-3,9
1501875069242708,3,5,-12,-32,-33,-7,4,13
1501875069242708,-8,-8,16,22,-2,-2,-12,-77
1501875069257771,-3,-19,-26,-7,0,-4,0,18
1501875069257771,5,8,4,-17,11,2,0,4
1501875069258709,-10,2,6,25,-18,-4,-2,-27
1501875069258709,2,1,-21,-29,6,1,6,20
1501875069279733,-1,-1,-3,-11,-20,-8,-5,4
1501875069279733,0,-4,-3,-7,1,-3,0,-6
1501875069281722,5,-4,-7,2,4,3,2,14
1501875069281722,-3,1,5,4,-1,-2,-7,-9
1501875069293778,-3,0,9,-2,-3,1,-1,1
1501875069293778,4,-8,-9,1,-7,-1,7,14
1501875069302744,2,26,12,-3,-2,1,-4,16
1501875069302744,-5,-24,0,-13,9,2,-5,-31
1501875069317756,-2,-18,-15,11,-4,-3,0,7
1501875069317756,-3,0,-4,-1,-6,2,2,10
1501875069318710,2,-7,25,-8,-13,-3,-1,4
1501875069318710,3,22,12,18,2,-1,6,17
1501875069339751,2,2,-24,-4,19,-2,-3,2
1501875069339751,-5,-11,0,-3,3,4,-8,-19
1501875069341724,-3,-7,2,-14,-8,1,2,9
1501875069341724,0,13,-7,27,-5,-7,-3,5
1501875069353714,3,5,30,-2,-4,0,3,8
1501875069353714,-3,4,22,-1,-13,-5,3,5
1501875069362716,-4,-10,-25,-9,19,1,-11,-9
1501875069362716,-5,-9,-10,11,-30,-5,-3,-4
1501875069377727,0,-4,-19,12,7,1,3,17
1501875069377727,3,6,-1,-16,9,2,4,0
1501875069378715,-5,-2,8,-2,-4,3,1,-28
1501875069378715,1,7,21,9,12,-1,-5,-2
1501875069399743,-4,5,3,2,-9,1,-2,-10
1501875069399743,4,-11,-10,8,-11,-5,-3,-8
1501875069401718,-3,-16,0,9,-2,-1,3,27
1501875069401718,1,16,1,-7,4,-1,-3,11
1501875069422724,0,-28,-15,-16,-4,-3,-2,-1
1501875069422724,0,15,1,5,10,4,6,3
1501875069423719,-1,-4,-17,-3,-6,-1,-4,5
1501875069423719,1,-3,16,12,-1,1,-2,-11
1501875069437764,0,13,-8,-6,-15,-2,0,19
1501875069437764,-1,-17,-3,-17,17,2,-2,-6
1501875069438719,-2,-3,1,-7,-17,-4,-5,-20
1501875069438719,-4,9,-14,-22,5,-1,2,15
1501875069459761,-4,-23,-22,-13,-15,-2,0,-3
1501875069459761,-5,4,0,-4,2,-7,-8,0
1501875069461732,5,-3,-13,6,-3,-2,5,10
1501875069461732,-2,4,8,-5,14,7,-1,-4
1501875069482764,1,14,-20,16,5,0,0,-14
1501875069482764,-1,-11,-19,-23,-10,-5,-2,13
1501875069483722,6,-5,-3,-23,-4,0,5,5
1501875069483722,-10,-10,11,1,-6,-5,-10,11
1501875069497782,-6,-11,-14,11,0,-1,-3,-12
1501875069497782,5,26,16,13,5,5,0,-12
1501875069498722,-2,-18,-12,-10,-1,-2,3,17
1501875069498722,4,-1,5,6,5,0,6,35
1501875069519726,-9,13,-8,0,-4,-1,-12,-52
1501875069519726,-2,-28,-2,8,1,-1,0,5
1501875069521737,0,0,1,8,11,-1,-3,-16
1501875069521737,-1,8,-1,8,-18,-2,-2,-1
1501875069542769,-3,-2,18,-7,-3,-1,-4,-15
1501875069542769,2,23,-13,-2,-1,-4,-1,3
1501875069543728,5,-9,21,1,-1,4,8,13
1501875069543728,-9,-11,-14,6,5,-3,-16,-53
1501875069556789,8,11,10,18,10,2,6,19
1501875069556789,-10,-7,-13,8,-11,-1,-5,-15
1501875069563769,0,9,11,32,1,7,7,28
1501875069563769,5,3,-43,-24,15,1,4,-31
1501875069579732,-3,7,4,-17,-3,-2,-4,-2
1501875069579732,-3,-20,25,17,5,1,-2,-8
1501875069581740,-1,13,-7,-29,-13,-7,-6,-10
1501875069581740,-3,-19,17,6,-16,-5,1,3
1501875069602801,2,4,-10,-36,16,5,7,23
1501875069602801,0,-6,-4,19,-19,-5,-4,-15
1501875069603729,-10,1,20,-16,3,-2,-11,-26
1501875069603729,6,8,3,8,7,-4,-2,-11
1501875069616793,-5,-8,-13,-3,6,0,2,22
1501875069616793,-2,5,23,-2,-6,-5,0,17
1501875069623797,-4,9,-27,23,-1,4,1,-10
1501875069623797,0,-14,-10,-41,0,-1,2,28
1501875069639764,-3,3,20,11,5,2,-1,-28
1501875069639764,-2,4,-37,-9,-29,-4,-6,-13
1501875069641750,-1,9,12,-4,34,6,-7,-24
1501875069641750,1,5,29,0,1,3,9,15
1501875069662804,1,-5,-2,6,-8,-1,-3,-7
1501875069662804,3,5,12,55,8,-4,0,12
1501875069663732,-4,1,-5,-35,-26,-5,-2,-6
1501875069663732,4,9,-3,0,8,3,5,25
1501875069676772,-10,-31,-6,7,-23,-7,-4,-5
1501875069676772,1,9,-17,-9,21,5,-6,-33
1501875069683799,3,9,50,23,-11,-3,3,19
1501875069683799,0,10,-11,12,-6,1,0,-17
1501875069699802,2,1,27,5,16,3,4,22
1501875069699802,-2,-21,-7,0,-8,-8,-7,-5
1501875069701744,4,-2,-5,1,18,5,5,0
1501875069701744,-6,-7,-18,-5,-13,-5,-11,-14
1501875069722796,0,-4,12,1,-8,-3,-4,-4
1501875069722796,7,20,-3,12,15,1,5,13
1501875069723743,-1,5,33,-21,1,4,1,6
1501875069723743,1,-20,8,21,0,-2,-1,16
1501875069736778,-6,-13,-36,-64,-16,-5,-5,-11
1501875069736778,-2,0,8,-15,-1,2,7,13
1501875069743776,4,16,-14,15,-9,-7,5,19
1501875069743776,-1,5,21,4,8,4,-7,-43
1501875069759781,5,-3,34,26,11,-1,2,13
1501875069759781,-8,-5,-46,-34,-17,2,1,-14
1501875069761757,6,3,1,-13,-12,-6,-1,14
1501875069761757,1,13,-30,-10,-8,2,10,34
1501875069782777,7,-10,-7,25,16,3,3,2
1501875069782777,-15,-9,-15,-10,-11,-2,-9,-20
1501875069783740,1,-11,-1,14,8,-1,-5,-24
1501875069783740,5,8,12,54,9,2,1,12
1501875069804781,4,5,7,-63,3,1,0,1
1501875069804781,1,18,5,7,4,3,11,33
1501875069806751,-5,-44,-27,-19,-20,-15,-17,-42
1501875069806751,-11,-25,12,2,3,-1,-2,-6
1501875069819780,8,16,12,50,4,4,8,5
1501875069819780,-1,16,14,-16,-17,-6,-1,-8
1501875069821773,-1,-8,-5,6,29,9,0,2
1501875069821773,0,1,3,-34,-8,-5,-4,-5
1501875069842811,-4,16,1,49,-5,-5,-5,-15
1501875069842811,1,-17,29,-29,1,-5,-1,-10
1501875069843751,-8,-12,-66,14,4,5,2,2
1501875069843751,-1,-4,14,-5,-12,-6,2,11
1501875069856780,-1,11,-12,-12,8,2,-2,28
1501875069856780,1,-4,-6,7,8,-2,-7,-28
1501875069863783,-3,-13,23,-7,-15,-3,1,1
1501875069863783,-1,-1,-15,-7,22,0,3,11
1501875069879744,-4,16,-14,-1,-14,-3,-2,-6
1501875069879744,5,-10,0,4,13,5,-1,13
1501875069881756,4,-1,45,-19,0,-3,-1,25
1501875069881756,-10,-12,-19,1,-5,-2,-6,-41
1501875069902808,1,8,-3,-16,-15,-4,1,-1
1501875069902808,-1,-4,33,4,-12,4,4,9
1501875069903746,1,25,-49,13,21,1,-1,12
1501875069903746,-4,-30,-11,-20,-14,-2,-2,-7
1501875069915783,0,-18,3,9,11,-4,2,-1
1501875069915783,3,3,12,-8,-15,0,-4,-3
1501875069924766,-1,19,-5,3,-12,-2,2,17
1501875069924766,4,-2,-1,-24,-4,3,-3,-18
1501875069939791,-6,-7,3,5,-5,-4,-4,15
1501875069939791,-2,-6,-29,-2,13,-1,3,5
1501875069941760,2,8,2,38,8,-1,-1,-5
1501875069941760,1,17,-1,-46,-11,-1,-1,17
1501875069961816,2,-18,33,0,-6,1,3,2
1501875069961816,1,4,-21,-10,3,-4,-2,4
1501875069978751,-4,5,35,42,-7,-1,2,2
1501875069978751,-3,-9,-34,-10,8,0,5,9
1501875069978751,-1,0,3,8,-3,3,-12,-61
1501875069978751,-2,-5,22,1,6,1,-4,0
1501875069984768,3,9,21,3,12,2,0,6
1501875069984768,-3,6,-15,1,-17,-3,0,-13
1501875069999795,-6,4,-23,-20,9,-6,0,-27
1501875069999795,-2,-18,-10,4,-6,-1,0,8
1501875070001763,-2,-1,-11,-10,-10,2,0,-44
1501875070001763,9,13,49,40,-2,-4,1,41
1501875070022817,-10,-6,-32,12,-2,-1,-3,-8
1501875070022817,-1,-4,-2,-13,7,3,2,-6
1501875070023765,-2,-1,2,-11,-6,-3,0,3
1501875070023765,4,9,2,15,2,-1,2,21
1501875070035799,1,21,1,-10,-16,-4,-2,-3
1501875070035799,-5,-30,14,3,1,1,0,-3
1501875070044765,0,-4,-23,-12,8,1,0,-13
1501875070044765,-8,-13,-25,-6,-5,-3,-8,-21
1501875070067768,0,7,24,1,-5,0,0,8
1501875070067768,-1,10,-16,-22,-9,-8,-5,-27
1501875070068764,-2,-24,-12,-22,-6,-6,-4,-5
1501875070068764,-3,1,-16,11,-3,-1,2,-4
1501875070082802,-2,-14,-4,-1,6,1,4,19
1501875070082802,5,42,14,8,-13,-5,-4,-6
1501875070083757,0,1,1,-10,9,0,3,32
1501875070083757,-2,6,2,-16,9,1,-12,-5
1501875070095796,-7,-42,-25,-24,-8,1,-1,9
1501875070095796,1,-3,-8,22,6,-3,-2,-16
1501875070104778,0,10,6,-7,-10,3,1,-3
1501875070104778,2,11,24,7,-11,1,3,1
1501875070119798,8,15,-15,15,18,4,5,21
1501875070119798,2,-4,0,-11,9,-1,-4,9
1501875070121769,-6,-25,1,19,1,-6,-5,3
1501875070121769,-1,-11,-11,-12,-17,-6,1,-4
1501875070142823,2,2,-13,-7,-2,2,3,-34
1501875070142823,-2,1,9,3,21,5,3,50
1501875070143761,6,17,26,8,-12,-6,-3,-18
1501875070143761,-2,-3,5,-9,-6,2,-2,-7
1501875070156800,-3,-10,-2,-6,-10,-3,3,17
1501875070156800,-2,3,-24,11,1,-2,-4,-23
1501875070164782,-7,-12,33,-53,-7,-2,-2,-16
1501875070164782,2,9,-22,12,6,0,-1,10
1501875070179801,-2,19,-6,-9,-7,-6,-10,-35
1501875070179801,-2,-14,-1,4,-2,4,2,25
1501875070181773,-5,-8,-46,-10,7,-2,-3,-7
1501875070181773,-1,7,39,3,-10,-4,0,-13
1501875070202802,1,-5,-5,31,2,-5,4,36
1501875070202802,-6,-17,-3,-17,-9,2,-7,-27
1501875070203766,-1,3,-13,0,-16,0,0,2
1501875070203766,2,11,18,16,26,2,0,8
1501875070215802,-1,-15,-13,-27,-9,-3,-1,6
1501875070215802,8,6,-17,10,-9,-4,12,43
1501875070224785,-12,-6,14,11,-2,-2,-12,-52
1501875070224785,2,2,5,7,2,2,1,-14
1501875070239805,3,13,36,-3,-3,1,-8,21
1501875070239805,-1,1,0,-10,5,1,2,1
1501875070241776,-6,-21,-34,-16,-3,0,5,18
1501875070241776,8,40,-14,13,10,0,4,13
1501875070262774,-9,-40,21,-12,1,0,-9,-36
1501875070262774,-1,-17,4,-16,7,1,4,11
1501875070263767,3,12,-7,29,-3,-4,2,-11
1501875070263767,-5,-23,-7,-8,-8,-2,-5,-6
1501875070275809,0,8,-16,-13,2,-4,-5,-15
1501875070275809,0,16,26,19,-13,-3,0,-13
1501875070290829,-1,-2,13,6,0,2,-4,8
1501875070290829,-1,-1,2,-6,0,-1,-1,7
1501875070299812,3,4,-5,-3,-4,-2,3,13
1501875070299812,-3,8,24,22,-10,-2,-1,-7
1501875070301782,0,-11,-17,-4,22,1,1,0
1501875070301782,-2,27,32,25,5,2,2,-13
1501875070322848,-4,-31,-42,-63,6,2,1,5
1501875070322848,-1,3,0,22,0,-3,0,9
1501875070323770,8,6,21,12,-23,0,1,1
1501875070323770,-6,-26,-40,-28,25,-1,-6,-12
1501875070344836,2,18,28,21,11,1,3,8
1501875070344836,2,29,-5,1,-3,2,2,12
1501875070346784,-4,-30,-15,-76,-7,-4,-6,-18
1501875070346784,-7,-17,-21,2,-18,-2,-1,6
1501875070359819,8,12,16,6,7,2,1,-4
1501875070359819,-2,-4,-16,-6,3,-2,-1,18
1501875070361783,0,8,7,11,-9,0,5,23
1501875070361783,4,11,-1,-2,3,0,0,1
1501875070382843,-1,6,-2,-7,-2,-1,-2,-18
1501875070382843,-9,-43,-26,-21,-20,0,-6,-6
1501875070383782,2,13,8,12,26,-2,1,14
1501875070383782,-2,-4,3,8,-8,0,-5,-24
1501875070404821,5,20,16,22,3,3,8,40
1501875070404821,-2,3,17,13,-7,-1,-8,-39
1501875070406800,-1,-16,-35,-12,-11,-4,-3,6
1501875070406800,0,17,13,36,1,-3,4,-7
1501875070419820,-3,-27,-22,-25,-13,2,1,30
1501875070419820,-2,-3,-14,-21,14,-2,-3,-29
1501875070421786,6,9,-18,30,1,1,0,10
1501875070421786,-1,6,17,-21,-25,-8,-1,7
1501875070442812,0,-5,-8,18,24,4,4,-12
1501875070442812,-4,11,-1,-3,-10,-1,3,13
1501875070443779,4,16,39,24,13,3,-4,-12
1501875070443779,4,-14,-38,-23,-2,1,9,33
1501875070464778,-10,-27,-16,-4,-18,-12,-8,-30
1501875070464778,3,5,-16,-3,5,2,-6,5
1501875070466787,-3,18,16,19,2,-1,0,-23
1501875070466787,1,7,3,1,9,-6,-7,-1
1501875070479779,-5,-17,-2,-13,6,8,4,-4
1501875070479779,-1,-1,10,14,7,1,3,6
1501875070481790,7,12,17,-13,-9,-2,1,-13
1501875070481790,-5,-21,-13,-4,-2,2,-3,-7
1501875070502853,0,21,-10,15,-9,-3,-4,-3
1501875070502853,-2,-7,7,-12,18,-2,-5,-17
1501875070503787,-1,3,16,49,-1,-1,0,15
1501875070503787,-7,-30,-18,-56,-16,0,3,1
1501875070524840,4,24,30,34,2,0,1,7
1501875070524840,-7,-15,9,-17,-7,-5,-9,-13
1501875070526793,1,23,-40,-10,19,-5,-8,0
1501875070526793,-2,-25,28,23,-6,4,-1,-14
1501875070539793,-3,-14,2,7,-7,-1,2,22
1501875070539793,6,29,3,-11,-9,-3,0,-17
1501875070545783,-7,-7,-9,-19,-1,2,-2,1
1501875070545783,-5,-20,-44,-12,0,-2,-5,-4
1501875070562834,-3,-4,8,3,-2,-4,-3,-6
1501875070562834,2,-2,0,16,-7,0,1,10
1501875070563796,0,-7,9,-15,0,2,2,9
1501875070563796,0,6,23,16,17,4,-2,3
1501875070584824,1,5,-6,1,-6,-5,2,9
1501875070584824,0,-17,-16,-22,-6,-3,0,-5
1501875070586798,-6,-30,8,29,0,-1,-1,14
1501875070586798,3,12,1,-20,3,2,7,25
1501875070599800,2,-16,-4,24,8,-2,-2,-23
1501875070599800,-12,-14,-16,-10,-10,-1,-14,-34
1501875070605848,-4,-4,-1,-30,-9,3,0,6
1501875070605848,2,8,32,58,7,-9,-4,-8
1501875070622824,-1,20,6,-10,5,4,3,-2
1501875070622824,0,-2,-17,-3,4,-1,6,21
1501875070623789,2,3,-26,9,5,0,0,2
1501875070623789,-1,-19,-11,-13,-18,-2,-1,11
1501875070644850,-13,-11,-1,-15,-12,-2,-14,-15
1501875070644850,2,7,10,-3,15,0,5,-22
1501875070646799,-4,16,15,15,-8,-2,-4,11
1501875070646799,6,11,-13,6,-8,-2,2,27
1501875070659800,-7,-19,-15,3,4,-3,-3,-2
1501875070659800,-1,-8,-6,-16,-3,1,-2,8
1501875070665836,7,8,10,1,-3,1,5,18
1501875070665836,-2,4,5,-7,3,0,-1,-7
1501875070682827,1,13,8,-9,-11,-4,-4,-3
1501875070682827,-1,5,-32,-6,5,-1,-1,7
1501875070683790,0,-3,-3,-6,-16,0,4,1
1501875070683790,-1,0,8,14,-3,-3,-3,-14
1501875070704833,-4,-6,-24,-50,7,3,-5,-21
1501875070704833,4,-6,0,15,1,-3,10,34
1501875070706801,-8,-9,-4,-11,-8,-4,-14,-42
1501875070706801,-3,-9,-14,-12,-9,-3,-5,-17
1501875070718859,2,19,21,20,14,0,2,15
1501875070718859,1,7,0,14,-2,4,2,4
1501875070725851,2,-18,-30,-26,-2,0,4,5
1501875070725851,0,13,29,-10,-6,-3,-3,-5
1501875070742838,0,4,0,21,-6,-3,-5,-15
1501875070742838,1,-2,-18,-7,6,2,1,12
1501875070743794,-4,1,19,11,7,1,3,16
1501875070743794,0,10,-21,-19,5,-1,-2,-15
1501875070764800,1,-15,-4,-16,-4,-2,1,12
1501875070764800,-3,-10,8,13,-13,-5,1,3
1501875070766809,-3,-7,10,-8,0,-2,-2,-13
1501875070766809,-2,-3,12,3,11,4,-3,-19
1501875070779816,-3,4,-19,3,-9,-8,-2,19
1501875070779816,4,5,12,8,10,4,-4,-10
1501875070785836,2,3,12,-5,6,-2,-1,-8
1501875070785836,-4,-2,-3,0,-24,-4,5,10
1501875070802866,0,-1,16,16,18,3,0,3
1501875070802866,-1,0,32,2,-1,1,-3,-31
1501875070803797,3,15,-47,-15,-16,-7,5,12
1501875070803797,-5,-26,-13,-14,7,1,-7,-28
1501875070824799,1,6,-2,-2,2,2,0,2
1501875070824799,-4,1,7,4,-1,-1,-2,7
1501875070826809,-4,-11,19,-13,-1,-2,-3,-3
1501875070826809,-2,7,-2,17,1,1,3,-13
1501875070838862,2,14,-8,-22,-8,-4,-4,-14
1501875070838862,-4,-11,7,9,7,-1,-4,10
1501875070847819,0,2,15,10,-17,-3,-2,-4
1501875070847819,-2,-10,-33,-20,21,2,1,9
1501875070862846,1,2,18,14,-6,1,3,-5
1501875070862846,-2,8,-5,-5,-12,-5,-1,1
1501875070863801,1,-22,3,8,4,4,1,9
1501875070863801,-1,6,-1,14,-6,-4,0,13
1501875070884831,4,8,2,-4,12,8,5,1
1501875070884831,0,-23,-21,-9,-13,-7,-2,16
1501875070886835,-9,-5,1,5,-2,-2,-8,-29
1501875070886835,2,8,4,-16,4,5,0,7
1501875070898814,1,-3,6,0,-16,-5,-1,0
1501875070898814,3,4,-7,-3,4,1,6,29
1501875070907814,-2,12,17,1,9,-2,-11,-22
1501875070907814,-1,-14,4,0,-1,-3,-1,-5
1501875070922879,-3,14,13,16,-6,1,0,-3
1501875070922879,1,-17,-13,-5,-1,-3,0,5
1501875070923815,-7,-7,-29,-9,3,-2,-1,-13
1501875070923815,0,2,19,11,3,1,-3,3
1501875070944843,-2,-9,-4,3,1,-5,-5,-5
1501875070944843,-2,18,16,3,-10,1,-2,-17
1501875070946811,2,9,-21,0,11,0,4,4
1501875070946811,7,15,11,-8,0,-2,2,15
1501875070958873,-9,-22,-25,-16,-10,-2,-5,-9
1501875070958873,-8,-4,11,26,-11,-3,-7,-38
1501875070967841,1,-1,3,9,12,2,4,14
1501875070967841,-1,4,-9,-3,-9,-3,-7,-2
1501875070989852,6,10,-1,-15,1,-2,1,-9
1501875070989852,-4,5,-2,0,6,-1,-3,-6
1501875070991820,1,2,15,-4,-4,1,1,2
1501875070991820,-3,-6,3,21,-1,-3,2,5
1501875071004875,-1,-7,-5,-14,-5,2,-1,-6
1501875071004875,0,-2,7,-19,-5,-1,1,15
1501875071006846,2,9,2,-7,-6,-2,2,2
1501875071006846,-5,6,-3,-10,7,-1,-9,-18
1501875071018853,-2,-31,-5,2,-10,-4,-2,11
1501875071018853,2,17,4,-2,1,0,-1,5
1501875071027832,-5,-8,-6,-10,-18,-3,-3,-3
1501875071027832,0,-6,-7,1,17,4,7,-6
1501875071042812,3,14,-1,19,13,0,2,-6
1501875071042812,-7,-11,13,-10,-6,-2,-8,-22
1501875071043812,6,10,-17,-5,-6,2,3,16
1501875071043812,-7,-26,3,4,-5,-6,-6,-4
1501875071064886,-1,6,-3,3,4,-2,0,3
1501875071064886,4,6,-10,-4,2,4,4,12
1501875071066845,-2,1,12,-3,-5,-3,-5,-14
1501875071066845,0,3,-33,-7,-4,-2,0,0
1501875071078851,-3,-16,22,12,-7,-1,-3,3
1501875071078851,-2,-1,-19,5,9,0,0,2
1501875071087829,-1,-4,1,2,-8,-2,-3,-23
1501875071087829,-1,-4,13,9,8,1,0,8
1501875071102881,-1,-2,-15,-5,1,-1,-2,3
1501875071102881,0,12,-1,-14,-10,-2,3,2
1501875071103816,8,4,0,1,-1,-1,5,20
1501875071103816,-8,-12,4,-1,-7,-1,-5,-22
1501875071124884,0,17,-7,-7,5,6,1,-7
1501875071124884,-2,-11,4,7,4,-1,-2,-6
1501875071126852,-4,-19,-30,-14,12,-1,0,4
1501875071126852,5,4,4,8,-2,-4,2,22
1501875071138824,-3,4,6,-8,-9,-2,-4,-12
1501875071138824,2,15,-5,-2,-2,0,-2,-16
1501875071147818,-1,-21,9,1,14,4,3,26
1501875071147818,1,-5,-7,-4,-7,-1,-3,3
1501875071162881,-2,-4,-13,0,10,-3,-1,21
1501875071162881,-2,-12,-1,-9,-16,-4,-7,-8
1501875071163819,-1,13,20,1,-10,1,-2,-16
1501875071163819,0,6,-3,-2,2,-2,2,3
1501875071183861,1,-7,5,-8,-12,1,6,11
1501875071183861,6,7,-9,-7,19,0,-3,11
1501875071192856,-7,-4,-20,2,4,-2,-3,-6
1501875071192856,-3,2,-4,-8,-29,-4,-4,-7
1501875071198842,2,2,-1,4,21,2,0,13
1501875071198842,2,1,-1,5,5,-2,1,-28
1501875071207834,1,-5,-3,-2,-18,-4,-1,11
1501875071207834,0,27,9,-4,28,4,1,2
1501875071222890,-1,-18,7,2,-20,-4,-3,-2
1501875071222890,-2,-5,11,-8,-2,1,2,10
1501875071223823,-5,0,-4,7,16,-2,-7,-28
1501875071223823,0,-4,1,-15,-23,-2,6,13
1501875071244886,2,15,4,3,1,1,-6,-19
1501875071244886,1,13,3,12,3,-2,-3,8
1501875071246835,-3,-9,6,-11,-16,-3,2,3
1501875071246835,0,-8,7,11,10,2,2,12
1501875071258862,-3,1,-37,-7,-15,-11,-5,-18
1501875071258862,-4,-11,2,2,14,6,1,-11
1501875071267836,1,13,-1,6,0,-1,-2,9
1501875071267836,-1,12,19,1,0,3,1,-11
1501875071282881,1,-16,13,-1,-5,2,3,-1
1501875071282881,-4,-3,7,9,-12,-8,-5,-7
1501875071283827,0,-13,-17,-20,4,2,-1,-2
1501875071283827,5,-6,7,-10,-5,-2,3,26
1501875071304898,-6,14,13,5,2,-3,-8,-25
1501875071304898,-3,2,-14,-2,-9,-4,-1,-1
1501875071306859,2,12,15,16,-7,2,4,9
1501875071306859,-2,-21,-21,-4,1,-4,-5,-23
1501875071327881,-3,-1,3,-8,-7,-2,-3,4
1501875071327881,-1,-18,-12,5,8,1,-2,0
1501875071328829,0,11,23,16,-1,0,3,12
1501875071328829,-3,-2,-14,-6,-4,-3,-4,-40
1501875071342869,1,1,21,21,5,0,2,16
1501875071342869,-3,-12,-17,-17,-2,3,-1,-13
1501875071344842,2,-1,8,1,11,3,-1,1
1501875071344842,2,-7,-3,-11,-11,1,1,7
1501875071364905,-2,1,10,-7,2,-2,1,7
1501875071364905,-3,-3,-26,-4,-11,-6,-6,-9
1501875071366863,0,1,-11,-6,1,-4,-2,6
1501875071366863,-10,-1,7,0,6,-4,-6,-39
1501875071387882,2,-3,-6,7,6,3,5,15
1501875071387882,2,16,12,6,3,4,1,7
1501875071388834,-5,-12,-9,-7,1,-2,-2,-11
1501875071388834,2,8,5,23,-7,-1,0,8
1501875071402838,-2,-3,-14,-12,-5,-3,0,13
1501875071402838,3,0,17,22,-7,-5,3,13
1501875071403846,-8,-9,-24,-30,-17,-1,-7,-35
1501875071403846,1,-2,6,6,19,-2,-4,8
1501875071424876,-1,4,-5,0,-14,-1,-2,-7
1501875071424876,-5,-12,-14,-17,15,0,4,16
1501875071426866,4,5,-2,-1,-5,-3,-4,8
1501875071426866,-2,7,-4,0,-3,-4,-6,-32
1501875071447835,-2,-7,2,-8,-2,-2,-4,-8
1501875071447835,-2,1,9,-9,-24,-5,-2,0
1501875071448835,-1,-3,-17,1,4,-1,5,16
1501875071448835,-1,5,-11,-8,6,-1,-5,4
1501875071461844,-2,4,4,9,5,-4,-3,4
1501875071461844,-1,-2,-4,-10,1,5,-1,-13
1501875071469856,0,-2,7,-19,1,-1,-3,-4
1501875071469856,-2,-13,-26,21,6,0,1,24
1501875071484900,-1,6,13,-6,-8,-2,-1,-27
1501875071484900,-2,-6,-16,4,5,0,1,7
1501875071490839,1,7,14,11,2,-1,0,-1
1501875071490839,-6,-15,-19,-32,1,1,2,9
1501875071507881,3,11,16,-1,-3,-4,0,6
1501875071507881,3,16,1,19,1,4,-1,-9
1501875071508841,-3,-37,-4,0,-12,-5,-2,-8
1501875071508841,0,3,18,10,0,-2,-1,12
1501875071521853,-1,-19,-28,-35,22,8,9,34
1501875071521853,-7,7,20,-4,-8,-3,-9,-62
1501875071528881,2,3,-7,6,-12,-3,-1,9
1501875071528881,-1,3,-3,12,20,-3,0,3
1501875071544904,1,-1,-10,0,-2,6,1,-6
1501875071544904,1,-1,0,-4,-8,-4,2,19
1501875071546873,0,24,0,6,3,-1,-1,6
1501875071546873,4,3,6,-19,-17,-1,3,24
1501875071567881,-10,-15,4,13,-6,-1,-11,-55
1501875071567881,-2,-8,-15,-11,-7,-7,-2,4
1501875071568844,-2,2,24,7,12,1,-1,-12
1501875071568844,-1,6,-13,1,-5,6,4,10
1501875071581880,-1,7,-4,5,9,-1,0,10
1501875071581880,3,2,10,-3,-7,0,3,17
1501875071588887,-1,1,-3,-4,0,-1,-3,-3
1501875071588887,-1,12,2,-5,-11,-1,2,5
1501875071604882,-4,-15,-2,-12,-7,-3,-10,-18
1501875071604882,-1,-4,3,15,17,0,-3,1
1501875071606854,-2,5,-9,5,-3,-1,1,2
1501875071606854,5,22,10,1,8,6,4,4
1501875071627882,-3,-9,-23,4,-3,-1,2,7
1501875071627882,1,-7,17,-2,7,-2,1,4
1501875071628848,-2,-11,-10,9,6,-1,0,6
1501875071628848,0,-3,-8,-10,-8,-4,-3,-10
1501875071641846,0,7,15,6,-1,0,1,10
1501875071641846,-1,-6,-19,-3,-9,-3,1,9
1501875071648911,-1,0,1,6,-7,-3,-4,-14
1501875071648911,-5,-15,5,-8,-6,-5,-4,-12
1501875071664920,4,14,2,2,0,0,1,9
1501875071664920,-1,1,-14,-11,-9,1,-1,19
1501875071666882,-5,-38,2,-9,-1,-3,-2,-9
1501875071666882,-4,-5,6,18,12,-1,-4,-6
1501875071687859,0,5,-11,-8,-8,-1,0,3
1501875071687859,2,4,7,-1,0,1,2,5
1501875071688849,1,16,-3,-7,-7,-2,-3,0
1501875071688849,-6,-21,6,9,4,0,-5,-24
1501875071701920,2,-5,-8,-10,-4,-4,3,19
1501875071701920,-2,-1,4,-7,-7,1,1,-6
1501875071708917,1,9,-12,-8,8,3,-2,-8
1501875071708917,-1,4,24,5,-10,-2,-3,3
1501875071723915,-2,4,-27,2,3,2,0,-5
1501875071723915,1,-5,22,0,1,-3,-4,0
1501875071732864,2,-6,-19,-1,1,2,1,7
1501875071732864,2,-4,-11,-2,-4,2,-1,1
1501875071747852,-2,-3,7,8,2,-3,-2,-5
1501875071747852,0,7,1,-4,-5,0,-1,4
1501875071748853,-6,0,9,0,0,-1,0,-5
1501875071748853,1,-7,7,9,-11,-4,-2,9
1501875071761890,2,2,-11,4,1,0,2,12
1501875071761890,-4,-15,10,6,8,0,-3,-18
1501875071768928,-2,8,12,-13,-9,-2,-8,-11
1501875071768928,-3,-1,-20,-14,-6,-4,0,-3
1501875071784943,0,3,-6,5,4,2,1,6
1501875071784943,-1,8,8,5,6,1,1,3
1501875071786867,-1,-6,-12,0,12,0,-1,-11
1501875071786867,2,-10,-7,-13,-23,-4,-1,9
1501875071807881,-2,-3,24,-1,1,-2,-5,-12
1501875071807881,0,-3,-38,-2,5,0,2,13
1501875071808857,1,16,10,4,-6,-2,0,-22
1501875071808857,0,1,14,-1,2,0,1,-7
1501875071820924,-3,-11,-18,1,4,-2,-1,5
1501875071820924,-2,5,-3,-8,-6,-1,0,7
1501875071829878,-2,11,5,4,-1,-4,-2,4
1501875071829878,0,-14,8,-3,15,5,2,5
1501875071844896,0,8,6,3,1,-1,-2,-18
1501875071844896,-1,0,-4,-1,0,-3,-2,-6
1501875071846893,-1,-7,1,10,-7,0,5,24
1501875071846893,0,5,-5,-15,-11,-2,-3,1
1501875071867881,0,0,8,0,10,1,1,-1
1501875071867881,-2,-4,-6,-4,-7,-2,-3,-5
1501875071868877,0,-2,4,6,-1,-3,2,4
1501875071868877,1,6,-6,1,-11,-3,1,3
1501875071880924,-2,2,0,5,4,-3,-6,0
1501875071880924,-5,-17,-34,-5,13,-1,-1,-9
1501875071889862,4,-1,10,-5,-1,4,4,0
1501875071889862,-4,-4,-3,-2,0,-4,-5,5
1501875071904925,0,4,2,-10,-11,-6,-3,-16
1501875071904925,-2,5,16,6,-6,-5,-4,-1
1501875071906894,-2,-15,0,-3,7,1,3,21
1501875071906894,2,-8,-8,8,10,0,-1,1
1501875071927881,-5,-5,-6,-11,-14,2,-3,-16
1501875071927881,0,11,18,-4,-3,-2,0,-1
1501875071928864,0,2,-6,0,-8,0,0,0
1501875071928864,-1,9,8,1,11,2,-2,-10
1501875071940930,1,-2,9,8,11,1,1,8
1501875071940930,-2,-7,-6,-6,1,-3,-5,-10
1501875071949902,0,7,-3,-7,-13,-2,-1,4
1501875071949902,-1,-8,0,6,1,2,0,-6
1501875071964923,-1,5,-19,-9,-8,-5,-5,-2
1501875071964923,0,-7,5,-3,0,0,1,3
1501875071966864,-3,-15,0,-8,-2,-5,-4,-9
1501875071966864,-2,6,-8,8,8,5,1,-5
1501875071987883,4,12,1,4,-7,-1,4,3
1501875071987883,-3,2,5,3,-3,-4,-7,-9
1501875071988868,-1,-3,-7,1,2,0,-2,0
1501875071988868,0,16,6,-5,-9,-1,-3,-7
1501875072000880,1,-20,-1,3,-3,-1,2,2
1501875072000880,0,1,0,-10,-9,-1,3,5
1501875072009909,-2,-6,2,9,18,0,-1,-1
1501875072009909,-3,-3,-3,-9,16,3,-2,-8
1501875072024939,-4,3,4,5,0,-2,0,3
1501875072024939,2,-7,-5,3,-5,0,4,28
1501875072026881,-2,-2,-5,-19,-18,-4,-10,-59
1501875072026881,3,5,-5,6,10,2,4,17
1501875072047887,-3,-13,-2,0,9,2,-3,-21
1501875072047887,-2,-2,12,0,-6,0,-1,-10
1501875072048871,-1,2,-5,2,-9,-3,1,18
1501875072048871,-3,4,-4,-5,-7,-4,-1,-5
1501875072060932,-1,-7,-3,-5,-8,-1,1,1
1501875072060932,1,9,-2,9,8,-1,1,5
1501875072069906,1,0,-3,-3,7,1,2,10
1501875072069906,-1,-2,-9,0,0,-6,-4,3
1501875072084914,-2,-6,6,-7,-2,1,1,13
1501875072084914,1,8,-5,-12,-10,-3,-3,-5
1501875072086884,1,10,4,5,-3,-1,-2,1
1501875072086884,0,3,-1,4,3,-1,4,4
1501875072107884,-8,-27,-16,-9,-4,0,-9,-21
1501875072107884,0,-2,-1,8,9,2,-3,-4
1501875072108883,0,-1,-4,2,6,1,0,3
1501875072108883,0,8,6,-2,-13,-3,-3,-1
1501875072120916,2,14,6,-3,-5,-5,5,17
1501875072120916,-3,0,10,0,6,3,-2,-20
1501875072129883,-4,-3,-4,2,3,0,1,6
1501875072129883,1,-9,-26,-3,-1,0,0,2
1501875072144937,5,-3,0,-11,-9,-1,1,10
1501875072144937,-5,-5,0,-8,3,-1,-4,-9
1501875072146911,0,5,3,0,1,0,1,-1
1501875072146911,-5,-10,-2,-3,-8,-2,-3,-7
1501875072167894,0,10,7,7,7,1,0,0
1501875072167894,1,3,-12,4,-4,-6,3,4
1501875072168885,1,-6,2,0,-1,5,1,5
1501875072168885,-2,6,-10,-2,5,-3,-2,0
1501875072180941,1,-5,9,4,-1,0,-3,-2
1501875072180941,1,14,-11,-9,-8,0,2,6
1501875072189910,1,-14,-2,2,21,-3,-3,-5
1501875072189910,-1,-3,0,0,-20,-4,0,3
1501875072204938,-2,3,2,2,2,1,-3,-17
1501875072204938,0,-4,-14,-4,4,3,0,6
1501875072206891,-1,10,5,1,-8,-1,-1,6
1501875072206891,0,-5,-1,2,9,1,-2,-2
1501875072227900,-2,0,-1,-9,-4,-4,-1,-3
1501875072227900,1,-7,11,-4,-9,-4,2,-3
1501875072228882,-3,-3,-2,-2,5,0,-1,-9
1501875072228882,0,-2,13,6,5,2,-1,11
1501875072249945,-2,-4,-32,-9,-5,-3,-1,8
1501875072249945,1,5,11,1,8,-3,-5,-5
1501875072251904,-1,-6,-8,1,-3,-3,1,4
1501875072251904,-1,6,-2,-7,-2,2,-2,-17
1501875072264925,-1,-4,8,2,-4,-1,-1,-4
1501875072264925,-5,-23,-6,1,1,2,1,2
1501875072266918,-1,2,1,-1,-3,-2,-4,-1
1501875072266918,-1,2,9,-2,-5,-3,-1,-6
1501875072287900,-1,3,1,2,3,0,1,4
1501875072287900,-2,-4,-17,-5,-2,-1,0,-3
1501875072288885,-2,0,14,6,-1,-4,-3,-1
1501875072288885,-1,-4,-6,-5,-16,-2,-2,-3
1501875072309898,1,8,10,2,9,2,1,3
1501875072309898,0,-2,8,10,4,3,2,-1
1501875072311896,1,1,-9,-8,-10,-3,0,-2
1501875072311896,-1,9,3,4,8,2,0,3
1501875072324926,0,-4,4,2,-1,1,1,-3
1501875072324926,-2,-17,-7,-5,-2,-1,-3,0
1501875072326923,1,1,-9,-7,-5,-5,-2,6
1501875072326923,-2,-11,1,7,9,3,-1,-8
1501875072347895,0,8,11,-4,1,-1,0,1
1501875072347895,0,10,-1,0,-1,0,4,6
1501875072348888,1,-8,-3,-9,-24,-3,-1,-10
1501875072348888,-1,-5,2,-2,34,-3,-5,0
1501875072369933,-1,7,-10,5,1,2,2,2
1501875072369933,-1,-4,8,1,-7,-4,-3,-3
1501875072371925,-1,4,4,0,0,4,2,2
1501875072371925,1,4,-5,-2,-9,0,5,6
1501875072383958,-2,-1,0,0,-15,-3,-3,19
1501875072383958,-1,-2,0,1,2,-6,-5,-12
1501875072390889,0,11,-6,1,12,2,0,-1
1501875072390889,-4,-15,-1,-6,-13,-1,1,-6
1501875072407966,0,2,-5,-1,3,-3,-2,1
1501875072407966,2,3,1,3,-3,2,3,3
1501875072409904,-3,-6,-2,1,5,-3,-4,-2
1501875072409904,-2,-1,-2,-5,-5,-2,-2,-3
1501875072429892,-1,-5,0,-1,-1,-1,-1,-3
1501875072429892,-2,3,6,2,-1,2,-1,-3
1501875072431907,0,-3,-2,-2,5,1,0,-3
1501875072431907,1,1,3,-3,-8,-2,2,3
1501875072443955,0,3,-7,0,0,0,-1,-10
1501875072443955,1,-3,9,4,1,0,-2,0
1501875072451931,-5,-5,-5,-1,5,-3,-1,3
1501875072451931,1,-5,0,-6,-19,-1,2,0
1501875072466894,-2,-6,-2,-5,0,-3,-1,-8
1501875072466894,-2,3,-10,-5,-1,-4,-7,0
1501875072467895,1,16,3,0,0,1,-3,1
1501875072467895,-1,-13,0,2,-2,-4,-4,-3
1501875072490932,-1,9,9,3,-1,2,2,-3
1501875072490932,-1,-11,-3,-3,-6,-1,1,-1
