timestamp,emg1,emg2,emg3,emg4,emg5,emg6,emg7,emg8
1501876916146367,38,14,58,-12,35,7,1,94
1501876916146367,-17,33,12,37,-3,-5,-22,-23
1501876916147368,-25,-83,-21,29,-10,-2,12,3
1501876916147368,37,69,-39,-43,-38,-15,-22,4
1501876916147368,-9,-41,-7,-20,-34,-1,15,-10
1501876916147368,-4,5,57,62,23,4,-5,-6
1501876916149375,-7,-4,30,-83,-31,-10,-4,17
1501876916149375,15,42,-15,76,66,23,9,15
1501876916156392,-9,-35,1,68,-21,-4,6,4
1501876916156392,34,-24,-22,-41,-50,0,2,-8
1501876916163418,-5,1,-20,0,79,11,6,-47
1501876916163418,-23,-13,19,17,-13,-9,-7,-25
1501876916174417,14,43,-6,-38,14,10,-2,-25
1501876916174417,-59,-29,-22,-38,-13,-2,3,-22
1501876916187403,-20,-38,36,19,-41,-15,-20,-19
1501876916187403,14,-1,66,30,-10,8,11,51
1501876916193438,-2,17,34,60,34,-2,0,-45
1501876916193438,12,-9,-8,-95,47,15,6,54
1501876916220421,40,33,-2,10,-5,2,4,20
1501876916220421,-43,-51,-53,25,-7,-14,-7,-2
1501876916222377,3,42,28,-18,-83,-14,-4,11
1501876916222377,8,-5,-18,22,47,5,7,14
1501876916257385,-15,-28,23,-31,-22,-25,-20,-8
1501876916257385,18,43,4,-15,47,22,16,5
1501876916258391,-7,-17,15,28,-47,-8,-10,6
1501876916258391,21,8,-64,-92,23,7,16,59
1501876916261447,-5,40,20,9,-58,-9,-9,-6
1501876916261447,-25,-25,-1,37,28,-18,-41,-98
1501876916262415,-18,27,56,-55,-31,-4,4,14
1501876916262415,-3,62,-72,-2,-3,3,0,23
1501876916268415,-5,11,40,44,-52,-13,7,21
1501876916268415,-21,-18,-31,-84,24,8,-13,-27
1501876916275424,5,36,14,-35,30,15,10,-4
1501876916275424,-7,25,48,44,14,3,3,-10
1501876916283419,6,4,-35,-8,78,3,-3,-16
1501876916283419,6,31,16,-73,-73,-12,3,32
1501876916298441,0,-17,-15,82,38,-2,2,9
1501876916298441,8,-17,12,-67,-64,-24,5,31
1501876916306420,-19,-43,-60,5,107,19,-11,-36
1501876916306420,9,-3,13,27,-33,-1,1,16
1501876916329419,1,18,51,37,16,11,4,-16
1501876916329419,-15,60,19,71,-32,-5,-4,-23
1501876916330391,-2,20,-32,-85,-48,-10,14,20
1501876916330391,-25,-89,-36,93,-4,-3,-5,0
1501876916343390,2,-30,-53,-8,6,-10,-4,-4
1501876916343390,26,62,67,9,87,9,12,66
1501876916344411,-34,-82,-29,16,-45,10,-4,-38
1501876916344411,5,8,-44,-93,50,12,18,19
1501876916367394,-33,-71,-5,57,-31,-20,-28,-60
1501876916367394,7,-12,-4,-27,-47,-2,0,-7
1501876916367394,19,57,-9,17,16,9,12,35
1501876916367394,1,-30,41,45,-38,-18,-7,-39
1501876916389447,23,38,-37,4,35,13,8,21
1501876916389447,-34,-86,1,2,-53,-24,-19,-47
1501876916390394,12,62,22,-15,8,26,23,46
1501876916390394,-18,2,9,20,-76,-7,-22,-52
1501876916403392,8,-12,-22,-36,10,3,3,12
1501876916403392,-1,-10,-12,84,-42,1,-4,-13
1501876916411424,-18,-7,22,-50,-8,-8,-1,-24
1501876916411424,21,51,36,21,42,19,25,28
1501876916427404,-15,-106,-77,-73,-43,-14,-21,-11
1501876916427404,10,6,14,14,-6,14,3,-10
1501876916427404,24,-2,0,64,17,-5,1,31
1501876916427404,-18,28,-17,7,33,1,-7,-43
1501876916449428,14,94,127,51,-32,-9,7,38
1501876916449428,-12,-9,-99,-23,35,16,-4,-27
1501876916450398,15,-12,6,1,16,-8,-5,12
1501876916450398,17,96,58,11,14,-11,5,45
1501876916463431,-5,1,-10,-13,2,9,6,5
1501876916463431,-1,-4,27,-17,56,9,-1,-30
1501876916471461,-1,39,-25,-37,-21,-8,-15,-12
1501876916471461,7,29,-7,25,3,5,14,39
1501876916487408,-4,-21,-5,-8,-40,-16,1,17
1501876916487408,8,-31,15,-25,71,8,-8,-11
1501876916487408,-6,-14,-73,-49,-27,0,-12,-28
1501876916487408,19,2,70,17,35,7,6,18
1501876916509452,-13,46,-40,-10,-32,-9,-4,-7
1501876916509452,-30,-1,-17,25,-100,-19,-10,-69
1501876916510404,5,24,52,26,104,18,12,10
1501876916510404,19,49,-2,14,-24,2,-3,6
1501876916523466,-9,21,-28,1,-31,-10,1,-7
1501876916523466,20,-23,4,20,70,12,7,46
1501876916532404,-11,-30,-2,-13,-64,-13,-18,-64
1501876916532404,-8,-23,-36,-21,11,-12,10,43
1501876916547460,-11,9,2,-4,46,9,-19,-28
1501876916547460,8,-29,52,102,-34,-17,-7,7
1501876916549392,-3,73,-36,-51,-5,3,10,-1
1501876916549392,-1,66,-83,-26,-20,-5,-2,40
1501876916569438,-12,-20,-25,-29,21,-1,-7,-64
1501876916569438,2,-21,17,-5,57,0,9,56
1501876916571394,-4,-15,68,21,-49,-6,-2,14
1501876916571394,-10,-9,-21,-58,-17,-10,-9,2
1501876916583434,8,49,-15,14,-7,4,-2,-2
1501876916583434,-8,38,-1,-32,20,4,1,-5
1501876916592412,0,-47,-4,1,-14,-3,3,15
1501876916592412,6,-4,16,-47,-72,-13,-2,4
1501876916606435,-6,-23,-17,10,63,16,5,-10
1501876916606435,7,48,-26,10,-18,2,8,17
1501876916608416,-13,-46,-24,38,-36,-1,-1,33
1501876916608416,5,-6,14,-21,6,6,4,15
1501876916629465,17,33,65,36,-75,-16,-7,-1
1501876916629465,-8,-55,-15,-5,60,10,-6,-29
1501876916631435,5,-3,28,30,1,1,2,38
1501876916631435,10,-22,-14,-62,-5,6,4,1
1501876916643470,-17,8,17,12,3,5,3,-17
1501876916643470,-4,-4,47,-35,-58,-15,2,13
1501876916652434,37,112,29,-6,33,8,-2,-15
1501876916652434,-9,-64,-51,50,23,-3,-1,-2
1501876916667401,4,-30,5,-20,59,6,13,31
1501876916667401,-4,50,-6,-2,-30,-1,-4,1
1501876916668399,14,40,22,-31,-18,1,4,-10
1501876916668399,-23,-53,-39,7,-31,-2,-7,-15
1501876916689447,19,54,40,35,62,12,6,18
1501876916689447,-21,-15,-19,-14,-29,-7,-8,-75
1501876916691425,4,-78,-17,-21,-15,-8,8,54
1501876916691425,-20,-10,39,51,22,1,-13,-57
1501876916703450,9,22,4,1,-9,2,-5,-1
1501876916703450,-9,42,-14,48,-28,-8,-2,30
1501876916712413,-2,5,11,17,35,15,13,-30
1501876916712413,22,-4,0,-31,-28,2,-3,2
1501876916727435,-11,-52,11,-25,-20,-10,0,20
1501876916727435,7,61,38,26,-1,-1,0,-26
1501876916728404,0,42,9,-79,46,6,-7,-14
1501876916728404,-5,-17,-83,17,9,0,0,-29
1501876916749442,9,-16,-24,-48,42,-3,9,6
1501876916749442,3,-84,39,-44,-12,-7,-16,5
1501876916751440,-1,42,-20,23,-32,-10,-8,-26
1501876916751440,-19,-60,21,-14,9,1,-3,-3
1501876916763450,3,15,-19,-8,-52,-4,1,25
1501876916763450,-2,-29,-53,-119,18,-8,-5,-16
1501876916772418,-18,-19,8,80,96,1,-11,-23
1501876916772418,10,48,29,34,-51,-1,2,21
1501876916787413,-15,-71,-64,-7,5,3,3,-34
1501876916787413,0,-18,7,-43,-37,-3,6,59
1501876916788407,26,32,19,58,-13,-8,0,-29
1501876916788407,-3,31,18,62,40,11,4,17
1501876916809446,-6,-36,-11,-44,-65,-5,0,4
1501876916809446,1,-8,-16,51,96,6,-2,-4
1501876916811409,1,-21,25,19,-59,-8,-1,17
1501876916811409,8,14,8,-7,22,-5,1,-1
1501876916832428,-6,41,-19,3,-40,-5,-6,8
1501876916832428,-2,15,-9,3,-8,1,-1,-44
1501876916833412,-6,-43,-14,21,-34,-5,9,44
1501876916833412,12,11,7,-23,35,7,-6,-24
1501876916847431,2,14,26,0,-2,-4,-4,0
1501876916847431,-2,-31,4,-30,-8,1,8,1
1501876916848410,-14,5,-43,-14,-79,-25,-17,14
1501876916848410,-1,10,64,45,82,16,6,7
1501876916869430,13,23,-34,-41,-17,-5,-4,7
1501876916869430,-2,10,43,94,-62,-5,1,23
1501876916871415,-4,3,-30,-78,78,8,-3,-29
1501876916871415,2,1,8,-20,-40,-11,6,29
1501876916892434,-10,-34,31,73,52,1,0,-31
1501876916892434,14,20,-34,-18,2,13,1,14
1501876916893415,-9,-14,-22,8,-50,-2,-4,-21
1501876916893415,-8,-16,-19,4,-67,-10,-5,-22
1501876916907434,16,13,20,28,113,10,17,40
1501876916907434,-3,25,8,-13,7,3,-15,-16
1501876916908416,10,21,23,63,-11,0,-4,10
1501876916908416,1,-56,-54,-95,-6,-9,3,10
1501876916929415,-6,3,-13,3,-22,-6,-10,-22
1501876916929415,18,17,34,17,0,-1,3,10
1501876916931415,-15,-40,-15,0,15,8,4,-10
1501876916931415,-9,-19,-10,4,-83,-21,-12,3
1501876916952434,22,45,-3,-21,73,23,6,-12
1501876916952434,-33,-87,-21,11,-7,-4,-9,-14
1501876916953417,5,-4,2,-11,1,4,9,-2
1501876916953417,7,64,-9,-18,-43,-9,1,41
1501876916966417,-11,-73,1,9,-17,-10,-12,-11
1501876916966417,0,40,5,68,2,-10,-5,-23
1501876916973433,-2,-34,30,-12,-5,21,10,7
1501876916973433,1,-2,-30,18,116,4,0,2
1501876916989451,6,21,11,-40,-58,-8,-3,-2
1501876916989451,-8,-35,-13,16,21,4,0,-25
1501876916991419,-6,1,-17,-12,-11,-19,-12,-5
1501876916991419,4,38,7,-48,37,7,-1,8
1501876917012431,-18,-42,36,-10,-29,5,8,14
1501876917012431,7,-9,-55,-72,-17,1,-1,-7
1501876917013421,-1,19,5,-2,33,-1,-4,6
1501876917013421,-6,-13,14,11,-64,-1,2,0
1501876917025486,8,33,-12,61,26,8,-2,-6
1501876917025486,-5,4,62,45,-54,-11,-3,-10
1501876917034420,17,-2,-13,-9,51,6,11,41
1501876917034420,-8,-11,23,19,-54,-4,-6,-14
1501876917049422,0,0,36,12,30,7,4,17
1501876917049422,-6,39,-78,-81,9,-3,-8,-39
1501876917051459,-22,1,34,16,-39,-11,-7,15
1501876917051459,1,-82,-23,5,70,2,0,-24
1501876917072440,-16,2,-20,-14,-16,-12,-14,1
1501876917072440,14,24,8,8,-15,3,4,17
1501876917073426,6,15,-28,-1,3,-3,2,-22
1501876917073426,-4,-30,-10,-30,3,13,22,34
1501876917086492,2,45,20,20,-77,-19,-21,8
1501876917086492,21,-4,-17,-20,80,19,11,44
1501876917093438,-10,-20,10,20,-20,0,-1,-28
1501876917093438,-9,-14,-12,28,46,5,-10,-30
1501876917109463,8,-38,33,49,-37,-1,9,15
1501876917109463,-5,34,-16,-38,8,-2,-2,10
1501876917111426,0,-20,10,15,-50,-1,3,6
1501876917111426,-13,-15,21,-32,22,-3,-1,0
1501876917131467,23,41,-12,-28,-79,-9,10,25
1501876917131467,-3,61,28,70,83,13,-7,-24
1501876917133458,-14,-93,11,24,-27,-13,-7,7
1501876917133458,7,34,22,-50,31,5,-5,-28
1501876917146469,-1,9,-35,-4,9,-6,-8,-10
1501876917146469,-4,-35,9,-22,-71,-7,1,-6
1501876917153496,-2,52,24,39,-37,-5,0,9
1501876917153496,7,55,-1,36,80,15,-1,-16
1501876917169471,-5,-74,-3,-30,-54,1,0,-3
1501876917169471,-5,-18,-85,-3,21,-8,-2,19
1501876917171467,19,76,32,16,36,9,6,6
1501876917171467,-32,-102,-18,-12,-66,-20,-14,-38
1501876917191499,-13,49,-28,54,30,-1,-7,1
1501876917191499,12,32,25,-53,-37,2,4,14
1501876917193438,-17,-81,22,-2,1,3,3,-7
1501876917193438,16,67,0,37,8,-1,-1,-15
1501876917206469,0,17,-10,10,41,5,4,10
1501876917206469,-4,14,18,-15,-78,-12,-9,-11
1501876917213472,6,15,-28,-10,82,4,1,6
1501876917213472,-2,16,46,22,-81,-6,0,1
1501876917228466,2,-25,-30,-89,27,7,-2,-23
1501876917228466,-3,-17,7,34,-46,-7,4,14
1501876917237445,1,5,-35,-18,96,17,5,-6
1501876917237445,-6,-3,-12,-4,-72,-20,-15,-18
1501876917252454,-8,4,24,32,53,0,-6,-4
1501876917252454,6,-30,-2,41,23,7,10,20
1501876917253466,-10,-1,-13,-100,-18,-12,-12,-13
1501876917253466,12,47,-12,17,42,11,1,15
1501876917274504,2,-13,-8,-2,-69,-13,2,8
1501876917274504,-16,-79,32,-18,54,1,-7,8
1501876917276435,0,5,-45,-2,25,-4,-12,-24
1501876917276435,9,8,45,37,-49,4,12,36
1501876917288436,-16,5,-39,-78,22,-2,-5,-11
1501876917288436,-6,-18,-17,16,-23,-11,0,-27
1501876917297438,-10,5,34,1,-58,-8,-9,-13
1501876917297438,-3,-33,-30,0,2,-3,0,11
1501876917312452,-1,33,0,37,18,-2,3,-3
1501876917312452,1,12,-23,-3,-62,-2,-7,-13
1501876917313438,7,37,-9,-49,33,0,-4,12
1501876917313438,-3,28,3,13,-36,-5,1,0
1501876917334496,2,-32,3,38,35,8,5,0
1501876917334496,3,17,32,22,38,4,2,5
1501876917336473,-5,-16,-47,-59,-81,-12,-1,-15
1501876917336473,-11,-9,-4,21,-27,-2,-9,-17
1501876917357456,20,17,13,-16,57,17,7,13
1501876917357456,-12,-8,-6,-39,-93,-16,-7,10
1501876917358442,2,-11,9,25,70,11,1,11
1501876917358442,8,16,3,-9,32,3,6,13
1501876917371479,3,6,-13,-35,12,-9,-3,2
1501876917371479,0,0,20,12,8,0,-1,-7
1501876917378511,7,15,14,33,-2,7,9,18
1501876917378511,2,11,13,-15,6,-1,3,6
1501876917394482,-5,-21,8,-27,-73,-12,-9,-23
1501876917394482,-3,25,-19,44,114,11,5,-8
1501876917396442,5,-14,-11,-39,-62,-4,3,1
1501876917396442,-9,-9,-3,-12,32,-1,-3,6
1501876917416455,-10,19,15,-11,-23,-4,-12,-10
1501876917416455,11,9,1,-24,-25,-12,-5,-29
1501876917418442,-5,-20,-59,36,16,-1,-6,-3
1501876917418442,4,26,-10,-60,0,10,4,12
1501876917431491,-3,-7,-29,39,-23,-8,3,0
1501876917431491,-10,-50,26,-14,7,-2,-4,1
1501876917433453,7,41,10,18,-16,-6,0,9
1501876917433453,2,-45,8,50,-58,-10,2,-10
1501876917454510,-5,22,-8,-2,72,14,6,10
1501876917454510,5,18,3,15,-26,0,6,30
1501876917456480,5,9,21,9,-34,2,-3,-9
1501876917456480,-1,-16,-13,66,8,-11,-2,29
1501876917476479,-9,-1,11,-24,21,13,-9,-70
1501876917476479,4,-35,-55,-43,36,11,5,19
1501876917478447,4,24,29,13,-10,-9,-5,-28
1501876917478447,-3,-31,-21,-2,12,0,-2,-10
1501876917491446,3,-5,29,11,-1,-6,5,28
1501876917491446,-13,5,6,1,6,-13,-6,1
1501876917498492,11,5,-35,-25,-53,-2,-5,0
1501876917498492,-3,30,15,-39,5,-3,5,-9
1501876917514517,8,-6,-29,37,69,14,4,26
1501876917514517,1,29,32,-20,-40,-1,-2,-29
1501876917516448,5,-60,-20,71,32,0,1,25
1501876917516448,-1,-16,15,-26,-20,-4,-4,-3
1501876917537471,-7,2,31,46,-9,-12,-10,-16
1501876917537471,13,65,15,22,-19,5,6,13
1501876917538461,-14,-51,-12,-75,0,2,-2,1
1501876917538461,-2,11,-6,1,31,7,-1,-43
1501876917551496,1,-58,0,-4,-42,3,9,23
1501876917551496,-10,14,-13,34,-4,-9,0,-4
1501876917558516,-1,7,3,-47,7,4,1,10
1501876917558516,4,-16,-9,-8,25,-7,-13,-2
1501876917574495,0,26,-7,-19,-30,3,1,3
1501876917574495,3,11,18,0,1,1,4,25
1501876917576484,-6,-54,-13,52,-54,-10,-1,33
1501876917576484,-14,-33,14,-35,34,6,-2,-48
1501876917597475,2,25,-29,59,3,0,-3,-7
1501876917597475,2,-28,-16,-77,-3,3,1,-14
1501876917598454,-3,33,41,46,-5,-2,6,12
1501876917598454,11,26,17,11,-9,3,5,15
1501876917611511,-1,-39,3,-7,-98,-10,-9,-2
1501876917611511,-9,-13,-1,37,53,9,-1,-8
1501876917618465,-9,-1,15,3,-17,-10,-7,-15
1501876917618465,17,31,-16,-7,98,15,2,29
1501876917634493,-5,-8,35,-20,-30,-5,0,-18
1501876917634493,5,-1,-3,-10,-27,-6,-2,32
1501876917636456,-2,-16,8,-6,54,-3,-6,-48
1501876917636456,-10,23,-7,12,-43,-9,-5,5
1501876917657476,6,48,21,9,-3,-2,7,-12
1501876917657476,-13,-20,-70,17,40,-17,-23,-12
1501876917658465,-9,18,35,6,47,18,10,22
1501876917658465,15,18,-17,-8,-54,-7,1,-5
1501876917671500,-9,5,28,-38,-16,-11,-14,-25
1501876917671500,0,-40,-5,17,18,9,5,9
1501876917678482,1,-5,-13,7,-9,5,2,-6
1501876917678482,-13,-17,-5,25,-9,-6,1,16
1501876917694501,11,-4,-26,-19,-12,2,3,39
1501876917694501,4,36,14,9,42,-3,0,-16
1501876917696483,-4,-21,-41,-23,16,-6,-6,10
1501876917696483,-4,5,14,2,-5,15,1,-16
1501876917717497,1,-20,-14,14,-43,-10,4,1
1501876917717497,-6,24,17,4,-29,-5,-5,0
1501876917718470,6,9,-3,-33,51,18,2,4
1501876917718470,-1,13,13,23,-61,-16,-2,-4
1501876917731527,-2,10,-11,-14,126,9,1,9
1501876917731527,0,-12,-2,-27,-44,-1,5,-20
1501876917738512,-8,23,18,21,-76,-9,-7,-30
1501876917738512,9,44,3,-5,32,8,5,11
1501876917754526,-8,-41,-39,-10,-14,0,1,11
1501876917754526,0,-9,14,-14,10,3,0,6
1501876917756464,1,9,25,10,16,2,2,-4
1501876917756464,-8,-11,-11,-14,-35,-9,-3,17
1501876917777506,-5,19,0,-8,-38,-1,-3,-29
1501876917777506,4,5,1,-1,2,1,2,6
1501876917778496,2,7,-27,-26,6,-10,-6,-40
1501876917778496,-8,-16,-13,-4,13,5,-8,18
1501876917791531,2,3,6,-37,-25,-3,-6,1
1501876917791531,-3,41,17,34,-36,1,3,3
1501876917798499,0,-21,10,8,23,4,2,17
1501876917798499,2,-23,-1,28,-27,-11,3,-4
1501876917814508,-2,31,-4,-42,90,7,-3,-14
1501876917814508,-3,-36,-16,-12,-28,7,-4,-7
1501876917816466,1,16,-13,19,45,-1,-6,-15
1501876917816466,1,-2,35,-23,-9,-2,1,5
1501876917836468,3,28,-1,21,-57,-9,-1,-6
1501876917836468,-1,-40,28,43,33,1,7,-2
1501876917838467,-7,1,4,-43,19,-12,-18,4
1501876917838467,-14,-59,-50,-63,-9,-1,-6,2
1501876917850507,6,19,15,53,-37,-5,2,10
1501876917850507,0,-19,9,-102,14,5,1,2
1501876917859468,-3,45,-11,19,-38,-5,5,18
1501876917859468,-2,-10,-4,15,0,3,-2,-55
1501876917874509,-3,-17,-17,-10,4,-1,-1,1
1501876917874509,9,43,1,-14,11,0,-1,-17
1501876917876473,-16,-55,11,77,-18,-7,-1,8
1501876917876473,2,7,-25,-3,6,3,1,25
1501876917897501,-7,-16,3,-13,1,3,3,-35
1501876917897501,-1,31,-30,12,-35,-7,-4,-22
1501876917898504,14,-17,9,4,71,1,4,16
1501876917898504,-9,-37,-32,-42,9,3,-7,5
1501876917910473,-11,-20,13,-12,-18,-8,-3,22
1501876917910473,8,-16,5,20,18,-4,0,-30
1501876917919472,10,12,23,-23,-23,1,1,1
1501876917919472,-4,27,19,20,-16,-3,-1,9
1501876917934539,1,-8,8,16,37,4,3,-12
1501876917934539,5,38,14,11,-39,-6,1,22
1501876917936473,-3,-10,-11,-29,10,7,5,-8
1501876917936473,-2,11,5,78,2,-3,-3,5
1501876917957488,1,-14,-4,-72,14,1,-7,-22
1501876917957488,-18,-47,1,16,-22,-9,-4,10
1501876917958476,5,9,-12,27,-58,-6,-3,-22
1501876917958476,3,-1,15,1,48,14,9,-3
1501876917970518,5,37,-4,20,-17,-7,-10,9
1501876917970518,-13,-37,-2,2,23,2,-3,-1
1501876917979483,1,-5,-37,-41,-55,-12,-7,25
1501876917979483,-7,-6,13,39,0,-2,6,-12
1501876917994476,16,13,0,-16,35,12,7,10
1501876917994476,-6,-21,-4,4,-22,-6,-2,-6
1501876917996478,-4,8,13,16,-15,0,0,14
1501876917996478,10,39,-3,-33,-14,-6,-5,-28
1501876918016498,2,-57,17,27,69,7,2,12
1501876918016498,-3,-9,-65,-25,-27,5,4,7
1501876918018510,4,34,1,-34,16,0,1,-9
1501876918018510,4,-31,-7,5,-15,-9,-1,35
1501876918030527,-7,12,-9,-8,9,1,-1,-12
1501876918030527,6,0,17,50,-5,1,-1,2
1501876918039480,4,15,8,-42,8,11,10,9
1501876918039480,2,-6,29,33,-96,-15,-8,-16
1501876918054540,1,-6,-12,40,41,15,8,39
1501876918054540,-2,-20,13,-17,53,3,0,15
1501876918056484,-6,11,-40,-7,-25,0,-3,-22
1501876918056484,-2,-12,-21,-18,4,-8,-7,0
1501876918076520,-8,-12,7,27,-47,-7,3,4
1501876918076520,-3,3,12,-9,-37,-5,-11,-7
1501876918078481,4,17,25,32,48,17,6,2
1501876918078481,-4,17,-9,-9,-3,-3,-2,-25
1501876918090541,-8,-24,19,-21,34,-1,0,13
1501876918090541,5,20,-1,-2,-15,-5,-3,-20
1501876918099497,3,-9,38,19,-55,-8,-1,12
1501876918099497,-11,10,-60,7,7,6,3,32
1501876918114484,-4,-32,-35,-7,-3,-2,-5,-49
1501876918114484,-2,18,16,12,19,3,-3,-3
1501876918116484,-13,-42,-11,31,-34,-3,-7,-23
1501876918116484,9,-24,23,-16,49,9,16,20
1501876918136553,-9,6,-6,8,-92,-7,-15,2
1501876918136553,5,6,7,-67,70,5,-3,0
1501876918138493,-2,2,-57,6,-23,-17,-8,-19
1501876918138493,3,13,30,13,5,4,4,12
1501876918150549,-3,9,12,-2,13,-6,1,9
1501876918150549,4,-18,-22,-15,12,4,-2,-16
1501876918159527,0,7,34,12,-10,-2,-1,19
1501876918159527,-10,-20,-20,-10,32,-7,-10,-15
1501876918174530,12,50,6,4,-19,2,6,17
1501876918174530,8,13,-3,-8,2,-4,1,31
1501876918176498,8,47,-6,-29,8,8,6,-7
1501876918176498,-9,-45,26,7,19,2,-7,-14
1501876918196512,0,-34,4,9,-50,-11,0,7
1501876918196512,-7,-9,-13,6,31,1,4,16
1501876918198521,-1,-4,-13,8,-46,-5,1,-2
1501876918198521,-8,10,-3,-29,16,3,-9,-18
1501876918210554,4,11,3,2,-9,-2,1,28
1501876918210554,-4,28,23,3,-53,-4,7,-6
1501876918227490,3,-39,-13,-21,74,6,-5,-7
1501876918227490,13,24,-15,-5,-17,-4,-1,9
1501876918234535,-7,-13,-18,-44,26,-4,-4,-3
1501876918234535,-6,11,28,28,-19,-5,-1,-8
1501876918236493,-5,19,-19,37,14,-6,-4,-17
1501876918236493,-2,-7,25,-1,-25,1,2,1
1501876918257528,9,13,-11,48,31,11,13,31
1501876918257528,-15,-4,-27,-52,-7,-6,-17,-52
1501876918258524,13,17,15,-27,-6,7,9,16
1501876918258524,-7,-14,19,33,-51,-5,-9,-5
1501876918279523,-2,16,20,-21,37,11,-1,-19
1501876918279523,5,5,-29,25,13,-1,5,18
1501876918281494,-4,-41,9,-5,8,0,0,-3
1501876918281494,-10,60,-3,4,16,-4,-4,14
1501876918294494,-4,-47,6,5,-25,-3,2,-28
1501876918294494,11,-12,-10,10,21,9,-4,-4
1501876918296495,-6,6,24,17,-12,-7,-2,4
1501876918296495,2,13,1,16,26,3,6,0
1501876918316495,2,-49,-36,4,-66,-4,1,11
1501876918316495,-1,7,6,5,19,0,1,-6
1501876918318533,2,16,14,-4,-2,1,5,9
1501876918318533,-1,-30,4,-15,2,-5,-13,-37
1501876918339539,-9,26,-1,19,6,-2,-8,-23
1501876918339539,0,-14,2,16,-52,-7,-5,-4
1501876918341497,2,-17,-9,-25,28,7,3,24
1501876918341497,-3,17,29,-15,-32,-5,4,-22
1501876918354530,0,18,-7,-6,-29,-6,-2,-13
1501876918354530,12,23,-17,-14,58,1,2,34
1501876918355498,-12,-6,16,15,-13,-6,-6,-20
1501876918355498,2,-26,-15,30,12,1,3,30
1501876918376561,-5,-18,8,-46,24,2,-1,-15
1501876918376561,-8,-27,-21,-15,-21,-3,4,-4
1501876918378531,-6,17,-5,2,15,2,-3,0
1501876918378531,11,-16,-5,14,13,0,-3,2
1501876918399500,-2,28,22,-28,-1,-3,1,5
1501876918399500,-17,-37,2,30,-96,-9,-4,-4
1501876918401500,1,-10,-1,8,104,13,2,6
1501876918401500,-3,14,-20,-18,-15,-1,4,8
1501876918414541,9,8,10,25,-4,-6,-1,-4
1501876918414541,0,-20,-1,-26,-11,4,1,30
1501876918416518,-13,-20,-29,-46,-46,-13,-9,-29
1501876918416518,4,0,6,-28,52,4,6,33
1501876918436542,-2,11,-19,-5,-2,-4,-8,-33
1501876918436542,6,32,14,-23,14,5,6,2
1501876918438512,-8,-21,-1,11,1,-8,-7,-4
1501876918438512,4,-19,2,14,-4,2,-2,-9
1501876918459545,2,10,-34,-38,-53,-11,-3,12
1501876918459545,1,-7,-12,-41,49,-1,0,1
1501876918461505,7,-4,16,21,4,5,5,21
1501876918461505,-1,17,7,-18,-14,2,2,9
1501876918473503,-4,24,2,12,10,1,-2,-31
1501876918473503,-6,-13,-3,9,-7,-4,-1,-8
1501876918480510,3,-4,-6,-18,-44,-8,-6,-4
1501876918480510,-6,-16,-2,-39,37,11,3,-13
1501876918496538,1,11,20,-3,3,-6,-1,26
1501876918496538,5,14,24,77,-3,6,6,-3
1501876918498508,-2,-13,-35,-60,-43,-3,-1,-14
1501876918498508,-7,2,8,71,-3,-15,-10,-1
1501876918519519,3,1,-26,-52,31,5,-6,-2
1501876918519519,-2,2,27,-6,2,2,-3,-22
1501876918521507,2,9,17,8,-15,4,0,4
1501876918521507,4,-16,-24,-34,-50,-10,-1,8
1501876918533519,-16,5,20,42,9,-3,-5,-47
1501876918533519,-8,-22,-17,-26,0,2,0,16
1501876918540517,0,2,-21,-16,-12,-10,-9,-25
1501876918540517,0,25,15,13,37,15,16,21
1501876918555519,11,-25,-22,14,21,-1,-11,22
1501876918555519,0,-6,4,19,31,1,-5,4
1501876918564509,-1,7,5,33,10,2,1,2
1501876918564509,-5,-14,-28,-22,-35,-4,-3,-13
1501876918579524,-10,-20,7,12,-36,-4,8,21
1501876918579524,10,54,-1,25,11,1,-2,-18
1501876918581511,-7,8,12,-16,12,-5,-2,6
1501876918581511,2,-1,7,25,35,0,-2,-24
1501876918593548,-6,7,5,-6,-60,0,7,9
1501876918593548,1,-10,-15,-50,6,-3,4,18
1501876918600513,2,-4,-18,-2,26,6,-5,-9
1501876918600513,-1,15,11,-1,-18,-4,-4,-10
1501876918616550,4,3,13,-1,-31,-5,8,56
1501876918616550,-6,2,-12,-27,2,-1,-16,-49
1501876918618545,4,17,13,-1,-8,3,0,-10
1501876918618545,-3,5,-16,-4,0,-5,-9,-17
1501876918639560,6,2,-12,-18,-15,-4,0,25
1501876918639560,-1,-3,37,45,-6,6,3,-23
1501876918641513,-6,-10,9,-21,-63,-6,3,11
1501876918641513,-5,26,-4,50,64,9,6,2
1501876918653579,1,-21,19,-1,4,3,-7,-13
1501876918653579,0,-42,-64,-46,6,-11,-5,14
1501876918660573,-3,23,23,28,-11,1,7,-2
1501876918660573,-5,-13,8,1,-30,-7,-10,14
1501876918676554,-3,-22,-23,37,50,1,-5,-12
1501876918676554,1,32,5,-6,-18,6,0,-15
1501876918678526,4,-15,1,17,23,-1,-4,12
1501876918678526,0,7,-6,-27,-80,-13,6,27
1501876918699560,6,16,18,1,92,10,-2,-36
1501876918699560,-20,-24,-21,-8,-27,-11,-5,7
1501876918700531,-5,-6,26,84,1,-7,3,-9
1501876918700531,-1,-52,-66,-45,-11,14,-2,-17
1501876918713584,6,1,4,-1,4,2,1,4
1501876918713584,7,20,18,28,3,-1,5,9
1501876918720559,-7,-10,-2,-13,-8,-8,3,27
1501876918720559,1,28,1,-18,5,-8,-15,-24
1501876918736584,-8,-14,-28,-21,7,-1,-3,-6
1501876918736584,-1,-12,7,32,-12,0,0,5
1501876918738528,16,49,24,-4,20,2,5,38
1501876918738528,-11,2,-6,-68,-21,-7,-2,-72
1501876918759579,-2,-13,8,43,26,9,3,-1
1501876918759579,-9,-7,9,-6,-12,-6,-2,5
1501876918761521,15,27,-6,14,15,2,-5,-14
1501876918761521,-2,-18,5,5,-1,-3,0,7
1501876918773532,-1,15,-2,-55,-5,2,9,-21
1501876918773532,0,8,21,46,-56,-10,-7,0
1501876918782522,-12,-31,-3,-26,29,-4,-6,8
1501876918782522,23,32,-5,-7,20,8,7,23
1501876918796522,-18,-16,-3,7,-2,-1,-1,-16
1501876918796522,3,-10,-3,15,-14,-4,4,32
1501876918798536,-10,-15,-26,-38,-6,-2,-6,-52
1501876918798536,-3,-10,37,66,16,-3,0,8
1501876918819564,6,38,-6,-31,-2,0,-7,-10
1501876918819564,7,23,2,13,-13,-3,3,8
1501876918821526,-6,-15,0,-1,-19,5,0,-3
1501876918821526,-4,-12,-5,-9,67,6,4,21
1501876918833543,2,-4,12,-6,-34,-7,3,11
1501876918833543,-6,-16,-7,-36,2,-5,-15,-17
1501876918842526,1,5,-36,23,-35,-1,1,-4
1501876918842526,-2,38,12,-9,17,3,-1,-1
1501876918857588,-5,-40,4,-22,-23,-3,-1,5
1501876918857588,-1,9,0,28,4,-2,0,-15
1501876918859561,-1,-13,-27,-12,14,3,2,0
1501876918859561,-2,7,27,38,-13,-7,-6,-14
1501876918879539,0,-11,-17,25,-15,-1,-2,19
1501876918879539,4,4,8,-49,17,8,4,1
1501876918881540,3,8,-10,-3,40,2,-3,7
1501876918881540,-7,-35,-12,50,-6,-5,3,13
1501876918893547,11,40,7,-18,-14,-2,-6,-11
1501876918893547,7,5,14,11,0,0,4,18
1501876918902545,-15,-44,8,-11,-3,-3,-2,-4
1501876918902545,-1,-2,-16,2,-13,6,5,23
1501876918916529,10,53,11,-17,-51,-10,3,-36
1501876918916529,-13,-67,-50,-80,102,3,-7,-19
1501876918918565,1,-2,26,13,-37,-1,-1,-2
1501876918918565,-2,-26,4,-25,-11,-7,-7,-25
1501876918939576,1,13,36,111,5,6,8,27
1501876918939576,-1,19,-18,-65,-48,-5,-6,-11
1501876918940545,1,4,-4,-18,7,-3,-2,-8
1501876918940545,5,-7,6,-12,10,7,4,12
1501876918953531,-9,-21,5,32,0,1,0,17
1501876918953531,-5,-7,-6,-29,11,-3,-2,-11
1501876918962537,-1,-8,-2,19,-2,-2,-3,12
1501876918962537,-3,11,-7,-10,-13,-3,1,9
1501876918976575,2,-8,-16,-34,14,-1,-1,-19
1501876918976575,7,44,19,27,-18,-4,-1,1
1501876918978556,-4,-9,7,-10,19,6,3,-1
1501876918978556,-4,-2,4,25,-15,-9,-6,-11
1501876918999581,-1,2,4,-19,11,5,5,18
1501876918999581,-6,-20,-26,12,15,-3,-2,2
1501876919000574,13,20,-9,7,-1,-2,0,28
1501876919000574,-7,-9,12,-9,-12,0,-2,-1
1501876919013557,-8,-29,-2,-3,30,-5,-6,2
1501876919013557,8,19,-14,33,-45,0,7,10
1501876919021576,-6,15,-1,-59,-15,-9,-10,-47
1501876919021576,2,11,-26,58,22,10,2,3
1501876919036537,-7,-6,-6,-19,-66,-11,-6,8
1501876919036537,-3,12,23,8,87,7,7,-9
1501876919038573,-1,19,-38,-26,3,6,-1,-5
1501876919038573,11,-25,-2,-21,-15,0,-1,0
1501876919059601,-5,-4,12,44,-13,-9,-3,0
1501876919059601,1,1,9,10,-16,5,-1,2
1501876919060539,2,-5,-19,-40,20,-5,-2,1
1501876919060539,0,16,2,-1,2,-1,1,14
1501876919073537,-8,-12,-6,36,-30,-8,-9,-22
1501876919073537,-1,-8,-19,0,9,1,-1,-1
1501876919082540,1,6,15,47,6,-2,-1,-6
1501876919082540,-2,6,0,-24,-7,0,0,0
1501876919104604,-5,-8,-14,-48,25,1,0,-8
1501876919104604,10,22,26,30,-20,1,-2,10
1501876919105554,-12,-45,-26,-26,-5,-3,-3,5
1501876919105554,7,30,15,26,5,-8,-1,-17
1501876919119583,-9,-34,-10,-39,35,12,0,16
1501876919119583,2,4,2,3,-2,3,4,-6
1501876919120555,5,10,36,43,-21,-5,-4,15
1501876919120555,-1,-9,-3,-37,-31,-1,1,-23
1501876919133549,-1,6,-10,13,31,7,3,10
1501876919133549,-4,-7,-7,19,1,-3,-6,-10
1501876919142543,2,-6,3,-28,-13,2,2,2
1501876919142543,-2,15,14,10,-6,-8,-5,0
1501876919156566,0,5,5,-5,-36,0,0,-13
1501876919156566,-9,-36,-12,-32,26,3,0,2
1501876919158554,4,20,11,23,1,0,5,-12
1501876919158554,-4,-24,-18,-45,3,2,-1,12
1501876919179603,5,-4,-16,11,-20,-3,-5,-4
1501876919179603,4,20,19,-4,-1,-3,4,28
1501876919181547,-7,12,13,30,-22,-5,-4,-30
1501876919181547,0,16,16,32,-6,3,2,13
1501876919193548,8,-7,-27,-75,21,2,4,10
1501876919193548,-15,-20,5,28,-7,-2,-6,-19
1501876919201627,7,-15,4,20,18,4,1,22
1501876919201627,-8,-20,8,-11,9,5,2,-14
1501876919216586,-10,1,-23,-9,-39,-14,-11,15
1501876919216586,-2,-6,0,32,25,0,-2,-28
1501876919218583,4,6,-24,-9,-8,0,4,26
1501876919218583,-9,0,21,-22,-2,-5,-8,-35
1501876919239588,4,-19,-13,-30,28,6,1,-6
1501876919239588,-2,-10,-12,-8,-2,-3,0,6
1501876919240550,-5,-24,-5,18,-38,-7,-3,13
1501876919240550,0,8,1,6,-6,-4,5,14
1501876919261588,0,16,17,22,30,1,-10,-41
1501876919261588,-1,0,18,5,-20,-2,-1,9
1501876919263582,-9,-2,-16,-28,10,-3,-5,-16
1501876919263582,16,-19,7,82,25,6,8,42
1501876919276615,-6,-11,-29,-84,-28,-6,-3,-3
1501876919276615,6,9,-17,-17,17,4,-2,19
1501876919278561,-4,-3,27,34,9,0,2,-13
1501876919278561,-4,0,-22,-27,39,2,-4,-9
1501876919299599,6,28,7,50,12,1,8,8
1501876919299599,1,-5,36,-10,-33,-7,-7,-38
1501876919301552,13,28,-28,5,12,4,3,39
1501876919301552,-11,-30,-40,-28,-16,-9,-11,-41
1501876919321620,6,11,24,63,14,5,4,6
1501876919321620,-2,15,4,-41,19,7,5,24
1501876919323552,-1,-21,-9,19,-2,2,0,-34
1501876919323552,-5,-3,-21,-58,-65,-11,-10,-1
1501876919336620,-3,-6,5,27,25,3,8,29
1501876919336620,5,30,-13,22,18,-4,-2,-20
1501876919342614,-8,-29,20,3,2,-5,2,23
1501876919342614,5,11,16,-1,28,7,-2,-9
1501876919359617,-6,-17,10,5,-19,-11,-9,-22
1501876919359617,8,27,-16,-15,11,4,9,27
1501876919360590,-3,-19,4,-25,-11,6,1,-21
1501876919360590,-3,-20,1,32,-22,-9,0,16
1501876919381598,0,6,-4,-66,15,7,2,9
1501876919381598,-4,-17,-23,23,-42,-8,-3,9
1501876919383556,2,38,-4,-26,9,-2,-4,-16
1501876919383556,1,4,4,3,-13,-1,-1,2
1501876919396578,-3,-8,1,24,2,0,-3,4
1501876919396578,-4,-15,-6,10,-62,-6,-2,-11
1501876919403578,-5,12,25,-44,19,-1,-3,-10
1501876919403578,1,1,-62,-21,32,3,-1,9
1501876919419570,2,-4,-8,-14,-15,2,2,-17
1501876919419570,-1,-19,28,-11,-3,-1,0,-7
1501876919425560,-2,-5,-26,15,-20,-6,-3,-1
1501876919425560,1,12,30,13,17,2,3,-8
1501876919441601,7,2,2,32,7,-4,-3,33
1501876919441601,-7,-3,-11,-36,-15,0,-4,-17
1501876919443571,5,8,18,-4,11,4,1,-8
1501876919443571,3,-1,6,11,-23,0,2,23
1501876919456576,-3,22,17,-10,46,-5,-2,-11
1501876919456576,-17,-26,-25,-19,-3,-5,-5,-7
1501876919463581,-1,-5,-1,44,16,-1,2,11
1501876919463581,-8,6,-12,-20,-18,3,-5,-29
1501876919479603,7,-9,14,7,-6,-4,2,8
1501876919479603,5,5,-15,-7,-2,1,4,6
1501876919481562,-1,-21,-9,-8,2,-5,-9,-3
1501876919481562,-3,18,12,2,9,-6,-1,-3
1501876919501633,1,12,6,-16,-23,-1,-3,-9
1501876919501633,2,0,6,9,7,4,6,13
1501876919503572,3,18,-2,-14,-23,1,2,12
1501876919503572,-9,-49,-22,-14,-13,-8,-4,-18
1501876919516564,1,-5,7,14,43,6,2,12
1501876919516564,-3,-7,-4,4,-10,-4,-4,0
1501876919523602,0,18,18,28,-30,-3,-6,-14
1501876919523602,11,15,22,-14,58,13,6,1
1501876919539610,0,-8,-35,10,-17,-6,1,14
1501876919539610,-7,-24,18,23,-11,-1,-4,-19
1501876919540598,-3,-8,-6,-5,4,-7,1,3
1501876919540598,3,19,5,-4,-7,2,-4,1
1501876919561632,0,-23,0,33,-29,3,-3,-9
1501876919561632,3,3,1,-35,35,1,-1,11
1501876919563567,-5,4,0,-8,-45,-3,0,-28
1501876919563567,-3,-10,-7,-4,9,-4,3,15
1501876919576639,4,26,6,11,-10,-4,1,11
1501876919576639,3,0,15,26,-28,-6,-3,1
1501876919582569,4,-5,-21,-17,40,8,-2,8
1501876919582569,-6,-14,1,-4,-39,2,3,-35
1501876919599584,0,37,10,-12,28,-1,-4,5
1501876919599584,9,11,-6,11,1,0,3,4
1501876919600577,-8,-28,14,-29,4,-4,0,21
1501876919600577,1,1,-21,-15,14,0,0,3
1501876919621604,-8,-24,-1,6,4,-5,-7,-12
1501876919621604,1,18,-5,-15,12,5,0,-8
1501876919623572,5,12,-9,-5,-12,1,3,-2
1501876919623572,-1,-15,13,12,-12,-5,-5,22
1501876919636645,-4,9,-4,-4,-14,-1,1,-33
1501876919636645,-3,-18,5,14,2,-5,-4,12
1501876919643595,2,-1,-19,4,-6,-1,1,12
1501876919643595,6,-7,23,39,-7,-5,4,22
1501876919659615,-7,-3,-10,-23,5,6,2,-9
1501876919659615,-5,4,-3,-17,10,3,4,0
1501876919660576,0,15,1,9,-77,-2,0,8
1501876919660576,8,22,0,-19,66,2,-4,-6
1501876919681616,-4,-27,24,47,7,-1,-2,2
1501876919681616,4,19,-16,-11,-45,-2,4,15
1501876919683585,-3,-33,-21,-20,61,10,-1,-10
1501876919683585,-2,5,6,26,-14,-2,-2,-1
1501876919704615,-1,12,1,-10,-36,-6,1,-36
1501876919704615,12,24,-6,-7,4,2,-3,17
1501876919705580,-13,-38,-10,0,-40,-11,-3,-3
1501876919705580,3,8,11,-7,24,-4,3,31
1501876919719617,-6,5,-4,-15,7,4,-2,-51
1501876919719617,0,-13,-10,17,12,1,2,13
1501876919720577,-1,11,8,9,20,3,-7,-21
1501876919720577,-2,-10,16,8,-19,2,-1,0
1501876919741618,-5,-17,-36,-12,-28,-3,0,21
1501876919741618,3,5,8,-5,5,0,1,-1
1501876919743578,1,-17,26,30,24,3,-3,-12
1501876919743578,-8,-9,-41,-91,-42,-8,-4,-10
1501876919755624,2,19,6,2,35,-5,-4,21
1501876919755624,-7,-30,-6,7,26,8,4,-23
1501876919764612,1,12,9,2,-1,0,-2,8
1501876919764612,4,6,-9,10,-37,-4,-3,-13
1501876919779579,-4,-2,-3,-5,42,5,1,17
1501876919779579,-5,-3,15,3,-16,-9,0,-3
1501876919780580,-4,13,-31,-8,-5,-4,-6,-10
1501876919780580,-7,-12,-4,26,-35,2,-2,-14
1501876919801646,7,-1,8,-14,31,5,6,30
1501876919801646,0,9,29,5,-14,-3,-6,-5
1501876919803580,0,10,-8,37,-12,-2,2,9
1501876919803580,1,-4,-5,-36,67,1,4,32
1501876919815620,-12,-14,-17,5,-71,-10,-10,-44
1501876919815620,8,41,6,35,62,14,1,11
1501876919824614,-5,-7,11,-1,-7,-3,-4,-19
1501876919824614,1,-2,15,28,-6,3,-2,-16
1501876919839619,-8,-23,-30,-10,-31,-13,-1,19
1501876919839619,-5,6,1,-21,-5,-6,-1,0
1501876919840628,10,10,17,16,12,8,3,10
1501876919840628,-10,-39,-28,-34,37,0,1,12
1501876919861650,4,18,25,-13,6,1,-2,-1
1501876919861650,-6,-23,-42,13,-49,-7,-5,-8
1501876919863597,1,28,15,-35,54,-1,3,-5
1501876919863597,-4,6,-6,22,-23,-1,1,12
1501876919875655,-4,-1,-12,-42,-1,0,-2,-28
1501876919875655,-6,-32,-8,-11,15,-6,-7,-1
1501876919884619,-5,-1,12,-9,-22,0,-1,16
1501876919884619,3,19,0,27,25,1,-2,-16
1501876919898627,5,17,0,12,2,5,3,13
1501876919898627,-2,-16,6,-2,-25,-3,2,17
1501876919906656,-3,1,-10,10,0,-4,-4,-20
1501876919906656,-3,7,11,-6,23,4,-1,-8
1501876919921625,3,-3,12,-2,-7,2,1,11
1501876919921625,3,4,-3,-4,4,1,0,-17
1501876919923598,2,-12,-24,-9,-34,-7,-1,8
1501876919923598,-1,2,-6,-2,0,0,-1,-7
1501876919935590,-3,-7,11,-9,22,-7,0,18
1501876919935590,4,35,-8,-5,2,2,-4,-15
1501876919944621,-5,-17,13,-7,-9,-5,-3,-10
1501876919944621,5,6,-5,22,-24,0,3,-1
1501876919959628,-2,-13,-2,1,10,6,4,10
1501876919959628,-2,5,4,10,-10,-4,-2,3
1501876919960592,-3,4,8,-16,2,2,-3,-20
1501876919960592,4,39,-14,25,-42,1,1,-10
1501876919981664,-2,-39,6,7,32,1,-2,12
1501876919981664,-6,-11,-1,-2,12,1,-3,-14
1501876919983603,-1,6,6,-7,-17,-4,1,0
1501876919983603,-1,12,4,7,7,0,2,1
1501876919995630,-1,-11,-4,5,-45,-8,-6,-4
1501876919995630,-1,8,-21,-27,33,1,4,7
1501876920004593,0,-19,-1,14,17,-2,0,-2
1501876920004593,-3,-8,0,-35,-43,-4,-5,-10
1501876920019635,0,6,-7,17,15,-3,-3,3
1501876920019635,-1,1,19,-12,-17,-5,-3,-1
1501876920020630,-13,8,-6,7,-20,7,0,-28
1501876920020630,8,4,3,-6,79,0,-1,5
1501876920041662,-4,7,-3,-6,-34,1,-1,-11
1501876920041662,-3,-15,4,14,-17,-4,-3,-2
1501876920043606,10,19,5,-8,-13,-1,2,25
1501876920043606,-8,-22,-10,-20,7,-6,-6,1
1501876920055637,1,17,5,25,15,5,2,1
1501876920055637,-5,-11,-16,6,-17,-4,0,-1
1501876920064628,1,-3,-13,-22,15,-4,-2,9
1501876920064628,-4,-15,8,-5,-32,-4,3,-5
1501876920079639,3,15,0,6,8,4,-4,-12
1501876920079639,-4,-19,-13,-14,0,4,-3,-9
1501876920080623,-1,23,5,-7,50,-2,-1,3
1501876920080623,-5,-33,8,15,-26,-10,-3,-1
1501876920101671,1,27,-4,-3,-26,2,0,-5
1501876920101671,-2,-8,18,13,11,-3,-3,-3
1501876920103610,0,-19,-19,2,-10,0,0,10
1501876920103610,2,-5,-4,6,4,-5,-3,-3
1501876920115641,-3,8,18,6,-7,-3,3,13
1501876920115641,-2,-7,-10,-24,26,7,4,1
1501876920124612,1,2,2,4,15,-1,-2,0
1501876920124612,0,28,-12,-11,-4,-1,-12,-6
1501876920139668,5,-17,6,6,-35,-3,-2,-1
1501876920139668,-4,10,-24,3,9,-14,-7,-10
1501876920140602,4,-10,19,17,14,9,7,17
1501876920140602,-6,2,1,0,-8,10,3,-1
1501876920161647,-1,6,-6,-6,2,-5,-3,-6
1501876920161647,4,6,12,13,-23,0,2,4
1501876920163613,1,-25,2,-10,16,-3,7,8
1501876920163613,-4,-6,-9,2,-13,-21,-14,-5
1501876920184663,4,16,-4,-8,62,29,11,5
1501876920184663,-5,-7,16,7,1,10,3,7
1501876920185604,7,-3,-4,22,-11,4,5,42
1501876920185604,2,14,22,0,27,-1,4,-31
1501876920199644,-9,-39,-24,3,-35,-19,-11,-16
1501876920199644,6,31,3,-15,-3,-3,3,16
1501876920200605,-1,1,-2,0,-20,2,-2,-31
1501876920200605,-4,-7,0,-31,28,-2,3,28
1501876920221647,3,1,7,16,2,-1,-1,-5
1501876920221647,-3,-25,-1,0,-12,-5,-2,3
1501876920223617,-2,10,3,-25,-40,6,0,0
1501876920223617,5,12,8,11,32,16,2,-9
1501876920244647,-10,-31,-17,-1,11,-8,0,12
1501876920244647,-1,-11,14,-4,-62,-9,-14,-32
1501876920245611,-11,-20,-14,6,54,-9,-5,-35
1501876920245611,4,27,-5,-14,-42,3,4,-4
1501876920259647,4,24,12,12,7,-2,-2,-7
1501876920259647,2,-3,7,8,-32,0,3,12
1501876920260616,-7,-15,-20,-31,16,3,-9,-9
1501876920260616,2,9,16,9,-16,-2,1,9
1501876920281676,-2,-14,-13,-10,-3,-3,-6,0
1501876920281676,0,-2,5,9,-7,-2,1,1
1501876920283620,4,14,-5,11,-14,-5,-3,-15
1501876920283620,-1,-3,-8,-17,-23,7,1,17
1501876920304631,-1,-24,18,-24,-10,-13,-2,-3
1501876920304631,-5,-4,-13,-9,29,5,-2,-25
1501876920305609,5,6,-20,4,1,4,-1,2
1501876920305609,-7,-13,-4,-2,-11,-14,-2,-9
1501876920318671,14,23,17,2,-52,0,0,3
1501876920318671,-11,8,-7,26,79,14,2,-7
1501876920325642,-1,-12,21,0,2,-2,1,17
1501876920325642,-1,-6,-10,40,-25,-6,-4,-10
1501876920341653,-4,39,9,-5,18,4,5,7
1501876920341653,16,26,4,3,5,-7,0,0
1501876920343624,-6,-21,-8,-12,-15,2,0,19
1501876920343624,-5,-10,24,22,17,4,-2,-14
1501876920364679,-3,-1,-13,-26,31,6,5,13
1501876920364679,0,-2,-27,-9,-14,-3,-1,10
1501876920365615,-2,22,3,7,-20,-6,-4,-29
1501876920365615,4,-7,-2,-1,-6,-5,-2,4
1501876920378679,1,7,-4,-14,9,-2,1,-13
1501876920378679,-2,-17,17,1,-7,2,-3,14
1501876920385654,-3,11,-9,-28,-51,-11,-1,-2
1501876920385654,1,4,4,-3,60,9,10,28
1501876920401684,-1,-3,8,7,2,7,-10,-24
1501876920401684,3,11,4,11,-37,-10,-4,2
1501876920403627,-5,-20,-26,-15,30,6,2,2
1501876920403627,0,3,-8,-12,-42,1,-3,5
1501876920424658,-11,-8,-6,-2,13,-21,-2,-19
1501876920424658,9,17,5,3,-8,18,0,7
1501876920425618,2,10,14,14,31,-1,1,3
1501876920425618,-4,-2,-1,9,4,1,0,-24
1501876920438681,-5,-57,-34,-24,-63,-11,-3,16
1501876920438681,-8,-8,-5,-16,84,2,0,-15
1501876920445629,3,13,-1,-19,-15,-3,1,14
1501876920445629,-3,4,-6,9,-17,-8,-7,5
1501876920461690,-3,-28,4,-9,-1,-1,1,-1
1501876920461690,-1,1,6,15,18,4,0,1
1501876920463630,-1,-10,4,10,-18,-3,1,17
1501876920463630,-6,-1,2,2,30,-2,-2,-14
1501876920484654,3,27,14,26,-18,4,-4,4
1501876920484654,-3,2,-42,-45,-13,-6,-5,-10
1501876920485622,5,21,20,26,11,-1,0,9
1501876920485622,-3,-13,-16,-26,-64,-4,-2,-28
1501876920498676,4,-14,-4,21,42,8,2,36
1501876920498676,-7,-5,12,-5,-11,-8,5,7
1501876920505663,-5,18,4,-14,15,4,-6,-16
1501876920505663,10,0,-6,2,-19,-8,4,33
1501876920521682,-3,-4,-14,-1,-4,9,-1,-30
1501876920521682,2,-14,25,-11,2,2,-2,-12
1501876920523635,-5,-18,-17,-1,-27,-7,-2,3
1501876920523635,-7,10,0,-13,20,-2,-2,-6
1501876920544682,0,-38,0,-4,-4,-6,-1,0
1501876920544682,-2,1,14,14,2,-7,-2,13
1501876920545643,-1,7,-35,15,-25,-10,-7,-40
1501876920545643,-7,-15,-15,-51,50,3,-2,20
1501876920558665,3,29,7,11,-16,5,0,3
1501876920558665,2,-7,16,29,-33,-6,-1,-20
1501876920565662,2,-5,4,-15,-6,13,9,27
1501876920565662,2,25,5,31,21,-3,0,-2
1501876920581692,2,8,-1,-13,-23,2,0,3
1501876920581692,-9,2,5,-3,39,-7,-9,-30
1501876920583644,-3,7,11,12,3,2,-4,-8
1501876920583644,-5,-41,-20,-1,-48,-1,-2,-2
1501876920604673,1,21,12,1,34,-3,4,11
1501876920604673,0,16,0,12,-32,-6,1,6
1501876920605645,4,-18,-1,-1,29,0,0,5
1501876920605645,-1,-12,19,8,3,9,1,-10
1501876920618649,-3,13,-24,0,10,-5,-5,2
1501876920618649,5,2,-19,1,-8,-6,7,47
1501876920632688,-4,-2,11,-4,23,10,2,-11
1501876920632688,-2,-9,5,19,-6,0,-5,-22
1501876920641663,-3,-2,0,-17,10,-3,-4,-23
1501876920641663,4,12,-5,-8,-27,-3,-1,-1
1501876920643630,0,-32,18,13,-54,-6,2,19
1501876920643630,4,-2,16,23,48,6,1,7
1501876920664698,-4,4,-32,-19,16,-3,-2,-4
1501876920664698,-6,-35,7,6,-42,-11,-5,3
1501876920665631,4,25,5,16,77,12,5,-5
1501876920665631,3,-32,-6,-21,-2,3,0,1
1501876920677697,0,10,16,7,-14,-8,-1,-7
1501876920677697,-1,24,-13,-29,22,12,9,19
1501876920686642,-7,-29,-7,-4,-23,-18,-18,-24
1501876920686642,-2,1,-2,1,-52,1,2,2
1501876920701696,-4,-8,12,-2,49,-2,-4,7
1501876920701696,2,14,3,-10,-28,4,-1,-1
1501876920703645,2,16,17,6,9,-4,-1,-6
1501876920703645,-2,7,-33,-30,6,-4,-3,15
1501876920724694,3,-15,10,20,-21,0,2,15
1501876920724694,-3,-2,-20,-10,1,4,1,-20
1501876920725633,0,8,-5,9,24,0,-5,-9
1501876920725633,-1,14,13,-2,-19,-5,-4,-3
1501876920737705,1,3,4,15,-19,-2,1,-2
1501876920737705,2,16,-17,-27,38,4,-3,0
1501876920746666,-7,-16,-5,5,-15,-1,1,5
1501876920746666,-3,1,5,-17,-34,-10,-5,-6
1501876920761678,5,-2,-4,1,-1,4,4,-14
1501876920761678,1,-13,22,28,-14,-4,-1,5
1501876920763637,2,1,-4,-3,41,6,2,16
1501876920763637,0,-8,-5,-27,8,4,1,-4
1501876920784648,-7,8,8,-10,-18,-9,-7,6
1501876920784648,-6,-1,-3,14,-8,-7,0,-17
1501876920785638,0,5,-5,-23,-16,5,2,10
1501876920785638,-3,-1,11,16,10,-8,-1,5
1501876920797647,2,19,-3,-6,0,5,-4,-44
1501876920797647,3,-24,-8,5,1,3,1,16
1501876920806639,-2,-16,-4,18,-34,-12,-4,6
1501876920806639,3,38,-5,-15,14,7,4,0
1501876920821642,-5,-45,-8,-12,-29,-1,2,19
1501876920821642,-7,1,-8,-11,-2,-6,-16,-66
1501876920823640,7,9,8,19,-7,-1,0,5
1501876920823640,0,-2,-4,6,-9,6,11,26
1501876920844641,-1,15,-2,13,11,-7,-12,-28
1501876920844641,-3,-16,12,11,13,4,-3,1
1501876920845658,-5,-1,0,-22,-2,4,4,1
1501876920845658,-2,9,-9,7,-1,-7,-10,-14
1501876920857702,0,12,-20,4,-45,-8,4,25
1501876920857702,6,-14,12,13,71,16,7,14
1501876920866662,2,20,-3,-13,-19,-7,-2,-11
1501876920866662,-2,-11,13,27,-23,-3,-3,3
1501876920881653,-2,-3,-12,-64,16,-8,-3,-1
1501876920881653,-1,-1,-3,2,20,2,7,27
1501876920883644,-4,-17,-2,-21,-1,-3,-4,-18
1501876920883644,13,18,11,17,21,10,7,-14
1501876920904708,0,-14,-5,10,-17,-1,-4,20
1501876920904708,-1,28,-2,10,-15,-10,-4,-18
1501876920905646,-6,-31,13,-34,-22,-7,0,-24
1501876920905646,2,2,-14,-19,21,0,11,61
1501876920917645,-4,-14,8,15,4,3,-8,-35
1501876920917645,-9,-28,-24,-21,-2,2,-1,-58
1501876920926691,-2,11,-4,17,-48,-7,-11,31
1501876920926691,2,3,1,37,26,-3,-6,-15
1501876920941690,1,-3,10,-1,-10,10,7,-11
1501876920941690,-3,-6,-2,-34,9,5,10,27
1501876920943659,-6,-5,-13,5,-20,-6,-9,-14
1501876920943659,-4,9,-28,1,32,2,-11,-42
1501876920964655,-5,1,8,10,6,-1,5,38
1501876920964655,10,17,20,14,-27,-7,-1,12
1501876920965652,-9,2,-12,-26,0,-1,3,19
1501876920965652,2,4,5,-26,-22,-7,-2,-33
1501876920986707,-4,-5,2,7,59,2,-4,-13
1501876920986707,-5,-6,7,-37,-6,-4,-8,-10
1501876920988662,-5,-15,-17,15,22,-5,-1,-3
1501876920988662,5,8,3,16,-27,0,2,13
1501876921001689,4,3,-2,-3,36,9,3,-6
1501876921001689,-6,-13,16,8,-28,-4,2,6
1501876921003650,9,23,7,10,9,-5,-3,-1
1501876921003650,-9,4,4,-6,-4,-3,-11,-26
1501876921024720,7,-18,-2,8,-29,-3,0,14
1501876921024720,-1,9,-11,15,7,7,3,-1
1501876921025658,8,12,8,13,-18,3,6,15
1501876921025658,-9,-32,-24,-34,17,-8,-4,-4
1501876921037652,-4,17,6,-7,3,-3,1,-13
1501876921037652,3,7,-13,29,-19,-6,-4,10
1501876921046686,-6,-28,9,-13,41,6,-2,-18
1501876921046686,-7,-2,-2,-12,-2,-1,-6,16
1501876921061695,3,9,-4,-24,-27,-2,6,10
1501876921061695,-7,-2,-1,17,-25,-10,-1,-4
1501876921063665,3,-12,-19,-20,-17,6,-12,-17
1501876921063665,0,7,12,14,-5,0,-2,-16
1501876921084726,-5,-4,-11,-20,-5,-5,-5,-22
1501876921084726,4,-6,-30,-14,8,-10,-1,24
1501876921085656,-2,-13,11,5,-23,0,7,-11
1501876921085656,-6,4,2,13,11,0,2,18
1501876921097693,-2,-10,-3,-4,27,4,-3,0
1501876921097693,4,26,5,-11,-30,-7,-3,7
1501876921106675,3,27,13,22,17,-3,-2,4
1501876921106675,1,-20,-19,-5,-9,5,2,-27
1501876921121717,5,0,0,3,-9,1,8,38
1501876921121717,-8,8,11,28,36,1,-14,-9
1501876921123670,0,-3,-16,-20,5,0,2,-2
1501876921123670,3,17,20,7,-45,-4,1,-5
1501876921144716,-4,-17,-5,12,-2,1,-3,2
1501876921144716,2,-6,-3,-31,4,7,3,21
1501876921145660,5,10,13,14,-19,-7,6,17
1501876921145660,-10,-19,-6,-22,43,-2,-13,-21
1501876921166660,8,28,7,37,-10,-4,-7,-6
1501876921166660,1,-33,10,0,-2,0,-1,3
1501876921168672,5,12,5,-7,5,4,10,37
1501876921168672,-10,-6,-15,-16,-14,-4,-5,-21
1501876921181702,-6,8,10,40,23,6,-4,-20
1501876921181702,-6,-22,-10,-42,-41,2,0,-4
1501876921183668,1,17,-2,0,23,-10,-6,-11
1501876921183668,1,-6,9,7,0,6,13,35
1501876921204708,-4,-35,-11,-7,8,-12,-12,-18
1501876921204708,2,3,-3,-12,-18,3,-3,-8
1501876921205663,-3,10,-3,6,33,1,-2,-7
1501876921205663,4,18,-1,0,-10,-5,-3,4
1501876921226703,-6,-8,-4,-19,-1,4,2,-3
1501876921226703,4,-2,-4,4,-5,-5,5,19
1501876921228674,-5,-3,-2,1,6,4,-4,-16
1501876921228674,-1,-12,-6,30,22,-4,-3,0
1501876921240731,6,26,1,-28,-30,-5,7,34
1501876921240731,-3,6,-4,12,27,3,-10,-40
1501876921249701,-1,-1,0,1,-3,1,1,-10
1501876921249701,0,-13,12,13,-49,-7,1,18
1501876921264707,2,14,0,28,50,6,0,-6
1501876921264707,-4,0,-14,-42,-2,-2,3,13
1501876921265667,2,11,5,-3,1,2,-2,-11
1501876921265667,7,3,-9,-10,-12,-1,-1,11
1501876921286679,-4,10,12,7,-43,-12,-2,-2
1501876921286679,10,6,-8,37,27,15,5,-3
1501876921288679,-5,-14,-9,-31,25,1,4,13
1501876921288679,-6,-10,-14,-22,-14,-8,-7,-27
1501876921301692,0,4,11,-5,-19,-1,-6,-4
1501876921301692,2,-1,10,16,-53,-12,-4,16
1501876921307706,4,-10,5,38,58,8,7,-3
1501876921307706,-3,0,8,-9,30,14,-7,-44
1501876921324739,-7,-5,-12,13,-18,-11,-4,4
1501876921324739,-4,-5,5,-2,5,4,-3,-40
1501876921325669,0,-1,-13,-4,-19,-4,-2,15
1501876921325669,2,15,16,1,-4,-3,4,16
1501876921346707,1,-21,-6,2,2,6,3,-10
1501876921346707,-9,0,-11,10,0,-11,-5,3
1501876921348669,0,-6,5,-34,-14,0,5,17
1501876921348669,0,5,1,2,23,2,-7,9
1501876921361690,-2,8,7,-12,-6,-1,2,-12
1501876921361690,0,-12,-19,0,1,0,-2,7
1501876921367719,-9,-5,-8,7,-26,-5,-3,-24
1501876921367719,-2,-20,-3,-10,-8,-11,-12,-4
1501876921384744,6,1,-5,-11,24,16,12,26
1501876921384744,-2,9,21,5,10,-7,-2,5
1501876921385673,-5,-2,-9,-1,-26,-4,-8,-26
1501876921385673,4,6,-4,-5,-14,1,5,11
1501876921406697,-2,3,13,-4,-26,-8,-1,-15
1501876921406697,-2,-12,0,45,7,-2,5,50
1501876921408673,-5,-9,-1,-60,10,-1,-14,-63
1501876921408673,-2,-3,-2,16,-8,6,4,22
1501876921421685,-1,-3,4,-11,11,4,0,-5
1501876921421685,-2,7,5,5,-11,-5,-4,-15
1501876921427716,0,26,5,-1,23,-2,0,18
1501876921427716,-5,-29,-25,8,14,-6,5,14
1501876921444715,0,-14,6,-14,-16,2,-3,-4
1501876921444715,5,-2,1,6,-34,-14,-2,6
1501876921445676,-3,-2,9,6,15,10,3,14
1501876921445676,-1,17,-5,-1,16,3,-1,-19
1501876921466713,1,-1,-12,13,11,-2,2,16
1501876921466713,1,11,10,-6,7,3,1,-9
1501876921468678,3,-11,-12,15,-30,-8,3,36
1501876921468678,-7,6,5,13,-12,3,5,-8
1501876921481694,-4,-13,-3,-11,-1,0,-14,-36
1501876921481694,-1,25,1,-29,14,1,-4,-9
1501876921487724,-3,-26,-9,12,-14,-8,-4,-9
1501876921487724,4,-5,2,-1,-6,6,9,25
1501876921504719,-3,-1,-9,16,-3,-5,2,20
1501876921504719,-2,-13,-7,-18,19,8,-2,-18
1501876921505681,4,8,2,12,-21,4,3,18
1501876921505681,2,1,9,-5,-28,-9,3,19
1501876921526741,-11,-6,-1,31,14,-4,-15,-43
1501876921526741,6,-10,6,-27,23,8,3,5
1501876921528713,1,-2,-13,9,-3,1,-1,5
1501876921528713,-5,6,11,41,-23,0,3,0
1501876921540723,6,14,3,-26,17,5,-3,-10
1501876921540723,2,7,-6,-6,-4,-3,2,21
1501876921549682,-4,-2,5,13,-6,-4,-5,-12
1501876921549682,2,-10,-4,1,11,7,1,-9
