timestamp,emg1,emg2,emg3,emg4,emg5,emg6,emg7,emg8
1501879437603201,34,119,4,69,-11,1,9,21
1501879437603201,7,36,-33,-33,4,-3,-20,-25
1501879437604201,-20,-99,14,-2,1,3,18,-71
1501879437604201,-16,-4,-4,7,6,0,5,0
1501879437627215,9,10,22,-88,-6,-3,-5,96
1501879437627215,-35,-63,-42,-72,-11,-3,-4,23
1501879437628202,12,15,-8,59,13,2,3,-14
1501879437628202,25,30,19,35,7,-2,-4,-24
1501879437629209,19,2,-40,-92,-25,-1,22,81
1501879437629209,-18,-43,-28,18,-8,-18,-40,-97
1501879437633203,24,9,46,-2,36,20,13,98
1501879437633203,-2,79,22,118,15,-8,-10,-96
1501879437648203,-26,-16,-42,-19,1,2,-15,36
1501879437648203,-7,9,32,-11,-20,0,6,13
1501879437649203,1,-1,-18,-26,-8,-5,14,-6
1501879437649203,3,61,-65,-28,1,-5,-19,-60
1501879437670204,-36,60,63,-52,5,2,3,-67
1501879437670204,60,91,13,76,8,4,8,91
1501879437672212,-47,-115,-24,-5,-17,-7,1,24
1501879437672212,9,5,70,98,-3,6,-2,-6
1501879437693207,-29,-16,-105,-70,-1,-10,-13,-63
1501879437693207,-19,17,34,39,52,9,4,6
1501879437695217,9,23,64,101,-1,6,-3,-33
1501879437695217,44,56,-60,-16,-5,8,18,102
1501879437715209,-30,-52,28,-13,-3,-6,-28,-96
1501879437715209,2,-11,24,-17,-56,-2,41,17
1501879437717223,-12,73,-4,-35,38,-2,-25,47
1501879437717223,-9,-82,-79,-27,12,-4,-15,-79
1501879437731210,32,-22,-16,-34,-17,-3,9,65
1501879437731210,-10,127,20,8,-3,-6,-14,-61
1501879437733208,7,42,4,-42,-28,1,7,31
1501879437733208,33,-16,19,56,-2,0,22,121
1501879437753212,4,-13,-8,31,21,9,4,20
1501879437753212,5,43,8,74,-6,-7,-22,-51
1501879437755215,24,-25,-71,-75,-8,0,11,72
1501879437755215,-22,-28,13,-17,13,1,-17,-81
1501879437767223,9,-15,4,-50,2,3,8,7
1501879437767223,8,-128,-19,95,-42,-12,8,47
1501879437776212,-23,-23,93,14,21,8,-3,-31
1501879437776212,16,51,-76,-39,1,-4,4,27
1501879437789215,0,55,-4,58,21,-4,4,21
1501879437789215,3,-28,7,-128,-24,-5,-14,-71
1501879437798211,-10,61,-33,-75,-33,-9,-10,-48
1501879437798211,-22,-77,-35,61,-30,-11,-8,21
1501879437813212,-18,-12,89,-5,19,5,-3,-66
1501879437813212,13,2,-37,-40,5,1,12,89
1501879437815218,-9,9,9,20,-22,-14,-16,-11
1501879437815218,14,-5,54,76,5,7,-1,-4
1501879437828283,-20,-29,-21,-83,6,7,10,-26
1501879437828283,21,-7,-10,68,6,3,6,74
1501879437834225,-3,16,19,-15,-40,-14,-5,-67
1501879437834225,-20,-24,8,-81,20,6,5,60
1501879437850234,-13,-111,5,60,-5,-11,-14,-30
1501879437850234,21,107,9,-98,27,1,-1,-25
1501879437852215,-32,-89,-25,-14,-19,6,-7,33
1501879437852215,13,33,5,-15,-9,-7,3,18
1501879437880238,15,28,17,91,7,1,10,24
1501879437880238,-32,-16,34,-98,8,2,-11,-18
1501879437882219,13,-12,-70,-62,-19,-9,-2,42
1501879437882219,-5,42,100,65,-26,2,7,-69
1501879437887221,-6,-7,-50,-19,28,-3,-9,13
1501879437887221,-6,-44,-50,-12,6,11,-2,24
1501879437902222,-14,-28,-26,23,17,-1,1,-74
1501879437902222,1,98,14,16,-2,2,-2,-2
1501879437910242,1,-12,5,27,-29,-3,4,34
1501879437910242,3,-23,-18,-1,23,1,6,-7
1501879437912219,-3,33,71,-14,26,5,1,66
1501879437912219,7,31,-74,-55,-13,-3,5,-47
1501879437933244,-11,14,43,101,2,5,2,-20
1501879437933244,18,-14,-17,-36,-26,-8,-4,6
1501879437935226,8,8,6,38,3,8,-5,-27
1501879437935226,-10,-45,18,-28,35,-4,-1,27
1501879437947220,11,7,2,52,20,-1,10,31
1501879437947220,-8,-28,-57,-54,-19,0,-10,7
1501879437954248,11,15,20,17,-16,0,7,5
1501879437954248,-4,-21,-6,-25,-8,-1,-4,-7
1501879437971241,11,24,50,36,3,-2,11,16
1501879437971241,-5,19,10,112,0,-8,-15,-21
1501879437972242,21,-57,-32,-99,-6,-10,-2,33
1501879437972242,-16,-37,43,13,3,-1,0,13
1501879437993223,-11,69,-10,-46,-23,-6,-9,-32
1501879437993223,9,4,-16,-24,-68,-1,0,4
1501879437994225,6,21,2,63,82,8,8,49
1501879437994225,-43,-9,34,26,-43,-6,-4,-75
1501879438007267,7,7,-14,-54,16,0,-10,65
1501879438007267,3,-32,10,37,37,15,14,0
1501879438014227,-1,15,8,18,-8,-6,5,6
1501879438014227,49,20,-3,3,-6,-1,-2,91
1501879438031234,-17,-57,26,-39,-17,-1,-17,-84
1501879438031234,-8,14,-47,-68,-7,-3,-3,-41
1501879438037226,14,7,13,-48,-12,-2,6,8
1501879438037226,3,10,-15,87,13,-2,7,73
1501879438053227,-4,27,13,-59,-23,-3,-8,-41
1501879438053227,-6,-24,21,11,42,8,5,-28
1501879438055227,1,8,-7,45,-8,-2,5,13
1501879438055227,-10,-7,-35,-81,-40,-6,-12,-44
1501879438067228,18,-5,77,104,-24,-1,1,5
1501879438067228,-16,-24,10,-57,35,4,1,-14
1501879438074269,2,12,-21,67,14,1,-6,-17
1501879438074269,1,37,22,-41,7,1,0,-9
1501879438090228,14,-55,-69,31,-15,-3,1,39
1501879438090228,0,21,-26,21,29,3,1,-15
1501879438092250,6,3,56,28,-26,-7,-12,-21
1501879438092250,-14,-56,-64,-27,22,1,-3,47
1501879438113229,-2,6,12,-3,-7,-2,0,-16
1501879438113229,9,1,27,93,12,5,18,67
1501879438114230,-21,-22,-68,-89,-12,0,-12,-60
1501879438114230,19,24,24,10,10,0,0,-7
1501879438127250,-10,6,-32,-45,-5,-5,-1,-6
1501879438127250,-5,0,18,27,-22,-8,-5,-23
1501879438134249,2,-5,28,-7,29,4,4,6
1501879438134249,-6,27,19,11,13,-1,-7,-23
1501879438158234,-9,-41,-20,19,11,11,4,-34
1501879438158234,42,53,56,55,-19,-7,7,99
1501879438160243,-23,-34,-36,-98,-11,-4,-5,17
1501879438160243,12,-3,8,41,-6,4,-9,-44
1501879438180234,15,30,4,4,15,0,4,37
1501879438180234,-13,6,39,-50,-1,0,-5,-21
1501879438182234,11,27,9,6,-20,-2,6,-2
1501879438182234,3,-34,-42,90,6,-2,5,31
1501879438186235,26,15,-6,-90,0,5,6,58
1501879438186235,-19,18,1,1,-5,-8,-1,-100
1501879438203236,0,-15,-28,-5,-16,-3,1,31
1501879438203236,-5,10,3,-26,11,4,-7,-45
1501879438218236,-4,-2,-3,-3,20,-1,0,-3
1501879438218236,1,-22,-14,-1,-5,1,4,25
1501879438219237,-16,11,-29,18,16,1,-16,-60
1501879438219237,12,51,31,20,-3,-2,0,25
1501879438239239,-14,-73,-22,-6,-22,-3,-2,27
1501879438239239,9,12,-20,57,15,2,3,-2
1501879438249248,-11,-5,3,26,-13,-6,-1,-21
1501879438249248,-8,-14,-21,-25,12,-7,-2,1
1501879438249248,-8,41,-12,-38,-6,3,-1,-47
1501879438249248,-8,-8,-49,80,-12,-4,0,-6
1501879438262240,25,27,93,9,16,4,14,68
1501879438262240,-11,-33,10,4,-3,0,-9,-31
1501879438270240,1,12,54,-16,8,6,1,-5
1501879438270240,-14,-16,-27,-46,-36,-6,-9,-33
1501879438272240,21,6,-65,127,17,-1,-1,4
1501879438272240,-5,-45,64,-101,-14,-7,0,20
1501879438293244,-9,-4,-36,14,-8,0,2,-17
1501879438293244,6,-1,42,-30,-2,-4,-14,12
1501879438295242,-7,5,-39,15,-8,1,-2,-13
1501879438295242,2,-7,7,-1,7,-1,2,40
1501879438306242,-9,12,-41,51,-3,-4,2,-5
1501879438306242,-1,-6,-14,-67,-11,-5,1,34
1501879438322243,-1,5,7,-1,-2,-4,-10,1
1501879438322243,3,2,-41,-8,-1,3,5,-1
1501879438330242,1,-9,-4,-8,8,-8,-16,-2
1501879438330242,-7,23,-31,26,21,3,-2,14
1501879438332257,-1,-3,68,-7,-3,-1,3,-16
1501879438332257,3,-2,-34,-86,-22,4,8,13
1501879438353246,-2,1,41,45,-88,-10,-2,8
1501879438353246,-11,-16,-11,6,109,6,-2,-37
1501879438359244,8,-14,-23,-52,-16,-2,-8,28
1501879438359244,-4,1,21,99,-7,-8,0,6
1501879438367246,1,11,-3,-60,-22,3,4,-6
1501879438367246,2,-30,10,-2,-5,-6,-8,-7
1501879438376245,-10,5,-3,47,-6,-5,-2,-16
1501879438376245,-1,-2,-19,-8,22,7,-2,-26
1501879438390245,1,25,5,-75,-7,-1,-1,19
1501879438390245,1,21,11,1,-59,-3,6,-19
1501879438392247,-12,-55,6,-13,53,5,-8,8
1501879438392247,4,0,-24,-1,-31,-5,2,35
1501879438412248,-19,-12,-21,62,38,0,-6,-48
1501879438412248,16,18,68,-38,-9,9,6,17
1501879438413248,1,11,21,-25,-22,-4,7,15
1501879438413248,-13,-2,-3,3,13,-1,-9,-38
1501879438435251,-1,13,12,42,26,-1,-3,-3
1501879438435251,0,-9,-23,-36,-18,-7,-3,-8
1501879438435251,-3,3,25,-18,3,3,-7,-21
1501879438435251,-2,-9,31,44,-6,-2,0,19
1501879438458266,3,-7,-3,-23,-10,-1,-1,-1
1501879438458266,-3,-1,-54,31,31,-3,1,1
1501879438459253,5,0,30,59,-11,2,5,56
1501879438459253,-5,14,3,-31,-15,1,-2,-45
1501879438472265,2,8,-8,-31,44,2,2,5
1501879438472265,-8,-24,42,8,-44,-1,-3,-16
1501879438473250,-7,-13,-51,-78,-8,-10,-1,10
1501879438473250,7,45,42,33,24,4,-3,-17
1501879438495256,6,-27,-33,23,-10,0,0,32
1501879438495256,-3,22,16,14,3,-3,-4,-14
1501879438495256,-9,8,-10,4,1,0,-9,-33
1501879438495256,3,-12,-3,-11,-14,3,5,10
1501879438510255,-5,-2,-33,1,12,-6,0,-6
1501879438510255,6,9,14,8,-27,-2,-2,6
1501879438511253,2,-4,-10,-12,-2,-1,1,-19
1501879438511253,-8,-32,4,1,6,-5,-5,-6
1501879438532269,6,2,16,-30,-1,0,4,10
1501879438532269,2,36,2,-9,14,1,-3,9
1501879438533267,-6,-19,-19,10,-50,-4,2,-13
1501879438533267,3,-5,-25,32,50,5,-1,7
1501879438555258,-2,-19,30,-12,-5,-3,-3,5
1501879438555258,0,0,-32,-40,-1,-2,1,21
1501879438555258,1,16,36,14,1,4,0,-12
1501879438555258,2,8,29,43,-18,1,3,19
1501879438570270,2,0,-66,-64,-11,-1,6,6
1501879438570270,-1,-26,10,19,15,-1,-13,-22
1501879438570270,-3,16,32,21,-5,-2,-1,1
1501879438570270,10,-5,20,-7,8,-5,3,9
1501879438592257,-10,-19,-6,87,19,1,5,-1
1501879438592257,4,-18,5,7,10,-1,-1,7
1501879438593259,-12,-24,-48,-54,-25,-6,-3,-2
1501879438593259,-1,-2,-26,-11,10,2,0,2
1501879438615276,4,8,20,6,2,-1,-1,-6
1501879438615276,-2,1,12,35,-11,3,4,12
1501879438616270,3,-7,18,-11,30,0,4,26
1501879438616270,-9,11,-37,-37,-24,-4,-6,-10
1501879438630260,-8,-10,-19,12,0,1,3,-25
1501879438630260,9,25,51,47,-25,-3,0,-50
1501879438631260,9,8,-31,-12,55,14,1,32
1501879438631260,-5,-21,-11,7,-7,-5,-5,13
1501879438652265,4,26,15,-6,-7,-2,-8,-4
1501879438652265,-5,-63,26,21,-6,-3,5,23
1501879438653262,-1,16,-10,4,-7,-3,2,-13
1501879438653262,-3,2,-20,-16,-4,-2,-6,-28
1501879438675265,0,-16,-27,43,-27,-3,3,48
1501879438675265,-11,7,-61,-113,4,-3,-8,-42
1501879438682266,15,23,38,69,6,-4,-4,3
1501879438682266,-6,-20,15,-11,-29,-1,0,31
1501879438691264,-1,-1,1,34,33,0,-8,-11
1501879438691264,-5,10,-24,0,-32,5,7,-16
1501879438692264,-5,-14,-13,-10,40,-3,2,8
1501879438692264,9,-27,22,61,-30,-7,-9,3
1501879438712265,-2,-1,4,-66,-18,-1,-2,0
1501879438712265,-11,-19,-26,45,31,-2,-8,11
1501879438713264,0,-8,11,6,-31,1,8,-13
1501879438713264,1,20,9,-9,10,1,8,11
1501879438735269,5,-7,-20,-1,-22,0,-5,-19
1501879438735269,3,41,-1,-32,38,-3,2,26
1501879438735269,-2,-46,-27,5,-26,-2,-5,-16
1501879438735269,-4,2,-26,5,-5,-4,-2,-19
1501879438750268,8,25,5,-20,34,6,-1,-9
1501879438750268,0,-13,22,14,-20,-1,6,71
1501879438757283,-11,5,-21,45,15,-1,-8,-51
1501879438757283,-1,3,15,-53,-19,-6,-7,-2
1501879438772282,-11,-17,-7,-3,3,0,2,-3
1501879438772282,6,6,11,19,12,-3,1,16
1501879438773268,-3,0,7,-39,-23,0,3,15
1501879438773268,-3,11,-3,6,25,5,0,-19
1501879438795269,0,-10,-18,-11,-16,-4,-4,-10
1501879438795269,-17,7,31,-13,16,-3,-5,-17
1501879438795269,3,16,31,-6,-33,-7,-7,-18
1501879438795269,5,-3,-19,46,20,1,6,7
1501879438809285,-4,-3,31,-47,-26,-2,-5,-8
1501879438809285,10,19,2,9,12,0,-5,-24
1501879438817275,-4,-9,-65,-16,7,1,4,20
1501879438817275,-6,-1,9,-8,-5,0,0,-12
1501879438832276,1,-1,7,28,7,-4,-8,12
1501879438832276,-1,5,1,13,-5,3,8,2
1501879438833274,4,29,3,1,-10,-4,-17,-12
1501879438833274,-1,-22,-39,-20,23,1,3,35
1501879438855288,-8,1,21,27,-20,-2,-6,-33
1501879438855288,2,0,-28,-27,-5,-3,-7,-10
1501879438855288,-2,-18,35,16,11,2,6,20
1501879438855288,-6,-6,-25,-33,-15,2,-1,-25
1501879438871274,-4,4,-15,-18,-5,-6,-1,-13
1501879438871274,2,6,25,11,21,3,2,43
1501879438872274,4,-16,-27,17,-1,3,6,14
1501879438872274,2,18,6,37,-9,-4,-2,-18
1501879438892279,5,-22,15,-24,-30,-4,-2,30
1501879438892279,-4,-11,-14,-25,29,3,0,-28
1501879438893276,1,6,-19,-21,-7,0,2,-6
1501879438893276,-7,13,52,3,4,-4,-6,-6
1501879438915277,-4,-19,-38,-15,-25,-7,-2,-9
1501879438915277,0,-1,-23,6,-17,-4,-5,-6
1501879438915277,4,12,9,-89,13,3,-1,10
1501879438915277,-5,-11,0,13,-17,1,1,-3
1501879438938279,0,21,29,19,51,5,4,6
1501879438938279,0,-29,-15,2,-18,-3,3,8
1501879438939279,0,13,14,3,-5,-7,-2,5
1501879438939279,2,-34,2,14,15,1,-4,7
1501879438952279,-7,9,-5,6,-2,1,-6,-11
1501879438952279,-11,-17,-12,-7,5,-4,0,-6
1501879438953279,4,12,35,9,-31,4,11,27
1501879438953279,0,22,1,-1,11,2,-13,-58
1501879438975317,-17,-47,-35,-39,8,-7,-5,6
1501879438975317,13,10,-7,-5,-23,0,-1,-8
1501879438975317,-10,-28,-4,27,-1,-3,-6,8
1501879438975317,4,21,18,-39,-16,-4,5,31
1501879438991283,3,14,16,30,39,8,3,-34
1501879438991283,-2,0,-6,9,3,2,1,7
1501879438992300,6,1,7,23,27,0,-2,0
1501879438992300,5,-9,-1,-7,-13,-1,7,36
1501879439013287,-2,24,-17,36,5,-4,-6,-13
1501879439013287,0,3,55,-20,-21,5,5,-18
1501879439013287,-5,-4,-48,-1,-3,-3,-12,-37
1501879439013287,-8,-26,-41,-67,0,-6,1,6
1501879439035284,11,24,-7,18,-18,-1,4,-6
1501879439035284,3,4,8,-18,12,-4,-2,16
1501879439035284,-2,16,6,21,1,4,2,1
1501879439035284,-4,-8,-14,-18,-17,2,-4,8
1501879439058326,-2,4,46,1,-6,-4,1,-9
1501879439058326,4,-45,-29,-30,16,0,-9,-3
1501879439059327,-7,6,12,20,-4,-3,-12,-19
1501879439059327,7,27,33,8,-24,-2,6,-1
1501879439080288,-1,-11,-69,4,38,7,10,14
1501879439080288,-8,14,-11,9,-24,-9,-14,-15
1501879439081287,6,-14,11,-14,-10,-2,2,13
1501879439081287,-2,-10,-17,2,25,0,-2,4
1501879439095307,8,7,4,56,-35,-3,4,1
1501879439095307,-17,-28,10,-2,28,-6,-8,11
1501879439095307,4,20,-57,-34,8,2,1,-6
1501879439095307,0,20,54,33,-22,-4,-3,-7
1501879439110289,2,-13,6,-14,18,4,11,42
1501879439110289,1,1,-31,-18,11,1,-1,-41
1501879439111296,-6,-3,36,-20,-21,-2,-5,-21
1501879439111296,1,-11,-31,-23,10,3,2,1
1501879439132293,-5,11,9,30,-9,-6,-5,3
1501879439132293,8,28,-22,19,5,0,8,4
1501879439133299,-15,-37,25,-21,0,-1,-8,-11
1501879439133299,0,-4,-5,12,3,-3,1,-6
1501879439163293,-1,-14,13,-24,-5,1,-4,5
1501879439163293,6,45,21,6,20,4,7,16
1501879439164291,-4,-29,-14,33,0,-3,3,4
1501879439164291,-12,-14,-26,-27,11,-7,-4,-17
1501879439170293,8,12,44,-12,9,9,-7,-6
1501879439170293,2,-6,-26,-1,-32,-4,1,-2
1501879439170293,0,30,10,7,40,4,2,10
1501879439170293,-1,-16,4,26,-27,-2,1,10
1501879439192294,-9,-21,33,11,18,-3,-4,-29
1501879439192294,4,-6,-41,-39,-4,6,3,12
1501879439193293,-1,-27,-10,18,-24,-9,4,15
1501879439193293,-7,-16,-7,25,-40,-2,-1,-4
1501879439215297,4,21,7,-37,31,3,-5,-11
1501879439215297,2,-11,-5,-13,-25,-5,-4,-3
1501879439215297,-9,1,15,-23,9,-8,-4,6
1501879439215297,5,32,15,6,6,13,1,-38
1501879439229296,-5,-34,-15,32,-30,-13,-3,4
1501879439229296,-2,2,35,9,20,15,10,-1
1501879439237297,-1,17,-16,-31,-23,-7,-11,-30
1501879439237297,5,19,49,29,40,-2,-5,21
1501879439252300,7,10,-25,-18,-17,6,9,17
1501879439252300,-11,-3,-57,-21,-25,-8,-13,-14
1501879439253298,1,1,8,25,16,-2,-7,-17
1501879439253298,1,-13,-12,-11,1,2,1,11
1501879439275297,-5,-6,-19,-17,8,-3,-5,8
1501879439275297,-1,-2,29,28,7,5,8,18
1501879439275297,-4,-14,-26,4,-17,0,-2,-33
1501879439275297,3,28,5,21,13,-2,-1,-4
1501879439290300,0,-8,7,-55,-36,-10,-8,-3
1501879439290300,-9,3,0,-10,-14,-8,0,9
1501879439297306,4,-34,33,9,41,9,9,25
1501879439297306,-4,-44,-4,28,10,-2,-3,-1
1501879439312303,-2,21,-14,-2,-9,2,3,2
1501879439312303,-4,-12,5,2,-20,-6,-4,1
1501879439313299,1,19,12,17,-4,-3,-4,-11
1501879439313299,-4,-2,6,-1,-15,-2,-4,-8
1501879439335310,2,-5,-4,3,26,6,1,-9
1501879439335310,-1,-9,12,38,-6,-5,-4,0
1501879439335310,2,17,8,-36,43,11,8,4
1501879439335310,4,-7,-38,-44,-12,1,5,34
1501879439349302,-8,28,12,22,-24,-7,-10,-45
1501879439349302,3,4,4,15,-3,6,4,6
1501879439357319,2,9,6,-24,-20,-2,1,-6
1501879439357319,-3,-13,-33,-3,15,-8,-8,25
1501879439372318,6,7,13,14,20,6,4,10
1501879439372318,-2,-6,-3,1,-21,-1,-3,-20
1501879439373304,3,3,-13,4,-6,-6,3,20
1501879439373304,1,11,3,-15,18,2,-1,-2
1501879439403306,-5,-15,-14,12,-6,-4,1,2
1501879439403306,-3,0,26,7,-3,0,-3,-8
1501879439404308,9,39,6,20,24,5,9,37
1501879439404308,-8,-28,-22,-62,-60,-6,-3,-30
1501879439409306,3,-2,12,32,69,0,-5,20
1501879439409306,-4,7,11,-43,-15,2,-2,-14
1501879439417307,-6,3,-7,6,-8,-5,-1,-25
1501879439417307,0,-11,-5,24,9,-1,-5,5
1501879439432308,3,-3,-17,-16,-17,-1,-1,-3
1501879439432308,0,-11,20,31,0,-3,1,12
1501879439433308,-7,0,-54,-17,4,-2,0,10
1501879439433308,4,7,20,11,25,0,-5,-25
1501879439455358,-2,6,-6,-35,-38,1,0,22
1501879439455358,5,3,-15,23,27,-2,-3,5
1501879439455358,-1,-28,-4,19,-8,2,4,-18
1501879439455358,-3,24,39,3,-20,-7,-5,-12
1501879439478310,-3,-15,23,-12,34,4,-4,-6
1501879439478310,2,-1,-6,-18,-48,-4,5,25
1501879439479316,-1,42,-2,-9,17,-3,-21,-35
1501879439479316,-6,-69,16,23,5,2,4,-8
1501879439492312,-2,11,-16,5,-5,-1,1,-5
1501879439492312,-4,-12,-20,-17,5,-3,-4,-8
1501879439493315,2,-6,21,-9,-19,1,4,20
1501879439493315,8,22,2,-34,9,4,6,13
1501879439515312,-9,-29,-9,39,-26,-7,-5,-18
1501879439515312,4,4,22,1,31,3,1,28
1501879439515312,-5,-4,-10,0,-20,-3,-6,-23
1501879439515312,3,38,-4,3,-10,2,-3,-10
1501879439538316,8,-15,32,-5,31,4,9,3
1501879439538316,0,4,-11,-9,6,-2,3,16
1501879439539313,-2,6,6,33,-3,1,-11,7
1501879439539313,-5,-1,20,19,-21,-3,-3,5
1501879439552314,-6,-6,-41,-39,-7,-2,-5,-27
1501879439552314,4,0,-19,-14,-3,-4,2,29
1501879439553313,-4,-11,15,5,-15,-1,1,-19
1501879439553313,-10,-3,-9,-9,30,-2,-1,6
1501879439575362,8,23,0,-20,-15,-3,0,13
1501879439575362,-11,-13,11,23,-4,-2,-1,-9
1501879439575362,-2,-12,-6,-41,-4,0,-5,-19
1501879439575362,-3,1,4,32,5,-5,-1,2
1501879439605337,-4,-12,10,-1,-20,-6,-1,0
1501879439605337,1,1,9,17,36,4,-4,-28
1501879439613317,4,20,-2,-27,-2,2,10,33
1501879439613317,-6,-37,-48,-15,-42,-6,-3,5
1501879439615318,3,10,23,-8,33,2,1,6
1501879439615318,0,9,24,1,-21,-1,-2,-8
1501879439616318,10,3,-8,25,1,-3,5,19
1501879439616318,-4,-19,-20,-16,0,0,2,-19
1501879439635322,-7,-12,7,20,-7,-2,-2,4
1501879439635322,-2,1,-52,-35,7,-1,-14,-40
1501879439635322,-1,0,29,9,-23,-2,0,20
1501879439635322,2,16,-16,3,17,-2,-2,-7
1501879439658381,2,-4,5,4,3,1,3,-2
1501879439658381,-10,-12,-4,9,20,-1,-3,16
1501879439659326,-3,-2,-10,4,1,-1,2,-6
1501879439659326,-3,17,18,-11,-5,-1,-8,-5
1501879439673357,5,7,-29,-19,-23,-5,-2,11
1501879439673357,-5,-22,-37,17,-18,-7,-3,11
1501879439674321,0,-13,-5,7,-16,-1,-2,-12
1501879439674321,8,14,28,-23,24,6,6,2
1501879439695322,0,28,-19,11,13,6,5,11
1501879439695322,9,-19,-15,-19,-15,-2,2,9
1501879439695322,-6,-12,-7,29,-11,-6,-3,-14
1501879439695322,2,8,-10,-10,17,2,1,11
1501879439718355,-6,-1,-4,21,-20,-8,-4,-9
1501879439718355,10,27,61,-14,-6,2,3,2
1501879439719350,5,-2,-49,-28,24,-1,2,3
1501879439719350,-9,-27,10,-10,-15,-5,4,11
1501879439732345,-5,-3,-2,5,12,1,-4,4
1501879439732345,0,19,13,28,0,0,-3,-6
1501879439733328,-3,-21,6,0,27,3,3,0
1501879439733328,0,20,11,1,-11,3,-8,-30
1501879439755330,-6,-32,-40,-12,-11,-5,-1,-6
1501879439755330,1,3,38,18,-8,3,2,-5
1501879439755330,0,4,4,-10,0,0,-1,-20
1501879439755330,3,-7,-25,-26,9,0,4,26
1501879439778339,-3,5,28,25,-15,-2,-4,-1
1501879439778339,3,8,-24,-12,-13,-4,0,-1
1501879439779327,-11,-11,8,-10,13,-2,0,3
1501879439779327,-1,-8,13,21,0,-1,-8,-16
1501879439792363,3,-2,-33,-21,1,3,5,8
1501879439792363,-2,2,-4,-20,-2,-7,-10,-7
1501879439793328,-2,1,19,28,-38,-1,-2,8
1501879439793328,-5,-15,5,-5,22,3,6,3
1501879439815335,11,18,-8,11,-2,-1,2,15
1501879439815335,0,-8,8,-25,17,5,6,-8
1501879439822380,-1,-11,-24,-1,-26,-4,-5,3
1501879439822380,4,9,6,12,-9,-2,0,32
1501879439845333,-1,6,11,-13,9,1,-5,-20
1501879439845333,-7,7,-5,32,-17,-4,-4,-4
1501879439846331,0,-18,27,-37,23,4,0,-14
1501879439846331,-2,-8,-43,8,-21,-3,3,33
1501879439853368,1,1,25,-8,34,2,0,-24
1501879439853368,-2,5,21,74,-27,-3,-9,-20
1501879439860356,5,-1,-35,-25,19,1,-1,15
1501879439860356,-1,13,16,4,13,1,1,2
1501879439875338,1,-14,-31,-9,-14,1,3,24
1501879439875338,-2,10,13,-15,-15,0,-1,-12
1501879439875338,3,15,-9,-13,31,-5,-4,-21
1501879439875338,5,32,6,-2,11,4,7,-4
1501879439898335,-7,-43,14,29,-34,-7,-8,12
1501879439898335,0,11,4,-37,32,4,0,-20
1501879439899334,2,-13,-2,19,-16,-6,-1,27
1501879439899334,-4,14,-6,-9,3,-4,-6,-30
1501879439912335,0,12,33,-1,5,-1,4,-2
1501879439912335,-2,-51,-33,22,-8,-5,0,32
1501879439913337,-1,5,6,-67,0,0,-6,-22
1501879439913337,-1,4,-10,-11,16,2,-10,-43
1501879439935358,-3,-1,21,15,-24,-1,1,7
1501879439935358,-8,9,-8,-11,1,-3,-3,-28
1501879439935358,-3,4,-13,16,-13,-3,1,7
1501879439935358,2,-6,31,45,7,-1,1,25
1501879439958339,-1,17,0,-33,-28,-1,-6,-16
1501879439958339,-6,-35,-25,14,30,-2,5,22
1501879439959338,-4,-1,35,4,-8,-2,-6,-19
1501879439959338,1,20,-60,-4,-30,-4,4,15
1501879439972378,0,-18,10,2,28,2,-7,-19
1501879439972378,1,6,10,13,10,1,-2,3
1501879439973339,3,24,0,-14,-40,-6,1,-9
1501879439973339,0,-24,58,58,28,6,-4,1
1501879439994378,0,15,-43,-33,-12,-1,5,5
1501879439994378,3,14,5,-23,9,-1,-1,4
1501879440002342,4,-6,12,65,4,1,0,3
1501879440002342,-10,2,-26,-68,-8,-3,0,-7
1501879440018342,-6,1,25,13,13,-6,-7,1
1501879440018342,0,-5,-27,-31,6,1,2,11
1501879440019362,-10,13,6,-5,-10,-1,-6,-36
1501879440019362,2,3,-1,17,-27,-4,5,10
1501879440032366,2,-14,-10,-1,28,-3,5,21
1501879440032366,-4,8,-12,-32,-21,-3,-5,-10
1501879440033345,-1,-14,5,18,5,3,4,-3
1501879440033345,-2,8,20,8,4,-4,-8,-25
1501879440055348,-2,-21,-31,-20,-41,-5,-1,-1
1501879440055348,-3,1,13,17,12,-4,2,23
1501879440055348,7,4,-21,1,16,4,0,21
1501879440055348,1,-21,-10,-10,-5,-1,6,20
1501879440078346,-6,33,27,9,-14,-1,-8,-39
1501879440078346,4,-2,6,-4,-3,-3,1,17
1501879440079351,-5,-14,-19,2,15,3,0,9
1501879440079351,1,-7,-36,-19,-20,-5,-2,7
1501879440100346,-7,9,46,7,26,3,9,-1
1501879440100346,-6,-22,-3,45,-2,-5,-8,-33
1501879440101346,-3,30,-12,-30,-6,0,3,24
1501879440101346,6,-20,28,-31,-4,1,-4,-8
1501879440123351,7,15,-2,14,-48,-4,1,29
1501879440123351,-6,-3,-17,-30,59,2,-9,-48
1501879440124347,5,1,8,50,-6,-3,6,13
1501879440124347,-5,13,-6,-51,4,-3,-12,-27
1501879440145348,4,-19,-42,1,21,8,3,-4
1501879440145348,-2,-4,27,26,-29,-3,1,18
1501879440146349,8,0,-1,-54,-13,-2,-1,6
1501879440146349,-6,-2,1,40,13,-3,11,24
1501879440151349,-4,-3,3,-12,1,0,-16,-88
1501879440151349,3,12,15,-12,-10,-1,-2,4
1501879440160350,1,-9,-20,39,15,5,1,-9
1501879440160350,1,16,47,-3,-3,-1,7,12
1501879440175351,-5,-21,-32,-16,18,-5,-5,12
1501879440175351,-8,-9,-24,-12,-20,1,-4,-21
1501879440175351,-4,-7,3,-16,-3,-7,-6,-5
1501879440175351,-11,-16,0,24,-14,2,-3,-14
1501879440198353,10,45,11,24,40,-3,5,19
1501879440198353,5,-7,-2,-38,-7,4,0,12
1501879440199352,-2,-16,-25,-3,-19,-4,-3,12
1501879440199352,-6,-8,-39,-19,6,-1,-3,-4
1501879440211366,-1,3,13,35,14,9,9,-2
1501879440211366,3,-6,18,-15,-6,-3,-7,-11
1501879440220353,4,20,38,-37,16,4,1,0
1501879440220353,-1,-19,-6,16,-17,-5,-6,-15
1501879440235354,-4,2,-17,-20,-18,-2,-1,7
1501879440235354,-3,-6,-15,-9,-10,-1,5,5
1501879440235354,-10,-6,17,68,17,0,-1,14
1501879440235354,7,15,-32,-81,34,-3,1,-8
1501879440258357,-3,19,8,-26,-22,-2,-7,5
1501879440258357,7,7,-20,-1,-14,1,1,13
1501879440259356,-4,-6,8,5,-14,-2,-5,-26
1501879440259356,-1,-5,-13,44,7,0,4,12
1501879440271356,4,-7,3,7,-2,0,5,23
1501879440271356,-8,-3,5,5,38,-1,-1,0
1501879440280356,-1,-9,-27,-3,-26,-1,-6,-4
1501879440280356,3,4,-8,-20,-7,-3,-3,-4
1501879440295360,-2,-14,-1,19,2,2,1,-10
1501879440295360,0,2,-2,-26,-7,-5,0,0
1501879440295360,-4,-14,2,-2,6,-2,4,14
1501879440295360,-1,1,-6,1,0,0,-4,-22
1501879440325361,4,1,-13,17,0,-6,-3,8
1501879440325361,-6,-5,29,11,6,6,6,13
1501879440326360,-2,5,13,-8,14,-2,-1,-6
1501879440326360,7,11,-5,-3,-23,-1,3,15
1501879440331361,7,-9,2,52,-34,-2,-1,-18
1501879440331361,-6,-6,9,-8,47,6,-3,-11
1501879440340360,-3,-5,-25,-21,0,0,-4,-3
1501879440340360,5,8,21,11,-8,0,4,18
1501879440355364,-4,-21,14,-13,-4,-4,-3,8
1501879440355364,-2,-5,-18,21,-23,-2,0,-29
1501879440355364,0,-6,-28,-11,-9,-2,4,21
1501879440355364,-6,0,9,12,16,1,-6,-3
1501879440378377,1,4,29,13,9,-3,-2,0
1501879440378377,10,37,-29,-13,-22,-1,6,17
1501879440378377,-8,-9,21,11,-3,-6,-7,-21
1501879440378377,2,1,-18,-7,6,2,3,9
1501879440391363,-9,12,-1,-20,5,-2,-4,-44
1501879440391363,7,-1,24,48,-21,-5,-1,17
1501879440400364,-12,-8,12,-51,-8,-2,-10,-26
1501879440400364,-2,-13,-6,-34,7,2,4,17
1501879440423406,-7,-12,-1,-18,13,-6,-7,-16
1501879440423406,5,24,-1,5,-4,1,-1,5
1501879440423406,4,12,13,14,-12,0,1,-7
1501879440423406,-2,-3,19,40,-8,-3,-2,-2
1501879440438366,2,17,10,-38,5,1,0,1
1501879440438366,-18,-21,-34,8,-17,-8,-1,4
1501879440439365,9,-14,28,-11,36,5,-1,12
1501879440439365,-9,-15,-7,7,-20,-1,-9,-23
1501879440451403,2,1,-15,-2,9,2,3,33
1501879440451403,1,1,5,12,7,2,-1,-38
1501879440467368,-7,-1,-9,-2,-22,-3,3,2
1501879440467368,1,-16,6,14,9,-3,-9,-7
1501879440475373,3,-8,-5,-11,-22,2,3,25
1501879440475373,-8,-6,11,-18,23,2,-3,-20
1501879440475373,3,15,-23,1,-18,-1,6,18
1501879440475373,1,6,8,1,13,-2,-5,-16
1501879440498390,-5,-10,-15,16,-10,-2,-4,6
1501879440498390,9,-4,-11,-9,-19,-5,-4,-1
1501879440498390,-4,-7,0,10,12,4,3,-4
1501879440498390,14,23,34,20,8,1,9,30
1501879440520397,-15,-28,-38,-33,-14,-5,-6,-29
1501879440520397,-2,6,11,-2,-9,-3,1,14
1501879440521370,2,-26,9,15,-4,-4,-1,2
1501879440521370,-3,3,-10,27,12,1,-1,-4
1501879440535371,3,8,-4,-33,-30,2,7,20
1501879440535371,1,-1,1,13,40,-2,-7,3
1501879440535371,4,47,-5,-13,20,3,-3,-9
1501879440535371,-10,-34,4,-40,-53,-6,0,5
1501879440558427,-1,-2,-2,24,57,10,-1,-14
1501879440558427,-2,-11,-30,6,-26,-6,-3,6
1501879440558427,5,15,31,10,9,0,7,47
1501879440558427,-1,4,-11,14,-8,-3,-3,-37
1501879440580381,1,-7,8,-5,-22,-7,-1,8
1501879440580381,-8,-19,-18,9,46,-1,-1,-9
1501879440581374,-5,-21,-35,-57,-18,-3,-4,-10
1501879440581374,0,6,-5,-24,5,3,0,-15
1501879440594375,-2,7,13,30,2,-2,3,24
1501879440594375,1,6,9,15,-8,2,-5,28
1501879440602381,1,-8,-19,-26,-7,-5,-6,-23
1501879440602381,-12,1,-26,-4,-16,-6,-5,-29
1501879440617438,9,0,21,-5,19,6,2,2
1501879440617438,-7,-4,8,-5,-12,1,6,5
1501879440625399,-8,-1,-21,33,-1,0,-3,11
1501879440625399,10,9,20,6,12,5,1,18
1501879440640398,1,2,-13,3,-26,-7,-2,-20
1501879440640398,1,-7,6,-25,40,9,2,0
1501879440641377,-1,7,14,25,-12,-1,-2,-36
1501879440641377,-3,1,14,26,16,0,-4,-13
1501879440655387,-2,-5,-31,-40,-22,-1,2,8
1501879440655387,2,-16,3,-6,-20,-4,-1,9
1501879440655387,2,16,7,7,15,-2,0,-1
1501879440655387,-2,-6,-15,-16,0,2,-4,7
1501879440679381,2,10,6,15,18,1,2,48
1501879440679381,1,8,18,-1,-30,-2,-5,-35
1501879440679381,0,-3,11,12,7,-1,-1,4
1501879440679381,2,0,-15,1,-6,0,6,20
1501879440700383,-9,-5,12,5,18,2,-6,-39
1501879440700383,-1,10,-12,-11,-34,-4,-1,-3
1501879440701385,1,-14,21,-11,-10,0,1,-2
1501879440701385,4,-11,-10,13,27,2,4,14
1501879440714383,-9,-30,-14,-11,-8,-8,-6,4
1501879440714383,2,8,-16,-11,-34,0,2,13
1501879440715382,-3,-22,15,15,39,0,-5,-22
1501879440715382,-1,9,-17,-8,-15,-4,-2,-5
1501879440745406,2,1,37,28,1,3,-6,-6
1501879440745406,-1,2,6,-25,15,-2,0,-13
1501879440746384,0,10,-22,-1,-13,-3,0,7
1501879440746384,-5,-9,4,18,6,-5,-6,-33
1501879440760403,3,15,4,-27,-17,2,3,-11
1501879440760403,3,-3,-5,2,10,0,6,31
1501879440761386,8,19,-24,3,-22,-2,-3,5
1501879440761386,-12,3,4,-17,21,1,-1,10
1501879440775395,-9,-9,-25,23,-9,-7,-8,-18
1501879440775395,0,-25,-8,-18,13,3,-1,6
1501879440775395,-4,-1,5,-8,-14,-1,1,-1
1501879440775395,3,2,13,10,-20,-5,7,11
1501879440797408,-3,9,-4,-5,12,1,-10,7
1501879440797408,3,14,11,23,20,1,-3,-17
1501879440798387,-9,-10,-37,-28,-16,0,0,10
1501879440798387,9,-7,11,21,-10,-2,1,16
1501879440820426,-1,9,-7,-70,9,0,5,-4
1501879440820426,0,8,1,14,-3,-1,1,4
1501879440821396,-1,-7,10,30,-31,-5,-7,-17
1501879440821396,-3,-9,-19,-9,29,4,-1,-3
1501879440834431,-2,-3,-8,13,-21,-1,2,-1
1501879440834431,-6,4,23,6,17,-3,-7,-13
1501879440835388,2,-4,6,-11,1,-4,2,22
1501879440835388,0,12,14,-16,-17,-2,-3,-15
1501879440857430,4,-14,-7,18,2,1,-2,4
1501879440857430,-3,7,-5,-7,-2,1,2,-33
1501879440858410,-10,-9,4,-7,-2,-1,1,23
1501879440858410,13,19,4,-6,-14,0,-7,12
1501879440880393,-1,6,3,-6,18,3,8,2
1501879440880393,2,-5,9,8,-19,-3,-12,-11
1501879440881392,1,-4,2,7,27,1,0,-16
1501879440881392,-10,-2,-4,-1,14,-1,-3,-2
1501879440894394,6,18,4,12,-33,2,5,24
1501879440894394,9,3,-8,-5,28,2,7,18
1501879440895394,-6,-4,30,11,-7,-3,-7,-16
1501879440895394,-6,-2,-67,-20,-16,-5,-2,0
1501879440917428,1,6,19,6,13,0,-3,-12
1501879440917428,-6,-9,-6,5,-13,-2,1,9
1501879440918412,3,5,19,0,18,2,3,0
1501879440918412,0,-2,4,14,-6,1,2,3
1501879440940415,-1,2,-14,-10,2,-4,-3,-5
1501879440940415,-5,-2,-14,-11,-30,-3,-7,-15
1501879440941395,2,-14,-1,8,46,6,2,5
1501879440941395,1,16,15,14,3,-4,-2,5
1501879440955462,-3,-26,0,-20,-7,-1,-2,-14
1501879440955462,-6,11,7,2,-12,2,2,15
1501879440956402,6,-6,-34,4,-46,-5,-1,4
1501879440956402,-6,-12,13,22,39,8,3,-31
1501879440977436,3,0,20,-39,3,-6,-1,0
1501879440977436,1,-9,-21,-6,2,-5,-2,-16
1501879440978398,-4,-8,9,-8,-17,0,-4,4
1501879440978398,-3,6,-10,-12,-16,-4,-2,5
1501879441000415,-7,-11,-3,36,-13,-4,2,6
1501879441000415,0,0,5,-7,12,0,-2,-18
1501879441001398,3,14,-11,0,15,1,3,7
1501879441001398,-7,-12,20,-10,-11,-3,-6,-9
1501879441015399,3,14,20,31,24,-1,-4,-20
1501879441015399,-1,11,-14,-26,-16,0,5,12
1501879441015399,-2,-26,-31,-1,-4,-2,-2,-7
1501879441015399,-1,-4,17,-25,-12,-1,-3,19
1501879441045403,-3,-16,-34,-1,-11,-4,-2,2
1501879441045403,3,10,16,14,-7,-5,-2,4
1501879441046402,-2,3,-4,16,23,4,-5,-40
1501879441046402,6,9,-8,-35,-8,2,4,-8
1501879441060438,-4,-1,8,10,-22,-5,0,3
1501879441060438,1,-19,15,25,28,0,3,36
1501879441061406,-7,5,0,-24,-15,-1,-9,-34
1501879441061406,1,5,-2,4,6,-3,-4,-12
1501879441074459,3,8,19,-2,-5,3,1,-2
1501879441074459,-4,-4,10,-26,-7,-4,6,25
1501879441075426,5,16,0,35,31,7,4,-2
1501879441075426,-3,-16,-20,-3,-12,-4,-5,-4
1501879441097408,6,3,-2,42,-5,-1,-6,3
1501879441097408,-11,-33,-34,-84,-15,-3,-3,-13
1501879441098409,-1,9,24,13,27,3,3,2
1501879441098409,7,14,-6,-3,-11,-2,-1,12
1501879441120427,-2,-6,-16,27,7,0,-1,24
1501879441120427,10,3,-2,13,2,-1,0,-48
1501879441121405,-10,6,21,8,3,-3,-9,-6
1501879441121405,-3,-6,-3,-30,-43,-1,-1,-7
1501879441134440,2,18,11,-8,35,0,-4,-3
1501879441134440,-7,-15,-37,2,-3,-2,-2,13
1501879441142407,2,10,4,-30,-12,-8,3,4
1501879441142407,-1,-16,-7,14,15,6,3,8
1501879441157422,-2,7,6,-4,-5,-6,1,8
1501879441157422,6,-19,42,51,10,4,0,17
1501879441158408,-5,-3,-33,13,-11,-1,-6,-24
1501879441158408,-2,1,13,-23,-7,-7,-6,-12
1501879441180414,-4,-17,-18,-5,14,3,2,-15
1501879441180414,-1,19,32,28,13,1,-3,-1
1501879441181411,12,31,6,-2,-28,-1,20,60
1501879441181411,-12,-29,11,-3,15,-6,-24,-36
1501879441194413,-2,-7,-20,-50,0,-2,-5,-10
1501879441194413,-2,2,-6,10,-16,-1,-5,-6
1501879441202410,1,-1,17,24,-2,-4,1,20
1501879441202410,5,12,-1,-13,13,2,8,8
1501879441217412,-4,-12,24,20,-14,-2,1,-7
1501879441217412,-9,17,-11,-39,31,-2,-7,-8
1501879441218411,1,-30,-25,-17,-11,0,-1,-13
1501879441218411,-1,16,-1,-10,6,-1,1,-4
1501879441240432,2,4,1,30,-2,0,-3,5
1501879441240432,2,4,3,-17,-18,-1,0,10
1501879441241412,-7,2,1,-4,6,-2,-4,-32
1501879441241412,-4,3,-10,-1,-12,-1,7,4
1501879441254414,-3,-23,-11,-16,-13,-1,-8,24
1501879441254414,3,5,-19,35,-10,-5,-5,-14
1501879441262416,-5,-9,29,-4,11,-1,-3,10
1501879441262416,5,-4,-21,11,-18,3,8,29
1501879441277430,-7,3,-14,-30,17,-3,-4,-13
1501879441277430,4,4,-2,6,-17,2,0,-15
1501879441278416,-2,-10,-14,-7,-3,-6,-8,-5
1501879441278416,4,-6,-1,21,27,2,5,-2
1501879441300417,-2,8,-2,-4,2,-1,3,5
1501879441300417,-2,18,10,-3,6,7,1,-6
1501879441301419,-1,-28,-22,22,-13,-5,-1,5
1501879441301419,-1,6,18,6,-19,-2,0,8
1501879441314435,8,8,5,9,15,0,3,26
1501879441314435,-5,14,6,-7,11,0,-5,-1
1501879441322418,2,-12,-20,13,13,5,6,-7
1501879441322418,-13,-23,2,-60,-14,-5,-3,13
1501879441337419,0,-7,21,39,-23,2,-4,-14
1501879441337419,3,2,-1,-22,0,1,7,20
1501879441338419,-3,12,-30,-15,1,-4,-3,12
1501879441338419,-3,5,5,32,-1,-2,-4,-19
1501879441360421,9,26,-2,7,10,2,19,61
1501879441360421,-15,-21,7,0,-10,-6,-24,-87
1501879441361420,0,-13,4,-18,-8,0,-5,-7
1501879441361420,4,6,30,18,-4,0,-1,-7
1501879441383421,-7,-4,-41,-13,-4,-1,3,-6
1501879441383421,-1,-3,11,18,-4,0,2,-9
1501879441383421,6,25,10,-19,1,-1,0,39
1501879441383421,-4,-8,-11,21,4,-1,-1,-13
1501879441397421,-4,-7,7,15,1,3,-3,-11
1501879441397421,1,-12,-14,-19,-9,-2,2,-3
1501879441398423,1,-7,-6,-4,8,1,-1,-7
1501879441398423,-2,10,1,15,-10,-2,1,16
1501879441421423,1,-10,4,-26,24,2,2,-14
1501879441421423,1,0,-4,-5,-11,-4,3,10
1501879441421423,-2,6,21,-2,-26,-2,-3,-6
1501879441421423,-1,0,-23,37,22,0,-1,-5
1501879441443424,-6,-3,-19,-53,-8,-7,-8,-22
1501879441443424,2,-10,-20,4,1,-1,-1,34
1501879441443424,-1,9,15,21,33,-3,-4,-27
1501879441443424,-1,-7,2,-27,2,-1,2,0
1501879441457427,-7,9,10,8,-13,2,-6,-36
1501879441457427,2,9,-12,6,0,1,7,24
1501879441458427,2,-13,7,-16,-17,-5,-1,16
1501879441458427,-1,-4,-22,-19,3,0,-1,7
1501879441480427,7,-7,0,-1,-4,-3,3,7
1501879441480427,-4,7,10,13,-2,0,-5,-8
1501879441481428,-1,7,-4,-25,6,3,4,-19
1501879441481428,-6,-6,0,-9,2,-3,-1,1
1501879441510428,-3,21,19,4,-17,-5,-11,-42
1501879441510428,-3,-25,-9,23,17,1,0,7
1501879441511429,4,8,43,22,-8,-2,4,24
1501879441511429,1,10,-10,-61,12,3,2,-18
1501879441517432,1,-7,-3,-9,-2,1,2,8
1501879441517432,0,6,-3,20,-7,-5,-2,-10
1501879441518429,-5,0,11,-13,-16,1,-7,-5
1501879441518429,-2,-21,1,40,9,-7,-1,2
1501879441548434,-4,1,-6,-17,-13,-1,-3,-6
1501879441548434,3,-11,4,-28,-17,1,4,2
1501879441548434,-3,-10,-23,-11,7,-5,3,-9
1501879441548434,3,6,9,27,0,5,0,-3
1501879441563431,-1,-12,-13,13,-6,-8,-2,12
1501879441563431,-1,12,39,20,20,-2,-2,-13
1501879441569433,-6,-14,-61,18,-8,-1,2,7
1501879441569433,-1,-2,-9,-33,-20,-4,-2,-19
1501879441577447,0,-5,6,4,9,1,1,2
1501879441577447,-2,16,16,6,-18,-1,0,13
1501879441578435,3,3,15,-8,4,1,1,18
1501879441578435,0,6,-8,-5,2,-3,-6,-42
1501879441600433,5,-16,-4,14,4,2,2,7
1501879441600433,-3,-8,-15,-29,-12,-4,2,-13
1501879441601435,4,-17,10,-5,5,3,0,27
1501879441601435,-1,-3,-10,14,8,1,1,-7
1501879441623450,-3,10,27,2,-14,-4,-5,-11
1501879441623450,-5,-15,-37,-7,4,-2,0,22
1501879441623450,-4,15,14,0,2,3,-6,-44
1501879441623450,8,14,27,25,25,2,1,31
1501879441637436,-4,0,-31,7,-2,1,-1,-19
1501879441637436,5,3,-7,-29,-3,-4,1,12
1501879441638437,-8,0,-6,11,-13,-4,2,-11
1501879441638437,-5,4,-17,-23,1,-3,-10,-3
1501879441660437,6,12,28,14,-15,-2,-4,-11
1501879441660437,2,-5,11,12,3,3,3,24
1501879441661437,3,1,-8,-14,-7,-1,3,16
1501879441661437,3,-11,-7,1,-2,-2,0,1
1501879441683444,-4,-1,-2,20,-6,-3,-2,10
1501879441683444,-1,1,4,4,30,0,-2,-24
1501879441683444,1,7,21,0,9,4,4,25
1501879441683444,-6,-4,-23,-17,-15,-4,-7,-22
1501879441697441,2,-17,-33,-14,9,-2,1,12
1501879441697441,4,13,-8,3,-6,0,-2,10
1501879441698442,1,1,26,5,1,0,4,-15
1501879441698442,-5,11,1,3,2,-1,-2,28
1501879441720464,-9,-22,8,-19,-6,1,-5,-9
1501879441720464,-7,-5,5,13,4,-3,-1,-21
1501879441721445,2,3,-10,10,-9,-4,-3,13
1501879441721445,2,13,13,18,-12,0,7,7
1501879441743442,2,5,-12,-21,8,0,2,-4
1501879441743442,-1,-14,5,-1,-2,-1,-3,0
1501879441743442,1,0,4,-9,-9,0,-3,10
1501879441743442,2,-14,-44,9,3,-1,2,11
1501879441757442,-6,12,20,11,14,-2,-3,0
1501879441757442,-4,6,-21,-18,-5,2,4,-17
1501879441764444,-2,-5,-17,-7,-7,-4,-2,14
1501879441764444,-7,-7,-7,3,6,-1,-10,-43
1501879441788447,4,1,8,6,13,4,2,24
1501879441788447,-4,-7,21,15,-5,-1,2,10
1501879441789445,5,8,-19,-24,1,1,-1,-25
1501879441789445,5,-2,15,4,-13,0,-1,22
1501879441810446,-6,-15,-9,-22,-12,-4,2,-1
1501879441810446,-2,16,13,1,6,-3,-4,-8
1501879441811446,-3,-19,-16,13,-7,-2,-4,-7
1501879441811446,1,2,7,-3,-3,2,6,5
1501879441817450,0,-8,-9,1,-26,-5,2,21
1501879441817450,-5,-2,-3,3,18,-1,-6,-41
1501879441832447,0,23,13,-32,-1,4,-1,-3
1501879441832447,1,-5,17,17,11,0,1,19
1501879441848450,-2,-8,-7,2,0,0,-3,-32
1501879441848450,3,5,-14,-25,-34,-3,0,38
1501879441848450,-6,-4,13,11,11,-7,-7,-25
1501879441848450,-2,1,9,6,13,4,-9,-14
1501879441870467,-1,12,13,11,2,-1,0,1
1501879441870467,-2,4,-23,-27,17,2,-3,-4
1501879441871454,2,2,11,46,-6,-3,1,20
1501879441871454,3,8,-11,-58,-16,-3,6,-2
1501879441878451,-3,-15,1,-19,7,-1,-1,16
1501879441878451,2,-3,6,10,-8,-3,-5,-14
1501879441879450,-4,-13,3,-4,2,0,4,-6
1501879441879450,1,23,16,24,-12,-2,2,16
1501879441900452,3,-1,7,17,19,3,0,4
1501879441900452,-1,-10,-10,-31,-17,1,-2,-19
1501879441901453,-3,2,2,3,6,-4,-2,7
1501879441901453,0,-23,13,-3,-10,0,0,-14
1501879441923466,-10,-10,5,-8,8,-2,-9,-23
1501879441923466,-2,1,-14,21,11,0,3,21
1501879441923466,1,-9,-24,-5,-23,-3,-4,-1
1501879441923466,-1,16,32,8,10,5,3,6
1501879441945456,2,-2,-23,-17,-8,1,2,-10
1501879441945456,0,-25,36,0,9,2,6,37
1501879441946454,0,11,-59,1,-11,0,-8,-14
1501879441946454,0,-6,5,-6,6,-6,-5,-19
1501879441960456,-1,11,1,22,-12,3,6,-5
1501879441960456,-4,-10,-4,-5,-38,-7,-7,-12
1501879441961457,-1,4,23,-26,30,2,-1,7
1501879441961457,2,7,-13,8,4,-1,0,27
1501879441983462,-2,-9,-14,-3,9,0,3,-41
1501879441983462,2,28,-14,5,-36,-1,-2,-3
1501879441984464,-7,-12,21,3,15,-4,-1,5
1501879441984464,1,-1,-30,-8,-3,1,-2,-7
1501879441997457,2,-3,0,2,5,-2,-3,15
1501879441997457,2,-1,-22,-29,-2,0,2,3
1501879441998459,5,11,6,1,3,1,0,5
1501879441998459,-10,-9,15,8,-3,-4,0,-7
1501879442020459,3,17,1,-1,4,0,2,10
1501879442020459,3,-6,24,32,24,1,0,-5
1501879442021459,-4,-1,-42,-13,-15,-5,-2,-4
1501879442021459,0,-31,5,-15,0,-1,4,13
1501879442043460,0,25,-25,24,-15,-4,-2,6
1501879442043460,-6,-18,1,0,23,0,-4,-9
1501879442044460,-2,-16,11,-34,0,-1,2,11
1501879442044460,2,2,3,6,-8,-2,2,-10
1501879442065461,-3,2,3,1,-10,-3,-9,3
1501879442065461,0,2,-17,-8,27,6,5,-9
1501879442066463,-3,-2,23,6,-6,-2,-6,-6
1501879442066463,6,-1,-13,7,2,-1,-2,9
1501879442088463,1,2,6,-14,-6,-5,-1,16
1501879442088463,-4,11,-25,0,-4,0,-4,-13
1501879442088463,-2,7,26,8,-6,-3,2,-2
1501879442088463,-1,-16,-2,2,-8,0,0,6
1501879442103467,3,7,-19,-22,14,0,-1,-12
1501879442103467,-6,-4,12,5,-14,-7,-1,18
1501879442104464,-2,-12,-26,6,8,0,-4,-8
1501879442104464,-4,5,-21,-19,-32,1,-4,1
1501879442116464,1,-5,8,-18,15,0,6,1
1501879442116464,-1,-11,1,9,-4,-1,-10,-6
1501879442125463,-3,27,6,1,-2,-4,-2,-10
1501879442125463,1,-22,-17,2,-23,-4,-2,-4
1501879442140466,1,-2,-11,-11,2,2,2,10
1501879442140466,-1,1,-1,30,17,-6,3,5
1501879442142465,7,16,11,-24,-9,4,4,33
1501879442142465,-8,-10,10,19,-5,-6,-8,-53
1501879442163470,0,4,-4,-16,12,4,7,9
1501879442163470,0,9,-10,13,-4,-3,-5,-1
1501879442164467,1,-12,7,11,-9,-2,-5,-23
1501879442164467,-8,4,16,-12,6,0,3,50
1501879442177468,-3,-2,5,-6,-10,-5,-4,-19
1501879442177468,0,-24,6,-9,-17,-4,-10,-11
1501879442185469,1,-1,-25,2,27,6,3,7
1501879442185469,0,9,36,5,3,2,-7,-33
1501879442200475,-8,-17,-2,23,-9,-7,-2,0
1501879442200475,5,18,-7,-10,17,9,12,35
1501879442202470,-2,-11,9,-4,-15,-5,-4,-17
1501879442202470,-1,7,-13,-4,6,1,2,11
1501879442223470,1,12,19,24,-12,-4,-6,-9
1501879442223470,1,-18,-7,-26,-15,-1,2,-33
1501879442224470,2,3,-9,13,3,2,4,14
1501879442224470,-4,1,5,-4,23,-2,-2,-5
1501879442236479,2,-1,-4,-11,-12,-1,-3,8
1501879442236479,-5,7,6,9,6,-1,-1,0
1501879442251473,-1,-12,18,5,-28,-2,3,-14
1501879442251473,2,2,-28,-4,34,2,1,14
1501879442260473,4,3,9,3,-5,0,-10,-8
1501879442260473,-8,-18,19,-12,2,-3,0,6
1501879442266474,-8,-11,-32,-16,1,-2,-4,-24
1501879442266474,14,25,1,0,-15,-2,3,6
1501879442283492,3,-5,-4,5,-8,0,9,49
1501879442283492,-6,2,-14,14,20,0,-11,-44
1501879442284483,-2,8,1,-12,-27,-4,-2,9
1501879442284483,-11,-22,10,-20,6,-7,-9,-34
1501879442296475,4,16,-9,0,12,6,3,1
1501879442296475,2,-29,-8,-2,-17,-5,4,17
1501879442305478,-1,16,16,14,8,1,4,-2
1501879442305478,3,-13,-6,21,-13,-3,1,-11
1501879442320490,-5,-14,-8,-21,19,6,1,25
1501879442320490,5,15,6,-5,1,1,2,11
1501879442322476,1,5,12,18,0,-3,-5,-3
1501879442322476,2,-1,-10,6,-1,5,0,11
1501879442343477,-9,-13,-25,-30,-8,-5,-4,-27
1501879442343477,-3,0,-19,-3,-11,-4,-1,16
1501879442345479,1,-17,-8,-13,-11,-3,-2,8
1501879442345479,-3,18,16,-4,21,-2,-2,2
1501879442365480,-3,-28,-4,22,7,0,-5,-10
1501879442365480,-1,11,5,-13,-9,2,0,2
1501879442367479,0,-4,-17,3,6,-2,3,4
1501879442367479,-3,18,-10,-6,-4,2,4,28
1501879442379484,-1,-14,5,11,-9,-4,-6,-23
1501879442379484,-1,8,30,11,5,-1,0,4
1501879442388484,-7,-12,-21,16,21,-1,-2,-12
1501879442388484,6,1,-1,-18,-8,6,7,18
1501879442403481,1,11,10,2,1,1,-1,10
1501879442403481,0,-2,-3,-4,-15,-2,1,-12
1501879442404482,-2,3,1,-6,5,-4,1,6
1501879442404482,-9,-20,-13,-1,7,-2,-7,-3
1501879442425496,0,12,15,-11,-26,-8,-3,-11
1501879442425496,-3,1,-13,-1,16,0,-7,-15
1501879442433497,7,25,13,-2,12,3,2,9
1501879442433497,-8,-33,-28,4,-7,-3,-3,-16
1501879442440484,2,14,11,16,11,3,6,8
1501879442440484,2,21,-22,-4,-20,-4,-5,-1
1501879442442485,-9,-16,-2,-7,-9,5,-2,-20
1501879442442485,6,-4,11,8,8,1,0,17
1501879442463484,-2,7,14,1,-5,-3,0,-2
1501879442463484,1,0,-13,8,9,-5,2,-19
1501879442464485,0,-4,1,-19,-23,0,-3,-2
1501879442464485,-1,11,5,4,12,-2,2,10
1501879442485486,-5,3,-6,0,4,1,-1,-24
1501879442485486,-3,-11,15,6,-5,-3,1,-3
1501879442487487,1,3,4,9,-3,-2,-3,-10
1501879442487487,-6,-6,-9,-10,-8,-3,-10,-25
1501879442500487,0,-1,3,-4,7,-1,-1,10
1501879442500487,1,8,6,-12,-5,-2,0,12
1501879442502492,-1,-11,-18,1,-22,-4,-3,4
1501879442502492,1,6,14,11,11,-1,3,-20
1501879442523486,6,12,5,-5,0,1,3,1
1501879442523486,-4,-30,0,3,7,4,-2,0
1501879442524488,0,-19,6,0,-11,-4,0,4
1501879442524488,0,7,-12,-8,-13,-2,4,15
1501879442545508,-2,-6,-3,4,8,1,4,-16
1501879442545508,2,-5,4,-6,-4,0,-7,-4
1501879442547491,0,1,8,0,14,-1,0,-3
1501879442547491,-5,-3,19,16,-15,-2,-4,-13
1501879442568511,-14,-21,-49,-14,-18,-8,-14,-28
1501879442568511,4,2,-11,-7,-9,-2,10,32
1501879442569491,0,8,11,-9,3,0,-9,-12
1501879442569491,5,12,0,11,3,-4,-6,-4
1501879442583555,0,-5,-10,-23,16,2,-2,7
1501879442583555,-2,-16,18,10,8,6,5,5
1501879442584496,-5,-6,-11,-11,-11,-4,4,20
1501879442584496,0,8,-6,-2,3,2,2,-21
1501879442605523,4,15,13,11,-13,-5,3,23
1501879442605523,1,11,1,-4,-2,-3,-5,1
1501879442622511,0,-32,-9,7,3,2,0,-1
1501879442622511,-2,-8,0,-4,4,2,0,1
1501879442622511,-2,-2,10,4,-5,-1,0,-7
1501879442622511,5,6,-10,-4,1,-1,3,5
1501879442626532,-1,6,-14,-5,2,-2,-1,-2
1501879442626532,-1,-11,-6,-2,-7,-3,-1,5
1501879442643495,4,4,0,-3,-12,-1,3,13
1501879442643495,-6,-3,-4,-2,17,-1,-1,-6
1501879442645516,-1,8,16,7,12,3,-1,-15
1501879442645516,2,1,8,-1,-32,-4,5,17
1501879442665500,9,-4,-2,3,41,-3,-6,24
1501879442665500,-4,13,11,1,-11,6,-5,-17
1501879442667496,-3,-11,-27,-4,12,0,0,-3
1501879442667496,-1,-6,7,4,-21,-2,-2,3
1501879442679499,-1,15,15,14,-8,-6,0,16
1501879442679499,-1,7,-38,-17,3,-2,-2,-18
1501879442686497,1,-9,21,-8,10,3,4,-2
1501879442686497,-1,15,4,-4,-13,-2,-3,-9
1501879442703500,0,-13,-3,5,-25,1,-1,2
1501879442703500,-1,2,13,7,25,-1,2,2
1501879442704503,3,21,5,12,-29,-4,-2,-4
1501879442704503,-6,-10,-8,-8,36,5,0,-10
1501879442725552,-5,-18,-5,0,6,2,0,-10
1501879442725552,4,-4,13,1,-12,0,2,14
1501879442727500,3,8,2,9,-1,-2,-1,1
1501879442727500,0,-2,-12,4,-5,-4,-1,3
1501879442739500,2,32,11,11,-2,0,-1,-15
1501879442739500,-6,-49,-18,-18,-6,-1,0,6
1501879442746502,-1,9,6,0,2,-3,1,6
1501879442746502,-1,-6,-11,-17,1,-1,-3,3
1501879442763520,1,12,-9,-2,0,2,0,-20
1501879442763520,4,-7,27,18,-2,-2,-2,4
1501879442765513,-7,-7,-28,-14,0,-3,-2,23
1501879442765513,1,2,5,3,5,2,2,10
1501879442785504,-17,-7,-6,-2,3,-2,-8,-53
1501879442785504,4,11,5,-7,-9,2,3,-2
1501879442787523,0,-2,-3,-8,-6,-4,-4,-13
1501879442787523,1,-3,3,4,-8,-3,2,21
1501879442799508,1,-13,-4,1,1,1,-2,13
1501879442799508,-7,9,6,-15,-13,-5,-2,-11
1501879442806559,8,12,10,8,14,4,0,2
1501879442806559,-3,12,-11,3,-2,-4,-2,-7
1501879442823549,-4,-28,-5,-26,-15,-1,0,2
1501879442823549,0,3,5,17,10,-6,-6,-8
1501879442825510,-2,8,1,-9,-5,5,3,5
1501879442825510,3,-6,24,3,-3,2,4,10
1501879442846508,-1,-6,-16,-1,4,-2,-1,9
1501879442846508,-4,6,6,-6,-9,-2,-9,-40
1501879442847507,-2,-1,-8,15,17,-1,-4,-9
1501879442847507,-4,-8,-5,1,-6,-3,-4,-11
1501879442859515,-2,-7,15,-7,2,1,1,6
1501879442859515,-1,15,-13,-6,-4,-5,0,6
1501879442874507,-3,-16,-20,-3,0,0,-1,17
1501879442874507,2,5,14,-4,-7,0,0,3
1501879442882529,-2,-9,0,2,-17,-2,0,5
1501879442882529,3,6,-16,16,36,3,3,10
1501879442896512,1,10,-9,-4,-3,-2,-1,-7
1501879442896512,-8,-14,-21,-18,-10,-3,-3,-12
1501879442905510,-1,3,11,-3,-4,-6,-4,-3
1501879442905510,2,-4,15,9,-5,0,0,1
1501879442911579,-3,-3,7,2,-12,-2,2,2
1501879442911579,3,-3,-36,-12,-4,0,9,22
1501879442919537,0,9,2,4,11,-2,-13,-39
1501879442919537,0,11,1,-3,-1,4,-1,-2
1501879442934532,-2,-12,-4,1,-4,-7,-7,-7
1501879442934532,-1,13,19,-6,-18,0,-1,2
1501879442943512,0,-28,-5,1,10,-1,4,8
1501879442943512,-1,-10,-2,8,3,1,2,10
1501879442944514,-1,-3,-6,-4,-11,-3,0,-7
1501879442944514,-2,6,-6,-8,2,0,-4,-14
1501879442965515,0,7,8,-8,-14,-3,2,12
1501879442965515,0,7,-16,-1,0,-6,-2,5
1501879442967523,-2,-13,2,-1,10,1,-1,-10
1501879442967523,-2,-7,7,12,9,0,-1,-21
1501879442979522,3,17,-2,0,-4,-1,1,12
1501879442979522,-2,-18,-1,-3,-12,-1,-2,-7
1501879442988515,-4,3,-5,-6,-13,-3,2,6
1501879442988515,0,-1,-6,-3,29,-3,-6,-4
1501879443002549,6,-6,-6,6,5,4,7,27
1501879443002549,-7,9,11,-14,-9,0,-4,-38
1501879443010520,3,7,-4,15,22,-3,-1,0
1501879443010520,3,-7,4,1,-11,3,-1,-4
1501879443024579,-6,-28,-11,0,4,3,3,14
1501879443024579,9,1,0,-12,-23,-8,-2,8
1501879443033521,-1,-3,1,2,17,7,0,-2
1501879443033521,-3,15,4,11,9,-2,-4,-1
1501879443039518,-5,-7,-5,-1,10,0,1,1
1501879443039518,-3,-7,8,0,-14,-3,-3,-3
1501879443055553,2,8,-18,-1,-16,-4,-3,4
1501879443055553,2,-3,8,-22,-3,-4,-2,-3
1501879443063521,1,13,11,6,-11,1,-1,-2
1501879443063521,1,29,12,7,1,-3,-2,13
1501879443064521,-2,-29,1,5,18,6,5,-3
1501879443064521,-2,-10,-35,-12,-7,0,0,15
1501879443085543,-6,6,3,7,-23,-8,-9,-26
1501879443085543,1,-15,-20,-13,-4,-1,0,11
1501879443087525,1,24,16,5,12,0,-1,-10
1501879443087525,1,-8,19,3,14,1,1,3
1501879443099521,-2,4,-9,0,-7,1,4,15
1501879443099521,1,-17,-22,-6,-3,-2,-3,-47
1501879443108522,0,26,18,-2,3,0,-1,6
1501879443108522,-8,-28,-4,5,-6,-1,-4,-20
1501879443123528,0,6,-1,1,6,-4,-2,6
1501879443123528,1,-10,9,-14,-9,4,1,22
1501879443124523,-3,-8,20,-7,-13,-2,3,8
1501879443124523,0,17,-20,19,4,-7,-5,-12
1501879443152525,5,9,1,-8,-6,-2,-4,-2
1501879443152525,-4,-24,-16,1,31,2,1,1
1501879443154525,0,-5,21,-5,-12,-1,-2,3
1501879443154525,-1,2,-5,-4,-5,1,-2,16
1501879443159525,2,-3,-2,1,0,-1,3,-6
1501879443159525,-7,12,-5,8,-30,-5,-4,2
1501879443175526,5,7,0,-9,15,1,-1,-9
1501879443175526,-6,7,6,7,13,-3,1,-6
1501879443182528,4,1,0,-4,-2,3,0,7
1501879443182528,0,-1,20,13,14,1,4,24
1501879443184526,-11,-3,-18,-26,-38,-7,-4,-6
1501879443184526,4,7,17,8,17,0,1,-9
1501879443205527,-1,12,-19,-4,13,-1,-3,-12
1501879443205527,2,-8,-4,-5,-8,0,0,4
1501879443207529,-6,-13,-16,9,3,-1,-4,-1
1501879443207529,2,-2,-5,-3,-12,-1,3,0
1501879443219529,-1,-5,18,-9,-7,-3,-2,27
1501879443219529,-7,9,-26,4,15,-2,-6,-45
1501879443229530,3,-12,-20,-8,-6,-3,-4,14
1501879443229530,0,11,19,3,4,6,-2,6
1501879443242532,-2,1,9,4,3,-1,-4,-9
1501879443242532,3,-1,-4,-3,-16,-2,2,14
1501879443244530,-5,-1,-21,-11,-2,-2,0,2
1501879443244530,2,-3,9,3,-4,-4,-2,2
1501879443265533,-2,25,2,-17,-16,2,1,-5
1501879443265533,-4,-35,-7,-4,18,-2,-1,5
1501879443267532,-3,-5,1,3,10,0,-1,-16
1501879443267532,-1,-19,-9,0,-12,-3,0,26
1501879443287533,-4,-10,-4,4,-2,-2,0,-25
1501879443287533,2,24,17,11,10,2,3,-19
1501879443289533,3,-7,2,6,-3,-2,-4,1
1501879443289533,-4,0,-3,-12,-16,-1,-2,-3
1501879443303533,0,-15,-5,1,8,-1,-1,-2
1501879443303533,-5,7,-11,-2,-21,-2,2,12
1501879443304537,3,9,-17,8,16,-1,-2,4
1501879443304537,0,2,-3,-5,-2,0,-1,-23
1501879443332562,-5,-1,-6,-16,-9,0,-2,-10
1501879443332562,6,13,13,15,13,2,-1,13
1501879443334536,-3,0,11,-8,-13,-1,1,2
1501879443334536,2,2,-1,1,-13,-4,0,14
1501879443348537,1,25,-5,5,8,2,3,7
1501879443348537,-2,-12,15,3,29,5,0,-8
1501879443349536,-5,-12,-19,-6,-6,-2,-3,-10
1501879443349536,2,8,5,-2,6,0,-3,-9
1501879443362539,-4,3,5,4,3,-5,-2,0
1501879443362539,-3,15,-4,8,-11,-5,6,37
1501879443364537,4,-7,18,-9,-11,0,-5,-11
1501879443364537,4,-12,9,-8,7,5,-3,4
1501879443385539,-3,-8,-6,-1,12,2,-1,-19
1501879443385539,-1,3,-14,7,11,0,-3,-4
1501879443387539,-4,-11,2,-9,-17,-1,3,7
1501879443387539,-3,7,5,3,-2,-2,2,6
1501879443407554,3,-12,-3,9,-11,-4,-5,-4
1501879443407554,-2,7,1,-6,2,1,-1,-1
1501879443409539,-2,1,5,8,3,-1,2,2
1501879443409539,1,4,-14,4,6,0,-3,-6
1501879443430543,1,1,-2,3,13,2,2,6
1501879443430543,2,3,1,-1,-20,-2,0,6
1501879443432542,-2,-2,19,8,0,-4,-3,-23
1501879443432542,-9,-6,-18,1,14,-1,0,-1
1501879443453543,2,2,6,-6,-9,-2,2,3
1501879443453543,0,2,-20,-17,-14,-5,-4,1
1501879443454549,-1,-2,2,0,-10,3,-1,-5
1501879443454549,-4,2,0,3,5,-3,0,-2
1501879443468557,10,10,19,7,12,0,7,8
1501879443468557,-10,-18,-5,-8,-11,-1,-9,-20
1501879443470543,-2,6,-5,10,-2,-4,-2,-1
1501879443470543,-5,1,-9,-11,-2,-1,-3,-11
1501879443482546,1,-7,-3,-4,-3,0,3,16
1501879443482546,0,0,1,-2,-3,1,1,-4
1501879443490546,4,10,-6,-2,4,0,1,33
1501879443490546,-6,-21,0,-1,-11,-2,-8,-56
1501879443505547,-3,-22,-9,-2,-8,-4,-3,-4
1501879443505547,-1,0,6,2,20,6,3,4
1501879443511550,-3,2,4,10,3,-3,-1,0
1501879443511550,8,-3,-10,-8,3,2,4,18
1501879443528548,-4,-6,8,-13,-14,-1,-3,-6
1501879443528548,0,6,28,7,-20,-5,-7,-5
1501879443530552,-1,3,-39,-12,32,3,3,2
1501879443530552,0,-4,15,2,-5,0,1,5
1501879443542587,-6,-12,-2,4,10,-1,-3,-9
1501879443542587,2,9,-14,-23,-17,-3,3,15
1501879443549556,-1,-8,24,5,6,-1,-3,-13
1501879443549556,0,9,-10,6,-17,-4,-1,10
1501879443565556,-6,-3,-9,16,31,1,-4,-4
1501879443565556,4,3,3,-20,-14,0,3,5
1501879443567550,-2,1,-2,-2,-10,-4,0,-4
1501879443567550,-8,-1,-9,-6,8,-1,-8,-11
1501879443587550,-2,-3,0,4,-5,-3,-7,-3
1501879443587550,0,1,4,12,13,1,0,-3
1501879443589550,-1,-16,-25,-9,-7,-2,2,-4
1501879443589550,-1,-5,-9,2,-3,2,6,40
1501879443610589,-4,6,4,-16,-8,-1,-4,-47
1501879443610589,-2,1,-8,2,10,0,-5,-18
1501879443612552,-4,-1,9,-11,-18,-4,-3,-4
1501879443612552,1,6,11,6,-11,-1,1,-1
1501879443625603,-1,-2,-15,-1,20,3,1,13
1501879443625603,-5,4,-10,2,1,-4,1,-1
1501879443627552,6,-6,15,1,7,2,-1,-1
