timestamp,emg1,emg2,emg3,emg4,emg5,emg6,emg7,emg8
1501876698353644,0,-24,-42,25,-27,-14,-13,34
1501876698353644,-3,39,-18,10,-13,0,-3,-47
1501876698354646,-21,-46,16,6,-46,-9,10,-36
1501876698354646,19,15,2,25,47,0,-23,4
1501876698355646,-13,5,42,-13,-50,-6,20,55
1501876698355646,9,20,-8,45,35,5,-12,-33
1501876698358646,-10,-31,-11,-30,4,-6,8,33
1501876698358646,12,-2,-27,-54,-45,2,2,-6
1501876698366646,-12,-32,-16,54,67,12,-18,8
1501876698366646,-13,20,42,6,-20,-6,-7,7
1501876698374651,31,-13,-13,37,59,3,2,71
1501876698374651,-22,-19,-59,17,-6,6,5,40
1501876698380652,6,33,16,-107,-5,7,23,57
1501876698380652,6,5,-54,-63,-79,-24,-30,-39
1501876698395688,6,66,72,62,22,19,12,-21
1501876698395688,8,28,1,-39,-55,-20,0,22
1501876698404686,-13,-28,-22,34,29,-1,-1,-128
1501876698404686,7,65,92,47,39,19,38,69
1501876698419693,53,49,-39,-85,-9,-10,-35,-7
1501876698419693,-26,-71,-34,7,-8,-5,-4,56
1501876698426666,-2,55,63,78,-41,-19,-8,-72
1501876698426666,-2,-28,-28,-75,8,14,-9,45
1501876698440698,-6,13,-47,56,-32,-15,24,10
1501876698440698,-3,28,127,-23,26,12,20,1
1501876698481657,-4,38,40,37,-18,-2,-14,-68
1501876698481657,10,24,13,-62,28,5,7,45
1501876698482662,2,-37,-37,-24,9,2,4,0
1501876698482662,-8,-41,37,46,16,5,2,-21
1501876698482662,-8,14,29,14,-12,-1,5,8
1501876698482662,2,25,8,29,1,2,-5,-31
1501876698486663,24,27,-11,48,31,3,-1,10
1501876698486663,-21,-14,0,-18,-36,-7,5,1
1501876698492695,-2,-17,-29,-95,33,-7,-9,30
1501876698492695,-13,-78,-52,28,-17,-4,-17,-86
1501876698500712,9,-4,-49,-4,-18,7,19,87
1501876698500712,-5,-19,27,-32,9,0,-11,-50
1501876698509666,8,105,43,46,-4,1,9,-8
1501876698509666,1,-13,9,44,-12,-7,12,57
1501876698523701,-6,9,-10,-80,-27,-7,-10,-41
1501876698523701,4,18,-8,36,34,3,0,15
1501876698530725,11,-12,4,-18,29,10,18,85
1501876698530725,-8,16,42,-1,1,-5,-11,-70
1501876698554692,1,-48,74,24,-44,-3,-4,7
1501876698554692,2,-4,-67,21,76,22,9,23
1501876698555659,-9,-53,-49,11,-27,-7,1,-5
1501876698555659,-1,15,28,11,-7,-6,-4,29
1501876698568689,-2,20,8,17,-3,-9,-8,-4
1501876698568689,8,23,0,-37,-12,-8,0,21
1501876698575730,-8,-40,6,4,-53,-9,-8,-46
1501876698575730,-8,11,-83,-50,6,0,6,-4
1501876698591724,7,25,19,-3,41,12,0,-8
1501876698591724,-22,34,26,-9,-21,-15,-18,-56
1501876698593662,19,-30,-3,52,-10,3,4,28
1501876698593662,-3,10,87,-20,-47,-13,-3,28
1501876698614736,-13,19,-28,-5,56,11,3,7
1501876698614736,9,0,14,-14,-33,-3,-4,-22
1501876698615662,-4,11,-14,14,22,2,-2,-5
1501876698615662,5,14,5,53,9,2,-4,-15
1501876698628678,-11,-25,23,-1,-19,-4,3,8
1501876698628678,26,24,-20,14,-13,2,7,29
1501876698635699,-10,2,33,52,-46,-12,-6,26
1501876698635699,14,21,-39,1,62,20,3,31
1501876698651729,-6,-40,-34,-23,6,-10,-9,-11
1501876698651729,-12,-26,4,-6,-1,0,1,19
1501876698653663,0,7,-49,23,0,-2,-9,-66
1501876698653663,3,15,-12,-19,-7,0,11,45
1501876698674714,-3,-23,-10,-13,-30,-13,-1,-11
1501876698674714,0,-20,-9,63,-32,-6,-3,23
1501876698675665,-4,-6,19,-128,84,9,-21,-55
1501876698675665,5,-33,-64,36,-30,-1,6,25
1501876698688679,-25,-28,43,-17,-11,-8,-15,-71
1501876698688679,2,43,-7,-89,-36,-1,5,24
1501876698695704,13,-24,-19,65,-3,-4,2,68
1501876698695704,-9,-10,-42,-16,-27,0,-7,-34
1501876698711708,-1,16,14,-61,48,4,2,-2
1501876698711708,-2,-47,-25,6,10,2,20,44
1501876698713667,-4,-15,1,-4,-21,-2,-13,-32
1501876698713667,-5,9,-2,8,-12,-9,-11,-20
1501876698734715,-1,-2,-32,-1,-20,2,7,-20
1501876698734715,-6,-4,20,30,38,-1,-8,29
1501876698735669,-7,27,14,-25,-1,-2,8,2
1501876698735669,-11,-50,17,-10,-36,0,3,-15
1501876698748735,7,26,-18,44,30,8,-1,3
1501876698748735,2,1,-27,-67,15,-5,-7,-18
1501876698755708,9,21,7,35,0,-4,13,58
1501876698755708,-16,-20,45,19,-14,-11,-19,-53
1501876698771739,14,44,72,-32,6,-1,-4,-31
1501876698771739,1,-39,-56,-12,-9,8,-4,0
1501876698773703,-2,15,-14,2,17,1,-2,-6
1501876698773703,-10,-9,-9,-9,2,-8,10,15
1501876698794742,3,6,-6,53,-9,5,9,34
1501876698794742,7,53,20,7,-5,-7,-13,-18
1501876698795673,-7,-15,45,-5,-17,0,14,12
1501876698795673,7,-31,-59,-50,18,11,0,-4
1501876698808740,3,20,5,37,-79,-10,-3,16
1501876698808740,-5,16,0,-15,72,0,-5,-29
1501876698815738,-3,-9,-17,6,6,5,3,2
1501876698815738,12,46,39,-60,2,0,2,4
1501876698831683,-12,24,-8,28,-14,-3,-2,13
1501876698831683,-3,10,0,59,-3,-2,3,-16
1501876698833690,-6,-24,-14,-14,0,-7,-4,12
1501876698833690,13,54,58,40,55,11,8,29
1501876698854743,-7,-44,-68,-52,-73,-15,-15,20
1501876698854743,-1,0,16,-59,-61,-4,-4,-24
1501876698855708,-3,-13,-63,-1,58,3,-5,-39
1501876698855708,-5,-6,37,18,-19,5,4,9
1501876698867718,1,13,-24,-35,4,-7,2,19
1501876698867718,0,18,1,33,-40,0,10,32
1501876698876690,22,13,6,10,20,-5,-4,8
1501876698876690,-26,-68,6,-66,29,-1,-10,21
1501876698891716,2,27,13,99,45,9,5,-20
1501876698891716,-6,-60,14,-68,-28,-4,-8,-8
1501876698893678,2,74,37,5,-35,-5,10,30
1501876698893678,7,-43,-91,19,12,0,-6,-32
1501876698914725,2,-21,45,21,44,3,0,36
1501876698914725,-1,15,-16,-15,3,-11,-3,-8
1501876698915680,-6,46,21,-29,-18,7,-1,-16
1501876698915680,2,-49,15,4,-10,-5,-1,-10
1501876698927722,-3,17,26,9,-20,-2,3,17
1501876698927722,6,26,-22,18,9,10,9,27
1501876698936700,-11,-33,26,-42,-11,-2,-19,-68
1501876698936700,4,35,9,-23,48,4,2,0
1501876698951680,9,-8,-65,16,-26,-2,1,13
1501876698951680,-3,6,42,5,50,-8,1,-12
1501876698953681,1,-41,-41,10,-24,0,1,29
1501876698953681,-2,45,18,76,-9,-5,-1,11
1501876698974754,3,-8,38,-58,49,10,8,3
1501876698974754,-5,-6,-9,-17,-15,-3,-8,-33
1501876698975701,-9,-86,-15,6,5,0,-4,-8
1501876698975701,-1,21,24,29,-61,-13,6,26
1501876698987746,0,-33,-38,3,3,10,-12,-57
1501876698987746,-2,-11,27,64,37,3,1,9
1501876698996701,-1,3,-16,-23,-32,-4,-1,-15
1501876698996701,-6,14,24,-12,45,1,0,20
1501876699011725,4,-19,24,-25,-27,-9,-2,4
1501876699011725,2,-2,6,29,-7,-2,-6,5
1501876699013683,-11,0,-38,-41,7,-4,-7,-29
1501876699013683,11,-5,21,31,-12,0,8,34
1501876699034718,0,38,14,2,-24,-16,-1,24
1501876699034718,-5,-25,0,-4,11,8,-6,-5
1501876699035686,-3,17,-12,-6,34,0,-11,-52
1501876699035686,-5,-2,-23,58,-83,-5,-2,-13
1501876699047755,-7,31,32,-31,85,14,5,-5
1501876699047755,13,-28,-26,12,-39,2,14,7
1501876699056704,-10,-59,7,12,-11,0,0,19
1501876699056704,2,13,-23,-34,14,0,-9,-37
1501876699071740,-11,-16,1,5,-6,-2,6,18
1501876699071740,9,32,-2,14,-10,-8,2,-13
1501876699073720,2,17,-8,59,20,4,-4,-27
1501876699073720,0,-37,-6,-28,7,-3,-4,-13
1501876699094767,13,25,32,18,-5,13,15,37
1501876699094767,-9,-1,39,-34,59,1,-13,-78
1501876699095691,6,-23,-21,1,-31,-3,26,127
1501876699095691,-6,31,-35,9,-33,-9,-26,-90
1501876699107709,5,-21,1,-1,23,-2,12,13
1501876699107709,-34,-48,-1,-19,-60,-7,-39,-88
1501876699116711,7,40,10,-21,35,1,-6,14
1501876699116711,5,-9,-5,-19,24,3,11,72
1501876699131755,-7,6,-23,-8,-30,-4,-8,-20
1501876699131755,7,-11,-9,28,8,2,8,34
1501876699133723,0,5,37,48,-5,-5,-2,12
1501876699133723,-5,-27,-21,-73,12,5,-3,37
1501876699154768,-5,-25,-8,-34,-7,-7,-9,-40
1501876699154768,2,22,-20,15,-7,-2,4,12
1501876699155694,0,-16,61,27,4,3,14,16
1501876699155694,-2,19,-16,-5,0,9,-2,-51
1501876699167692,-3,-11,-28,30,6,-2,-6,-3
1501876699167692,-5,3,11,42,-38,-3,-4,4
1501876699176695,3,-1,-31,-67,61,18,8,8
1501876699176695,8,38,28,-38,-21,-13,1,31
1501876699191702,-7,-15,-4,-11,-12,-2,-9,-22
1501876699191702,3,17,-35,-30,-7,8,10,10
1501876699193696,6,-1,16,20,-40,-10,-10,-7
1501876699193696,-12,-23,-5,6,32,1,0,-27
1501876699214713,-1,31,32,50,16,-3,-5,26
1501876699214713,8,10,34,-25,-24,-1,2,-10
1501876699215697,-11,-33,-58,-27,7,-2,-6,-57
1501876699215697,0,16,14,-5,0,2,-3,-23
1501876699227740,-2,11,-49,-15,-39,-7,-6,-2
1501876699227740,2,-3,-19,60,47,-6,8,87
1501876699236715,0,17,27,-20,-15,-1,-4,-3
1501876699236715,5,27,-14,-35,-5,0,10,-10
1501876699251768,-2,-1,-12,29,27,6,-10,-30
1501876699251768,1,-25,10,11,0,-2,7,43
1501876699253732,-11,-12,-13,15,-31,-5,-14,-60
1501876699253732,1,9,22,52,33,4,2,18
1501876699274714,2,-6,-43,-39,-29,-10,4,37
1501876699274714,4,22,-5,-65,8,5,11,8
1501876699275700,-3,17,7,3,-14,-8,-20,-74
1501876699275700,-7,-30,9,4,-14,0,-3,26
1501876699296767,-19,11,16,35,60,-1,-7,-86
1501876699296767,8,14,-22,62,-9,-7,-8,17
1501876699298700,10,15,29,-28,26,25,24,32
1501876699298700,-7,-28,-35,0,-21,-10,-8,-33
1501876699311771,6,31,18,-13,-38,-2,-3,22
1501876699311771,-3,-12,-37,4,7,-5,11,3
1501876699313733,-6,-5,9,1,-23,-17,-13,5
1501876699313733,-2,-6,-2,26,15,14,11,38
1501876699334714,4,2,0,8,-3,3,2,27
1501876699334714,-1,22,59,-18,7,5,2,-6
1501876699335703,4,13,-61,32,-48,-13,-4,-33
1501876699335703,-15,-106,-14,6,75,-6,-6,9
1501876699356779,6,-9,11,15,10,11,9,9
1501876699356779,-5,14,21,9,-22,-11,-12,-17
1501876699358704,-11,-21,-25,-36,22,3,-7,-29
1501876699358704,3,41,28,10,-17,-6,2,33
1501876699371770,-2,-21,-68,-39,3,-9,2,-14
1501876699371770,0,-30,25,30,25,11,-1,50
1501876699373737,-11,-32,-21,-22,-40,-3,-2,-20
1501876699373737,4,27,-34,8,4,-3,-6,-29
1501876699394713,1,-27,69,13,12,-3,6,55
1501876699394713,-4,-11,-28,-10,-19,-6,-8,-55
1501876699395708,1,11,4,1,14,-2,2,16
1501876699395708,6,6,14,-18,-16,6,10,45
1501876699416752,2,4,6,12,-23,2,9,-42
1501876699416752,-3,14,-26,-7,9,-8,-17,-50
1501876699418707,8,3,36,29,35,6,2,34
1501876699418707,-6,4,-13,-14,-26,-3,-2,-33
1501876699431772,7,11,9,-4,-5,8,6,34
1501876699431772,-3,-17,-33,-16,-14,-1,-8,-34
1501876699433740,-8,4,-8,-5,7,-6,-1,11
1501876699433740,5,-3,28,25,-10,1,6,5
1501876699452755,-5,-13,-12,-19,-38,-8,-3,7
1501876699452755,-12,0,5,22,-7,-4,-2,35
1501876699461710,4,23,15,-28,8,12,-1,-43
1501876699461710,-4,7,-7,-42,15,7,-2,-10
1501876699476765,-2,9,-15,20,-27,-7,-8,3
1501876699476765,12,-8,8,-21,-29,-5,12,11
1501876699478710,-3,14,58,11,16,-6,2,31
1501876699478710,1,12,-5,-1,-23,-3,-9,-21
1501876699499750,2,3,-4,-10,28,5,-7,-12
1501876699499750,-12,-26,-16,-33,27,2,-1,-20
1501876699500718,10,34,10,40,-1,1,12,33
1501876699500718,10,23,8,-2,-17,-5,1,7
1501876699512774,-10,-33,4,27,-17,-11,-18,-30
1501876699512774,-3,-13,0,-37,13,8,4,2
1501876699521752,4,10,-20,-12,-25,1,7,38
1501876699521752,-11,-32,1,17,15,-6,-7,-23
1501876699536781,0,-26,-6,-16,-40,-6,-3,11
1501876699536781,2,28,-1,24,0,0,2,9
1501876699538715,-2,-2,-11,-33,37,9,3,8
1501876699538715,6,-5,4,30,-9,0,7,-11
1501876699559728,-8,-2,5,-3,-27,-8,-11,-6
1501876699559728,2,6,2,-11,33,3,1,3
1501876699560716,-7,-3,-5,-2,-12,-11,-8,21
1501876699560716,0,14,-60,-18,4,-9,-2,11
1501876699572779,-5,1,32,7,14,8,4,-25
1501876699572779,3,-4,-3,17,-22,-8,2,51
1501876699581718,0,-2,-10,13,58,11,6,-29
1501876699581718,16,24,25,28,15,13,11,19
1501876699596718,-20,-47,-16,-15,-3,-8,-18,-48
1501876699596718,-1,12,-17,3,-24,-4,-5,-44
1501876699598719,-5,1,11,9,-43,-10,1,22
1501876699598719,9,11,10,-11,38,-4,-13,-33
1501876699619718,10,34,-9,10,21,6,5,18
1501876699619718,-7,-42,-40,-33,-17,-2,-2,-4
1501876699620720,-1,2,16,4,-71,-11,-3,1
1501876699620720,-5,6,0,18,11,1,13,21
1501876699632720,11,15,25,-10,6,12,5,-4
1501876699632720,-1,6,18,-2,26,2,-16,-53
1501876699649721,2,-7,-30,31,-18,-3,-3,-3
1501876699649721,-10,-9,36,14,-40,-6,1,4
1501876699656721,13,54,-30,-24,28,2,7,17
1501876699656721,0,-24,10,-6,18,0,4,-11
1501876699658722,3,-3,16,-1,8,0,-7,13
1501876699658722,-3,-13,-50,-59,7,-1,3,3
1501876699679722,-7,10,25,6,3,-3,5,17
1501876699679722,-6,1,10,8,15,5,-8,-20
1501876699680722,4,-3,5,35,-10,1,-2,2
1501876699680722,2,5,-31,-95,-23,-5,-8,22
1501876699692730,-3,-31,-11,-5,-22,-12,-2,-12
1501876699692730,0,17,-7,40,42,2,5,10
1501876699701723,-9,-16,26,-8,14,8,23,9
1501876699701723,-10,-2,26,25,-23,-12,-39,-48
1501876699716726,7,12,-21,6,8,9,9,28
1501876699716726,11,-1,15,-19,-5,3,14,48
1501876699718727,-6,-9,-12,-14,-10,-6,-21,-55
1501876699718727,-1,16,15,50,8,0,7,4
1501876699739731,-10,18,-17,-46,-13,-11,-3,-17
1501876699739731,10,-35,25,-21,23,8,-5,6
1501876699740724,-2,-9,-26,-45,-1,-1,13,58
1501876699740724,-4,-20,7,21,-26,-3,-8,-20
1501876699752755,3,26,30,23,-19,2,2,-1
1501876699752755,1,21,-22,-3,68,4,-3,5
1501876699761728,8,-9,-21,-3,19,-4,10,48
1501876699761728,-10,-13,5,-31,-36,-2,-12,-50
1501876699776728,-1,-21,0,46,25,2,-1,24
1501876699776728,2,29,26,14,-27,-14,8,30
1501876699778730,-7,-11,-10,-49,13,5,-19,-54
1501876699778730,6,10,-50,-28,0,0,10,39
1501876699799740,-12,-35,4,-18,1,-6,-6,-11
1501876699799740,-2,22,-9,6,-36,0,0,-20
1501876699800731,-5,-43,-17,5,23,-2,-6,7
1501876699800731,3,29,49,55,49,-2,19,16
1501876699821748,-11,-12,-5,26,5,-1,-33,-73
1501876699821748,-4,5,6,19,-105,-8,-1,13
1501876699823731,6,20,-17,-25,55,5,-2,3
1501876699823731,1,3,-19,-30,-15,1,-4,5
1501876699836792,-2,7,30,2,12,2,8,-1
1501876699836792,-9,-26,-40,-15,-41,-16,0,-3
1501876699838764,7,31,9,16,22,8,2,15
1501876699838764,-7,-18,10,18,17,4,-7,-41
1501876699859755,-2,-5,-3,2,-41,-4,2,16
1501876699859755,-2,14,-22,-33,82,0,-2,-31
1501876699860733,0,-1,17,23,-30,-7,-4,27
1501876699860733,5,-6,19,-4,40,4,7,14
1501876699881744,-3,1,-34,3,-24,-4,-1,-21
1501876699881744,6,-17,-5,12,-37,2,-12,-15
1501876699883767,-1,22,7,-73,-11,-7,5,-19
1501876699883767,-9,-5,20,11,10,-2,-7,-11
1501876699895776,6,-21,17,0,-14,-1,7,14
1501876699895776,-4,9,8,-7,9,3,-5,22
1501876699902754,-2,10,-24,28,-51,-6,-3,-18
1501876699902754,4,14,26,20,-57,-4,4,9
1501876699919746,-3,-4,-22,-39,69,9,5,10
1501876699919746,1,-3,16,-7,-15,0,12,31
1501876699920737,-12,9,3,44,-7,-11,-21,-67
1501876699920737,18,19,12,-7,-24,8,7,39
1501876699941776,-15,-15,-37,-47,3,-6,-10,-51
1501876699941776,2,-18,9,18,-5,-1,-4,13
1501876699943738,-1,-19,-9,5,42,15,8,-1
1501876699943738,-1,6,29,2,-55,-6,7,44
1501876699956778,-1,0,8,9,15,5,-13,-62
1501876699956778,1,23,9,-5,43,3,-3,-17
1501876699962778,-10,-27,-1,-2,-34,-7,9,23
1501876699962778,5,-5,-26,10,9,-6,-11,7
1501876699979750,12,17,8,4,10,10,7,16
1501876699979750,-5,-6,-20,-3,-29,1,6,5
1501876699980741,-9,6,8,25,-6,-11,-15,-28
1501876699980741,6,21,-18,-27,44,-1,4,33
1501876700001805,-1,-33,17,14,-35,-7,-5,-5
1501876700001805,-5,1,-23,-43,38,0,-5,-15
1501876700003742,7,-10,-17,0,13,3,10,5
1501876700003742,-10,-6,4,0,-22,-7,-7,-4
1501876700015781,0,0,15,31,42,1,5,3
1501876700015781,-3,5,12,13,-17,5,1,-6
1501876700022807,7,15,25,14,-47,-11,0,-4
1501876700022807,5,-31,-13,3,24,9,8,33
1501876700039753,-9,-10,-49,3,-20,-3,-6,-7
1501876700039753,2,-3,26,-31,12,-2,-3,-5
1501876700040762,-2,5,-17,8,-26,3,2,-14
1501876700040762,3,-1,-18,22,8,6,11,17
1501876700061805,3,7,52,1,19,1,-5,2
1501876700061805,-4,-1,-25,15,-38,-8,-3,-13
1501876700063761,5,-6,19,-9,6,-1,1,34
1501876700063761,-18,-20,-25,-5,10,-2,-4,-35
1501876700075783,3,9,2,5,-8,-2,0,-4
1501876700075783,3,2,5,-19,4,-2,-3,38
1501876700082796,-12,-28,-8,36,2,-6,-7,-24
1501876700082796,2,3,-1,9,-7,-2,-4,-29
1501876700099758,-4,-3,-13,-14,1,-4,8,27
1501876700099758,11,27,17,-1,-30,-2,6,21
1501876700100749,2,-13,-10,1,6,9,21,65
1501876700100749,-30,-23,1,21,-18,-9,-43,-103
1501876700121812,8,6,-14,-30,5,6,0,1
1501876700121812,0,14,7,-6,-2,-5,-6,-17
1501876700123752,-5,-13,-1,-28,-9,-5,-4,-3
1501876700123752,3,2,-17,-28,6,7,10,23
1501876700135747,4,32,29,34,-10,-3,5,14
1501876700135747,-5,-14,2,-21,-15,0,-3,-20
1501876700142811,2,2,-6,-55,32,-1,-1,-14
1501876700142811,9,-3,1,-2,-8,-3,0,26
1501876700159761,-15,-30,-13,-23,-11,-7,-4,-48
1501876700159761,-4,-4,2,20,-27,-3,7,17
1501876700160750,-2,20,10,0,21,-7,-12,-39
1501876700160750,-2,-2,-25,-23,-5,0,-2,10
1501876700181791,2,5,-3,-2,17,4,1,15
1501876700181791,-8,-12,7,24,-16,-6,-3,18
1501876700183786,7,1,3,-14,7,4,-1,-1
1501876700183786,1,-15,-3,-5,9,2,6,13
1501876700195799,4,34,6,11,2,1,0,43
1501876700195799,-4,-27,-2,12,19,4,-3,-36
1501876700204766,-7,-10,-5,0,-6,0,-4,3
1501876700204766,0,-3,-9,-1,0,0,5,-10
1501876700219765,1,-5,-43,1,-75,-10,6,17
1501876700219765,-6,26,30,-13,46,6,3,-27
1501876700220753,3,-1,-15,39,32,5,-3,25
1501876700220753,11,23,5,-18,-2,-1,2,30
1501876700241817,-6,-52,-31,-13,20,9,2,-10
1501876700241817,-1,9,4,37,-4,-8,1,-7
1501876700243755,16,16,52,49,11,9,8,-11
1501876700243755,-22,-20,-69,-38,-29,-8,-9,-30
1501876700255818,-5,-19,12,15,-6,-9,-4,-11
1501876700255818,-4,-6,-8,-21,27,6,-14,-16
1501876700262795,7,15,17,40,-26,-2,-2,3
1501876700262795,2,20,24,20,30,-4,1,42
1501876700279768,-2,-13,-16,-35,0,-2,-4,-45
1501876700279768,-2,-26,-16,7,-19,-6,-2,9
1501876700280758,-7,-5,0,-46,29,4,1,-3
1501876700280758,2,-10,-1,30,10,-2,-1,-14
1501876700301803,-2,16,21,-21,-3,-2,2,12
1501876700301803,6,15,-6,-10,-22,-4,7,13
1501876700303770,2,25,-2,6,23,0,-9,1
1501876700303770,4,-19,14,-4,-23,0,1,0
1501876700315807,4,3,9,37,55,-1,0,3
1501876700315807,3,-2,15,7,-18,-2,1,19
1501876700324761,-1,13,0,1,-38,-7,-2,-16
1501876700324761,-6,-41,8,-17,21,1,-2,-11
1501876700339774,0,13,-4,16,-8,1,1,16
1501876700339774,7,13,7,-41,12,3,5,-16
1501876700340763,-16,-38,-14,-37,-54,-11,-5,2
1501876700340763,-1,9,0,22,42,5,-3,-23
1501876700361799,3,18,-3,3,-2,4,4,13
1501876700361799,0,-5,-5,9,19,-2,4,-11
1501876700363772,3,-3,-13,-22,-85,-6,-1,7
1501876700363772,-7,-12,-12,-34,56,1,0,-13
1501876700375802,1,12,13,7,0,-6,3,19
1501876700375802,-5,19,18,64,-2,-1,5,19
1501876700384775,9,-25,-18,-71,-9,7,-3,-1
1501876700384775,6,-2,13,8,-17,0,7,44
1501876700399766,-2,1,11,3,7,-1,-6,-25
1501876700399766,3,-12,10,-1,10,-4,-12,-34
1501876700400775,-8,39,7,23,13,-4,8,30
1501876700400775,-7,-35,-10,-2,-13,-1,-9,-56
1501876700421804,5,-4,-1,-9,0,2,8,39
1501876700421804,-1,1,2,1,-14,5,-2,12
1501876700423782,-9,-4,-13,45,39,1,-7,-16
1501876700423782,4,0,-15,-81,-39,-9,-1,1
1501876700435766,0,-3,10,-7,-1,5,5,3
1501876700435766,-2,-15,-33,30,-32,-9,-10,-12
1501876700444778,3,-4,14,0,28,2,-4,-6
1501876700444778,-2,60,51,43,10,2,11,-8
1501876700459779,1,-47,-61,-30,-11,-4,0,23
1501876700459779,-3,15,7,-29,4,2,-2,-18
1501876700460769,-2,-19,-6,15,9,-2,5,22
1501876700460769,2,12,2,-18,-22,4,1,-5
1501876700482769,-3,-2,-8,-5,-21,-6,-9,-42
1501876700482769,1,1,-21,-3,20,3,2,20
1501876700483770,3,5,7,5,-7,-7,-1,11
1501876700483770,1,-20,1,19,2,2,-1,-14
1501876700495814,7,30,20,9,-11,0,2,33
1501876700495814,-8,-27,-24,-30,-3,-5,2,-12
1501876700504782,2,-3,6,7,0,1,-13,-28
1501876700504782,0,15,13,14,-14,-7,-2,28
1501876700519792,-2,-22,21,16,2,2,1,5
1501876700519792,-17,-35,-57,-62,-45,-10,-13,-48
1501876700520771,0,-3,4,7,52,6,7,29
1501876700520771,0,11,-1,14,-13,-3,-10,3
1501876700541838,4,23,20,5,16,1,3,-19
1501876700541838,-1,0,24,39,-6,-4,10,34
1501876700543783,-5,-6,2,-3,-38,-3,-5,-39
1501876700543783,-3,-25,-55,-15,17,-2,-5,0
1501876700555820,-8,8,12,-2,3,0,-2,12
1501876700555820,10,4,8,17,12,4,2,15
1501876700564786,-12,-18,-16,-28,-4,5,-6,-58
1501876700564786,4,29,15,18,-21,-6,0,14
1501876700579776,-4,-6,3,8,-33,-5,-7,1
1501876700579776,4,27,15,-8,33,5,-1,2
1501876700580776,6,-8,-42,-70,35,-3,13,47
1501876700580776,-10,5,18,22,-11,-2,-9,-66
1501876700601842,-5,-11,-16,-12,-11,-3,-5,-3
1501876700601842,3,7,2,1,-21,-5,-8,15
1501876700603809,-3,-10,-23,-14,-23,-1,-4,-12
1501876700603809,1,-7,1,-3,30,5,15,57
1501876700615809,0,5,-17,-26,-8,-6,-15,-67
1501876700615809,4,12,12,17,3,3,7,20
1501876700624796,-3,-14,1,15,-17,-6,-6,-27
1501876700624796,-5,8,5,5,4,-4,11,31
1501876700639791,-1,-9,2,7,-7,-4,-12,-11
1501876700639791,7,3,18,19,38,9,2,7
1501876700640778,-7,-5,-13,-2,-15,-8,-2,14
1501876700640778,11,2,-17,17,-15,-3,-1,18
1501876700662836,-6,-1,-2,-1,10,3,6,-15
1501876700662836,-5,-12,-12,-21,-2,-3,-3,-2
1501876700667825,7,14,13,14,-1,-2,4,25
1501876700667825,-5,3,26,19,-15,1,3,-28
1501876700675826,-2,-8,-6,3,15,-5,-17,-20
1501876700675826,-3,-14,-15,-55,19,11,6,6
1501876700684793,-4,19,-8,26,6,-2,-9,-16
1501876700684793,3,13,7,-13,-13,-4,-5,-3
1501876700699782,5,-17,15,7,2,-5,6,30
1501876700699782,-4,-2,-3,13,-12,-5,-3,8
1501876700700783,2,20,6,10,1,3,6,-3
1501876700700783,-6,-19,-25,-31,25,4,-7,-17
1501876700721796,7,4,34,11,0,1,7,45
1501876700721796,-10,-8,-19,-6,-10,-8,-8,-54
1501876700723785,-1,-1,-16,-10,-8,-1,4,20
1501876700723785,5,33,10,3,-22,-10,-15,-32
1501876700744785,-4,-27,-24,-14,33,3,4,0
1501876700744785,-4,-2,-4,1,4,7,-1,7
1501876700745786,0,-8,36,45,-4,0,5,2
1501876700745786,-7,1,-31,-18,-6,-1,-8,-17
1501876700759795,7,19,16,-16,-20,-6,5,29
1501876700759795,-7,-16,-28,-14,2,1,0,-35
1501876700760787,2,-8,-4,-8,13,-4,-10,9
1501876700760787,7,-4,12,38,-19,4,5,2
1501876700781829,-2,22,16,11,55,12,4,4
1501876700781829,-3,2,0,-16,-9,-5,-11,-53
1501876700783805,-1,-3,6,8,-12,-7,-2,11
1501876700783805,2,-3,2,1,3,-2,3,-9
1501876700804805,-5,-3,-21,-27,-10,-6,-2,-9
1501876700804805,1,15,27,22,22,1,4,24
1501876700805788,3,-12,-42,-30,-8,3,13,19
1501876700805788,-14,-28,18,-9,-1,-2,-12,-12
1501876700818788,11,24,-23,-2,-1,-3,-2,-12
1501876700818788,-10,-10,6,29,-45,-4,-6,12
1501876700819789,1,12,8,-46,40,1,-7,-3
1501876700819789,4,6,3,27,14,7,14,41
1501876700840858,-9,-12,-13,-38,-40,-9,-11,-35
1501876700840858,1,-13,19,-18,-12,-3,-2,-16
1501876700841828,-1,0,9,20,30,6,10,1
1501876700841828,-2,1,-26,-12,-5,-3,-9,2
1501876700863828,-3,3,2,15,2,0,14,26
1501876700863828,0,13,-2,-1,-20,-10,-19,-5
1501876700864791,-3,-3,13,24,-10,3,5,3
1501876700864791,2,-1,3,-27,11,1,-6,-31
1501876700878858,5,16,-3,7,-2,1,1,20
1501876700878858,2,5,4,6,23,1,32,91
1501876700879792,-16,-17,-25,-9,-24,-11,-34,-56
1501876700879792,0,0,15,1,-3,-1,-6,-1
1501876700900835,-7,0,3,30,-12,-6,-6,-24
1501876700900835,1,-9,-12,12,16,-4,-3,18
1501876700901793,10,-6,0,-15,-50,-4,0,19
1501876700901793,-4,-6,6,11,51,8,7,0
1501876700923808,-7,-13,4,-31,-7,0,-5,-10
1501876700923808,4,12,1,14,17,-2,3,-19
1501876700924802,4,6,12,-6,4,11,11,0
1501876700924802,1,2,-27,-1,-23,-9,-2,-12
1501876700938836,0,-23,-5,16,-41,1,0,3
1501876700938836,-2,-23,24,0,37,6,-9,-4
1501876700939797,-3,2,-19,-16,-6,-5,-1,-16
1501876700939797,-4,2,4,2,-10,1,11,-13
1501876700960834,8,8,-6,27,3,-2,-2,36
1501876700960834,5,13,1,-21,-18,3,6,10
1501876700961810,-2,-1,15,11,5,-9,-10,2
1501876700961810,3,-12,-10,-24,-10,-2,5,30
1501876700983836,-8,4,1,2,-2,-2,1,5
1501876700983836,2,2,-20,-14,-28,-3,-1,-50
1501876700984798,2,-2,15,6,30,3,4,32
1501876700984798,-4,14,3,10,-40,-5,-4,-13
1501876700997866,1,-7,-7,-18,23,8,-3,-5
1501876700997866,12,5,-4,1,10,-3,3,20
1501876701005815,-8,-7,2,6,-1,-3,-1,16
1501876701005815,-1,10,4,-19,-23,-5,-3,-23
1501876701020839,1,10,21,57,34,6,4,10
1501876701020839,-13,-8,-16,-14,-4,-2,-7,-14
1501876701021798,1,22,-4,-45,-44,-12,-7,-23
1501876701021798,0,-19,-11,10,39,6,3,-14
1501876701043849,-7,-16,3,-5,3,3,4,9
1501876701043849,-1,7,18,9,-19,-2,7,21
1501876701044802,-4,-1,-33,-13,6,3,-12,-38
1501876701044802,0,-7,20,60,20,5,-2,10
1501876701057871,0,-4,-5,-55,-42,-14,4,34
1501876701057871,-8,-10,4,-50,56,5,-20,-78
1501876701065807,6,11,11,21,-5,-3,10,18
1501876701065807,-2,3,5,11,-20,-1,-7,-12
1501876701080843,-6,8,-13,-35,9,0,-4,-32
1501876701080843,-1,14,-20,-8,-30,-3,8,43
1501876701081832,-1,-8,19,13,-3,-1,-1,4
1501876701081832,-4,-16,-5,-46,4,-1,-9,-33
1501876701103844,2,1,8,22,-2,-5,6,21
1501876701103844,-5,-13,-9,14,5,2,-3,-29
1501876701104805,2,-5,-7,8,9,6,5,10
1501876701104805,1,3,14,6,13,-9,-2,14
1501876701117866,-10,-18,-23,-2,-21,-7,-5,-15
1501876701117866,7,-6,2,16,-12,1,5,10
1501876701125846,6,-6,-8,30,27,12,8,4
1501876701125846,-7,-2,-13,-28,-19,-4,-10,27
1501876701140847,-2,16,14,35,40,7,-2,-27
1501876701140847,2,-33,-13,-47,-33,-2,7,60
1501876701141810,-4,11,-1,-5,-12,-9,-11,-79
1501876701141810,2,6,-4,-26,0,1,12,33
1501876701163878,-8,-26,12,36,-11,0,-11,-54
1501876701163878,-3,5,-5,20,0,-10,-9,2
1501876701164846,2,7,-5,-4,-36,5,5,9
1501876701164846,-7,-14,-1,-10,19,-4,-4,-1
1501876701177851,1,1,-27,-4,22,0,-3,-6
1501876701177851,-1,8,5,12,-16,-1,5,13
1501876701185851,3,16,10,-13,-7,-5,-3,20
1501876701185851,9,-7,-10,11,-10,-2,18,41
1501876701200855,-14,-14,6,-23,-9,1,-24,-56
1501876701200855,1,-7,-5,21,11,1,-8,-15
1501876701201810,-4,-3,2,-4,14,-5,2,9
1501876701201810,6,2,-11,-1,0,3,3,35
1501876701223875,-1,30,18,10,27,0,-3,-46
1501876701223875,-10,-27,-18,-41,-9,-3,-6,0
1501876701224849,2,1,-2,6,-2,0,-4,-11
1501876701224849,-2,-20,13,9,-17,-6,-2,-7
1501876701237850,11,12,-18,-21,9,8,18,42
1501876701237850,-1,7,5,10,-12,-2,-5,2
1501876701245881,-3,-3,-5,-5,31,4,6,-3
1501876701245881,2,-15,11,23,-56,-11,-10,-2
1501876701260854,1,2,-2,-13,50,9,9,25
1501876701260854,2,8,14,28,2,-6,-1,35
1501876701261814,-1,12,24,7,-3,7,-1,-32
1501876701261814,1,5,-1,27,-4,-3,-5,-29
1501876701283853,5,-5,-5,-23,-7,4,6,1
1501876701283853,-4,14,23,34,12,0,-7,-2
1501876701284816,2,-17,-46,-52,-26,-10,-5,19
1501876701284816,1,28,8,-6,36,12,2,-30
1501876701297826,-3,-16,-8,-3,-38,-11,-9,37
1501876701297826,5,4,4,-4,-5,-3,8,13
1501876701305882,-12,-9,33,24,25,2,-7,-31
1501876701305882,-3,30,-14,6,1,-1,-3,-25
1501876701320876,0,-8,-3,13,15,-5,4,20
1501876701320876,5,25,9,-12,-21,6,12,1
1501876701321828,-8,-48,-31,-4,-5,-5,-18,-3
1501876701321828,2,-7,-7,-24,1,-2,-1,31
1501876701343866,1,1,3,9,-8,-2,3,-8
1501876701343866,-4,3,12,36,-73,-7,5,-4
1501876701344819,-3,13,-16,-39,82,10,-4,-42
1501876701344819,2,-20,-32,-6,28,6,0,28
1501876701357857,1,12,1,12,-36,-6,0,25
1501876701357857,-3,-8,2,-6,-7,-1,-9,-40
1501876701365828,4,24,10,9,-27,-5,13,22
1501876701365828,-3,-2,20,2,-4,-2,1,-4
1501876701380889,-1,-5,-9,1,-5,-2,-10,2
1501876701380889,2,19,-12,-5,48,6,1,-1
1501876701381854,0,-18,-10,-30,-25,-6,-6,5
1501876701381854,1,9,12,1,10,4,6,-10
1501876701403855,6,-8,-5,6,-3,-1,5,26
1501876701403855,-8,-10,-17,9,11,0,1,-19
1501876701404824,1,-8,22,36,-6,-1,-2,17
1501876701404824,-2,-5,-33,-22,-39,-2,0,0
1501876701417865,0,8,16,-14,9,0,-1,13
1501876701417865,-2,-13,-26,-14,5,2,-6,-20
1501876701425892,-3,5,5,27,-6,-3,3,1
1501876701425892,1,12,18,0,14,10,14,18
1501876701440866,-4,-10,0,0,-7,-4,-18,-56
1501876701440866,6,11,4,-13,9,-1,2,11
1501876701441825,-3,-10,8,36,2,-5,9,-3
1501876701441825,6,-4,0,-13,-10,1,-8,15
1501876701463894,-1,4,14,-9,8,-2,4,2
1501876701463894,-6,-23,-18,15,11,2,-5,3
1501876701464856,2,5,-5,-20,-17,-5,0,12
1501876701464856,-2,-5,32,4,10,-9,3,32
1501876701477867,-2,18,-30,-2,0,1,4,-27
1501876701477867,5,-12,9,17,5,3,-9,-2
1501876701485867,1,20,-41,-41,23,4,-1,10
1501876701485867,-9,-22,78,-3,-9,-9,-8,-40
1501876701500866,-1,-7,-9,-2,-13,-1,0,37
1501876701500866,-2,8,26,8,2,-4,-5,-31
1501876701501828,1,-3,-29,-14,-12,4,-1,7
1501876701501828,2,14,45,17,8,-1,-1,-7
1501876701523897,-4,-15,-31,10,-12,-8,5,9
1501876701523897,-3,-4,-4,-13,26,3,1,-10
1501876701524830,-1,-9,13,-1,-10,-2,-8,12
1501876701524830,-6,11,-14,2,-10,-4,-7,-39
1501876701537899,0,-11,24,5,2,5,1,4
1501876701537899,0,-1,-16,-12,-4,-4,-6,3
1501876701545895,4,5,3,11,-5,-2,8,35
1501876701545895,-8,-12,-23,-6,30,5,-5,-29
1501876701560897,5,9,10,-5,-10,-3,-6,6
1501876701560897,1,-10,-8,-6,-2,-1,5,31
1501876701561845,-5,-1,22,11,-19,10,8,-21
1501876701561845,0,23,-26,-5,21,0,-8,-23
1501876701583895,1,-15,12,0,15,-1,-3,-26
1501876701583895,-5,7,-20,-24,-31,-1,6,47
1501876701584868,9,9,22,1,-1,0,-10,-41
1501876701584868,-5,-16,-40,-15,-6,-4,4,11
1501876701597901,-2,2,-5,-2,2,-7,-9,-24
1501876701597901,-1,2,25,-7,1,0,0,-3
1501876701605879,-1,8,-7,16,1,-6,2,9
1501876701605879,-4,-27,-13,16,-33,-5,-7,-7
1501876701620902,5,10,13,-39,31,-1,8,52
1501876701620902,-9,6,-10,23,-19,0,-13,-78
1501876701621849,1,-4,16,-9,42,3,-1,16
1501876701621849,3,10,-34,8,-24,-11,1,-15
1501876701643843,1,-13,-12,8,11,12,6,40
1501876701643843,4,3,-6,-9,-7,-3,1,8
1501876701644837,-10,5,18,-10,-4,-3,-8,-35
1501876701644837,10,7,-7,6,-4,4,3,4
1501876701657878,-14,-14,-2,-1,-8,1,-5,-36
1501876701657878,8,18,23,-4,4,-13,1,20
1501876701665909,0,-20,-26,-10,-4,8,3,10
1501876701665909,-6,-7,-5,4,-10,0,4,37
1501876701680905,7,27,-4,0,-19,-1,-4,-18
1501876701680905,-1,-28,-6,-11,6,1,-2,-8
1501876701681838,-1,8,23,41,16,-2,4,16
1501876701681838,-2,-11,-29,-66,6,-2,-5,5
1501876701703879,1,9,-10,-20,14,1,6,25
1501876701703879,-12,-23,4,21,-6,-6,-10,-36
1501876701704853,7,8,6,4,-3,2,-7,3
1501876701704853,-6,-17,-3,24,13,3,-2,-11
1501876701726848,-1,8,2,-4,-11,-2,-1,-20
1501876701726848,0,7,-23,-19,-3,-5,1,25
1501876701727853,-4,6,-2,1,-11,0,2,4
1501876701727853,-2,-31,11,3,-29,-6,-3,-49
1501876701740902,-3,-12,-21,45,34,0,-7,30
1501876701740902,-2,3,4,-25,-15,-1,-3,-25
1501876701741874,0,7,-7,-15,16,1,4,0
1501876701741874,2,8,5,-3,7,4,11,33
1501876701763887,-6,1,25,36,-17,-11,-16,-52
1501876701763887,-1,7,-8,-7,-22,-2,-2,18
1501876701764842,-4,-26,-7,-26,-1,-4,-4,-2
1501876701764842,-3,-3,22,-4,-1,-3,-3,6
1501876701786912,-2,-4,-29,-12,-15,1,6,-2
1501876701786912,3,14,19,12,3,-1,10,31
1501876701787844,-1,-5,-23,0,10,-1,-10,-7
1501876701787844,-4,1,5,-23,-23,-2,-10,-1
1501876701800856,-3,-11,9,5,8,-1,-5,-29
1501876701800856,11,17,6,6,35,9,7,20
1501876701801845,-9,-29,1,12,-29,-9,3,5
1501876701801845,-2,5,-10,27,24,2,-3,10
1501876701823888,-1,9,12,-38,-17,0,2,-3
1501876701823888,-4,-22,-10,14,-10,-5,-1,2
1501876701824848,-7,-5,6,-5,-8,-1,-6,-46
1501876701824848,-3,4,8,19,0,1,-2,6
1501876701846914,3,-2,-23,-38,48,-2,-6,6
1501876701846914,-3,-2,7,8,6,3,2,-18
1501876701847860,2,11,4,-2,-15,-7,-3,11
1501876701847860,-1,-19,-18,-2,12,1,3,-11
1501876701860887,1,12,17,4,-30,0,8,19
1501876701860887,-8,-22,-12,5,10,-7,-10,-9
1501876701861863,4,17,4,23,6,6,-1,14
1501876701861863,2,14,-14,-10,12,4,3,0
1501876701883893,2,-6,19,10,-4,2,5,11
1501876701883893,8,17,-5,7,8,3,7,26
1501876701884850,-14,-24,1,5,-30,-12,-10,-32
1501876701884850,4,17,-11,-4,23,6,5,25
1501876701906907,-5,-11,3,7,-23,-5,-15,-40
1501876701906907,1,3,3,-15,2,5,6,14
1501876701907863,1,1,-13,-2,-14,-6,6,27
1501876701907863,-5,10,1,-5,11,-5,-13,-29
1501876701920916,2,-7,3,2,-17,-4,-1,5
1501876701920916,-3,-4,-41,-5,-1,3,1,-20
1501876701921863,-3,-6,-4,3,13,1,1,3
1501876701921863,-1,3,5,-4,-4,-6,-3,4
1501876701943892,2,6,-3,14,-43,-3,7,23
1501876701943892,-3,-2,35,-24,33,1,-10,-54
1501876701944855,2,0,-17,4,2,-1,1,1
1501876701944855,-1,3,14,-5,-8,-3,1,-4
1501876701966918,0,7,-8,1,-9,-8,10,35
1501876701966918,-7,-15,-26,-6,-28,-7,-12,-25
1501876701967867,3,-14,15,-5,28,14,-3,-3
1501876701967867,0,5,22,20,-25,-2,2,7
1501876701980897,1,10,-8,-6,58,5,-5,-17
1501876701980897,-4,-4,-22,6,-25,-9,-1,14
1501876701981856,4,4,3,0,-7,-5,2,19
1501876701981856,-2,-7,-1,-28,-2,3,2,16
1501876702003925,-8,-15,-10,-3,-6,2,-5,-25
1501876702003925,1,14,25,21,-8,0,3,12
1501876702004857,-1,5,-19,-33,19,-4,2,3
1501876702004857,2,2,-8,-1,-7,1,-6,-7
1501876702026877,-1,-1,21,2,13,2,2,-4
1501876702026877,-1,-18,7,-1,15,4,-2,2
1501876702027871,-1,33,7,15,-13,-2,4,7
1501876702027871,4,11,10,16,-18,-7,-1,1
1501876702040859,5,-19,1,-20,20,11,0,-13
1501876702040859,0,2,-45,-16,-16,-3,-6,12
1501876702041881,2,20,10,8,3,-2,9,15
1501876702041881,-10,-30,-9,-3,-21,-8,-2,-14
1501876702063901,8,7,4,24,52,6,-2,20
1501876702063901,5,19,3,-7,0,7,12,29
1501876702064863,-9,-33,-13,-12,0,-7,-14,-34
1501876702064863,7,15,26,5,5,10,12,20
1501876702086902,4,41,-1,-1,-28,-5,-1,-11
1501876702086902,-5,-32,7,-3,0,1,-3,-6
1501876702087875,-1,-5,3,-1,1,-2,4,42
1501876702087875,-7,2,20,22,4,-3,-12,-20
1501876702100926,-7,-32,-65,-62,-39,-6,-6,19
1501876702100926,2,7,15,25,36,4,3,-18
1501876702101870,0,9,16,-12,-13,2,-1,-26
1501876702101870,4,-12,10,-8,2,-9,4,40
1501876702123909,-4,15,20,16,-12,1,-2,-13
1501876702123909,-4,-10,6,18,34,-6,-6,-8
1501876702124864,0,-1,-19,29,-15,-2,-6,1
1501876702124864,1,7,-23,-30,29,5,5,23
1501876702146883,-7,-2,-6,-19,-15,-1,-4,-23
1501876702146883,-2,-8,15,-9,-24,-7,-6,-7
1501876702147888,5,25,4,26,-20,-3,-7,-17
1501876702147888,-5,-19,-25,-2,36,3,2,-3
1501876702160906,-10,-32,3,3,-14,-3,-1,-39
1501876702160906,-1,32,22,-6,-10,3,11,49
1501876702161898,0,-21,-2,-16,-21,-8,-4,-64
1501876702161898,2,0,-27,-9,-15,0,-4,20
1501876702183939,-5,-2,20,8,14,-3,-17,-1
1501876702183939,-3,12,-18,29,-9,-1,-3,-9
1501876702184867,1,2,7,-63,-40,-3,11,37
1501876702184867,-6,-23,-12,-28,26,-1,-6,-60
1501876702206882,1,-6,4,5,-6,-1,4,6
1501876702206882,-1,1,-9,4,3,3,1,11
1501876702207870,-1,-8,-33,-3,3,-4,-9,-5
1501876702207870,-11,-7,-10,19,-7,-7,-10,-51
1501876702220932,7,-9,10,-8,-21,0,9,38
1501876702220932,0,15,-9,-13,5,3,2,-5
1501876702221902,-5,-23,25,2,-19,-5,-10,-28
1501876702221902,1,21,-23,-54,23,5,3,3
1501876702243909,-6,-22,-23,-2,0,-10,-6,2
1501876702243909,3,8,9,5,-23,-4,0,6
1501876702244871,6,15,7,10,28,5,4,19
1501876702244871,1,5,11,-6,-43,-2,7,13
1501876702266938,-2,2,-12,-12,23,-1,3,4
1501876702266938,-1,-9,-4,-21,-11,-3,-10,-22
1501876702267875,2,-7,-10,13,-3,-3,-2,24
1501876702267875,1,-1,3,17,1,4,5,-3
1501876702280890,-2,11,7,0,-3,2,-7,-35
1501876702280890,-1,-7,-5,-7,-8,-5,-3,-3
1501876702288872,-6,4,6,38,9,3,-1,-25
1501876702288872,5,7,-2,7,-9,-5,8,39
1501876702303937,1,9,6,13,8,1,-2,-28
1501876702303937,3,-14,7,-9,2,-4,0,-12
1501876702304874,0,11,8,-6,9,6,1,32
1501876702304874,0,10,1,12,-6,-3,2,-12
1501876702325938,-2,-26,6,5,-14,-5,-2,6
1501876702325938,-9,-37,10,20,11,1,-6,-29
1501876702326897,2,27,-27,-55,34,1,4,16
1501876702326897,-11,-32,4,-2,-10,-6,-10,-14
1501876702348928,4,20,0,12,-18,5,19,53
1501876702348928,-3,-21,4,23,1,-1,-10,-31
1501876702349888,-6,-7,4,1,-13,0,4,-12
1501876702349888,-4,-9,4,33,31,0,-16,-49
1501876702363938,-1,9,-10,-30,8,-4,2,36
1501876702363938,1,7,12,3,-24,-1,5,-4
1501876702364877,-7,-12,-34,-13,31,-3,-1,1
1501876702364877,0,13,14,19,-5,0,-7,-9
1501876702393919,8,30,-2,21,-4,-2,-3,-20
1501876702393919,-12,-50,-15,-54,-16,-4,-2,14
1501876702394898,7,40,27,39,-14,-6,-3,-7
1501876702394898,-2,-4,-4,3,-3,1,11,5
1501876702400890,6,-24,-12,19,19,7,-2,-1
1501876702400890,-1,32,-1,6,-14,-1,-2,3
1501876702408918,2,-3,-22,-10,-18,-2,0,27
1501876702408918,5,4,19,-2,4,-7,6,2
1501876702423944,-13,-2,30,-3,-2,1,-10,-64
1501876702423944,10,40,-24,5,0,-1,0,15
1501876702424882,-8,-67,-7,1,14,5,0,1
1501876702424882,20,56,22,15,-14,1,2,14
1501876702445954,-23,-43,-3,-16,19,-2,2,37
1501876702445954,-10,6,-20,1,-3,-6,-11,-61
1501876702446891,7,12,13,-15,-18,-1,1,44
1501876702446891,-5,16,-8,-14,11,4,-10,-47
1501876702460907,10,59,15,2,5,0,8,21
1501876702460907,-4,-102,8,83,-4,-5,-4,-10
1501876702468926,-4,32,8,-39,22,3,-1,-7
1501876702468926,9,18,-5,-5,-9,1,0,8
1501876702483946,-2,0,6,-7,-8,-1,-2,3
1501876702483946,5,73,9,0,2,-1,7,7
1501876702484884,6,-54,-12,-16,22,3,5,5
1501876702484884,-11,-10,12,17,-19,-5,0,6
1501876702505887,-5,-15,-18,-11,-3,-4,-5,-6
1501876702505887,18,28,14,-17,10,2,5,52
1501876702506887,-14,-15,5,50,-11,-10,-13,-43
1501876702506887,4,42,18,-52,21,14,4,31
1501876702520903,-3,-38,-47,-2,-51,-2,-1,-20
1501876702520903,6,21,1,-25,-27,-6,3,29
1501876702528931,-7,17,11,3,39,6,-1,-2
1501876702528931,-5,-18,-27,23,3,-4,-2,-13
1501876702543890,8,7,48,13,-34,-7,4,23
1501876702543890,5,17,-13,-53,5,2,-3,43
1501876702544888,-11,-17,16,10,-1,2,-11,-100
1501876702544888,-8,-68,-2,33,-9,-2,-7,3
1501876702565932,1,12,-11,2,9,-4,-1,2
1501876702565932,-4,9,-4,16,11,0,4,-37
1501876702566923,3,-4,5,-31,-57,-5,-1,30
1501876702566923,-4,-53,5,21,48,2,-1,15
1501876702580906,-4,-28,-4,17,-25,-2,-5,-20
1501876702580906,-1,-74,5,8,52,0,8,22
1501876702588938,-1,22,-1,8,-24,-2,1,3
1501876702588938,12,77,5,-43,-1,7,-1,1
1501876702603966,-6,-63,-38,7,-12,-2,1,7
1501876702603966,-6,1,10,-30,-2,-2,-4,-17
1501876702604892,6,-8,-6,-2,1,-6,0,34
1501876702604892,-3,-31,-15,3,-20,-7,2,6
1501876702625893,4,56,-3,8,24,0,6,6
1501876702625893,-16,-14,-5,-19,-11,1,-23,-40
1501876702626893,-1,-10,4,25,8,-2,-2,0
1501876702626893,12,58,-15,-6,12,7,4,29
1501876702648959,-12,-64,-3,3,14,-2,-5,-49
1501876702648959,-1,9,13,13,-22,-1,3,11
1501876702649914,6,12,-24,-16,12,1,4,-3
1501876702649914,12,49,9,19,-54,-12,-11,11
1501876702663964,-10,-60,-15,-35,33,6,3,-17
1501876702663964,-1,-4,26,22,-9,-1,9,22
1501876702663964,-7,7,4,20,18,1,4,-11
1501876702663964,6,1,-2,1,-4,2,-5,0
1501876702685970,7,46,9,-5,33,3,0,22
1501876702685970,0,10,-7,-1,-9,-5,-4,-34
1501876702686929,9,19,13,34,15,2,0,12
1501876702686929,-16,-42,-37,0,-21,-12,-3,6
1501876702708942,-4,14,10,-18,-17,-3,-7,-5
1501876702708942,-2,-8,-6,4,16,5,5,44
1501876702709906,2,-2,6,-42,-26,-3,5,-29
1501876702709906,-14,-5,8,5,-32,-10,-12,-57
1501876702723937,14,29,5,-1,50,4,1,48
1501876702723937,-1,22,-8,-11,-36,-5,-6,1
1501876702723937,0,-10,-43,15,18,4,0,-4
1501876702723937,-3,-16,-1,-68,-12,1,1,7
1501876702745941,4,46,17,7,-34,-6,-4,-12
1501876702745941,24,80,11,-25,14,-1,7,53
1501876702746907,-15,-63,-5,9,-11,-3,2,2
1501876702746907,-5,-44,15,23,40,7,-3,-4
1501876702768943,2,48,-30,-35,11,-10,-1,-20
1501876702768943,-5,-10,-5,-5,6,6,-7,-17
1501876702769941,2,14,-10,-26,-21,-4,1,21
1501876702769941,4,45,12,31,-10,-1,16,52
1501876702783913,-10,-47,3,12,-36,-6,-19,-58
1501876702783913,-7,-43,-6,1,9,0,-3,-57
1501876702783913,-2,4,12,-20,24,8,-1,-4
1501876702783913,-5,-41,-35,-28,-38,-5,4,23
1501876702805943,2,2,17,40,42,-6,-5,24
1501876702805943,-9,-23,-8,-6,-10,3,-3,-27
1501876702806936,-1,-6,-5,10,-8,-1,4,14
1501876702806936,6,52,1,17,-10,2,4,17
1501876702828974,-1,-37,-7,-40,-34,-10,-6,-27
1501876702828974,-5,-21,-1,12,58,9,4,-1
1501876702829904,-2,37,10,20,3,-6,-11,-3
1501876702829904,9,28,2,-28,9,2,4,15
1501876702843975,-9,-38,6,45,0,9,4,-13
1501876702843975,0,22,-11,-8,0,-1,4,23
1501876702843975,-4,-12,10,2,-12,-7,-1,5
1501876702843975,-8,-55,-11,5,47,-1,-1,-40
1501876702865963,2,23,16,-10,-17,3,8,36
1501876702865963,0,26,-8,7,1,-5,-8,8
1501876702866940,-1,-6,14,45,-24,-9,-13,-65
1501876702866940,5,-3,22,-50,29,1,-2,41
1501876702888968,-10,19,-17,-6,8,12,8,-55
1501876702888968,1,-20,11,7,-23,-7,-3,36
1501876702889942,1,19,-18,-31,13,6,0,-3
1501876702889942,-4,-28,-15,21,-14,0,1,-11
