timestamp,emg1,emg2,emg3,emg4,emg5,emg6,emg7,emg8
1501879247989640,-2,-2,6,13,-3,0,0,1
1501879247989640,6,-3,-16,-30,-5,-4,-7,2
1501879247990643,-10,-3,5,27,-3,-2,4,-1
1501879247990643,-2,-1,-17,5,6,1,0,-4
1501879248012641,3,1,11,16,5,2,0,2
1501879248012641,-1,0,7,-26,-3,-1,1,1
1501879248013640,3,0,-28,-8,-3,1,0,0
1501879248013640,0,-1,5,10,-1,-1,0,12
1501879248026639,-4,1,-5,-13,1,0,-2,-16
1501879248026639,-2,-2,0,30,5,-1,-1,-4
1501879248034641,-4,-1,7,-37,-3,-1,3,-2
1501879248034641,-1,1,13,4,-2,-2,-3,-14
1501879248049641,0,-3,-20,27,3,-1,-5,6
1501879248049641,-4,4,13,-21,-2,-2,4,-8
1501879248049641,8,14,-11,-45,-2,1,0,9
1501879248049641,-6,-7,45,68,7,0,-2,-10
1501879248072656,-2,-8,-37,-35,-2,1,0,-4
1501879248072656,-8,-3,-9,10,-4,-3,-2,-11
1501879248073642,9,10,31,-10,-2,-5,-9,-7
1501879248073642,-16,9,-31,-52,1,0,3,23
1501879248086643,13,21,13,1,3,0,3,-3
1501879248086643,-3,-10,15,17,-3,0,-3,2
1501879248094644,-16,-11,-28,13,8,5,1,-26
1501879248094644,5,-8,0,-22,-7,-5,-19,17
1501879248109662,-6,-24,-20,-46,-19,-8,6,-7
1501879248109662,19,-1,-44,-7,-2,1,-4,31
1501879248109662,14,6,33,-39,11,-1,0,-30
1501879248109662,-18,12,-6,79,-8,-5,0,-12
1501879248132645,9,36,-5,58,12,6,3,13
1501879248132645,-7,12,12,-90,-3,1,1,-33
1501879248133648,14,-26,12,-12,-13,-4,-2,55
1501879248133648,-27,-27,-34,-73,2,0,-6,-40
1501879248146646,2,-19,38,17,-13,-8,-5,16
1501879248146646,-15,40,-17,47,12,6,12,-11
1501879248154648,-7,-1,-26,5,3,3,3,10
1501879248154648,11,-29,-23,-42,-16,-12,-9,6
1501879248169648,-7,-26,11,19,1,-1,-11,-28
1501879248169648,4,7,12,63,-1,-2,9,18
1501879248169648,-15,2,40,-58,-13,-6,-14,-21
1501879248169648,13,-22,-50,-18,3,4,9,25
1501879248192649,1,40,-8,22,10,3,-4,-8
1501879248192649,6,7,-7,-43,-21,-8,2,-22
1501879248193650,10,52,37,-13,7,2,-2,12
1501879248193650,-14,100,13,30,-3,-2,-10,-69
1501879248205663,-13,-125,16,-29,-3,2,12,5
1501879248205663,-3,32,21,13,15,9,18,36
1501879248214651,17,45,-67,1,-9,-6,-5,14
1501879248214651,7,35,2,-1,4,-4,-12,-14
1501879248229652,29,90,38,9,16,7,6,41
1501879248229652,-4,-55,25,62,1,-4,-9,14
1501879248229652,-16,27,24,14,-11,-2,8,-16
1501879248229652,28,-7,-31,45,7,5,6,58
1501879248252652,-8,-31,-33,-43,-30,-21,-28,4
1501879248252652,-35,-44,50,13,16,6,20,1
1501879248253653,-27,-45,-9,111,12,-1,-14,-26
1501879248253653,55,86,-24,-104,-20,-7,-2,91
1501879248274655,-26,-62,25,-32,-7,1,6,-12
1501879248274655,27,-31,-33,-23,-9,-1,-5,-64
1501879248275654,-1,-16,19,-57,13,6,4,-6
1501879248275654,5,-37,33,102,13,3,14,23
1501879248289657,68,93,61,35,2,4,4,8
1501879248289657,-80,-57,-94,-10,-30,-13,-17,0
1501879248289657,-7,-90,-42,-43,2,1,2,6
1501879248289657,10,15,23,121,-2,-5,5,22
1501879248312657,-18,126,-11,33,10,4,-18,-65
1501879248312657,10,54,16,-71,-12,-8,-17,-39
1501879248313657,4,-56,2,78,55,10,12,10
1501879248313657,-13,-18,-14,11,-19,4,-3,37
1501879248335658,-12,-18,6,22,18,3,31,41
1501879248335658,36,127,57,62,-10,2,-23,-71
1501879248336657,-77,-82,-12,-69,-41,-20,-23,-69
1501879248336657,-6,0,27,-28,15,6,3,-41
1501879248350659,-4,-72,-31,-13,-11,-9,2,20
1501879248350659,28,42,-31,97,-25,-3,5,97
1501879248351660,28,90,-29,-9,15,1,30,94
1501879248351660,-32,-122,51,40,19,-7,-28,-95
1501879248372663,-13,20,-45,-31,-32,-4,-7,32
1501879248372663,-28,3,-42,-12,6,13,8,-23
1501879248373659,3,80,-16,20,10,-17,-61,-103
1501879248373659,17,-1,26,64,-9,10,19,115
1501879248394664,-17,-29,-24,21,35,0,-5,-70
1501879248394664,9,-105,18,16,-59,-14,1,66
1501879248395662,-24,103,-16,85,-1,1,14,-35
1501879248395662,6,19,-17,-128,14,8,19,-75
1501879248409664,-6,-4,-38,1,-32,-10,-23,49
1501879248409664,8,26,53,25,59,23,11,-15
1501879248409664,30,26,61,-51,-14,7,-3,-19
1501879248409664,0,127,-47,-22,-49,-14,-4,-4
1501879248432665,12,2,25,9,26,17,22,27
1501879248432665,-22,-89,-82,-48,7,-5,4,-11
1501879248433663,10,10,18,25,-25,-6,17,73
1501879248433663,8,-1,-44,-72,7,-5,6,55
1501879248454664,-18,76,63,4,-68,-14,-13,-7
1501879248454664,1,72,9,-53,45,1,-27,-38
1501879248455664,2,-21,-29,44,19,11,7,17
1501879248455664,-28,-3,63,45,-39,2,-11,-47
1501879248469665,26,54,-32,32,44,0,9,50
1501879248469665,6,-70,44,-23,-51,-27,-17,-14
1501879248469665,10,12,-15,65,11,9,-4,-86
1501879248469665,-36,19,42,-8,19,4,5,45
1501879248492666,12,9,21,7,-23,6,19,26
1501879248492666,-24,-66,-57,44,5,-14,-4,-31
1501879248493667,5,-16,16,-33,13,2,-3,74
1501879248493667,-3,18,-62,-28,7,4,-23,-85
1501879248514669,-4,-29,20,-63,24,1,-1,-34
1501879248514669,-3,24,20,34,-17,1,-8,25
1501879248515667,-1,-84,-19,-14,-10,-5,8,60
1501879248515667,-2,-47,2,-5,29,-6,7,-29
1501879248529683,11,67,30,-31,-38,-1,-8,-34
1501879248529683,15,-40,-13,-18,28,7,17,72
1501879248530669,-15,-4,-24,6,-51,-21,-22,-58
1501879248530669,16,3,8,17,53,15,17,43
1501879248552670,-24,-90,-34,-79,-32,-7,-31,-98
1501879248552670,-23,-78,-27,-46,55,9,11,26
1501879248553671,-8,2,-2,88,-10,-10,-12,-30
1501879248553671,12,13,23,-77,-80,-11,-3,-7
1501879248574673,-4,5,-20,-13,78,17,14,29
1501879248574673,4,99,44,69,-8,-2,-8,-62
1501879248575675,20,-7,17,-45,-21,3,22,46
1501879248575675,-23,-95,-19,45,2,-14,-28,-35
1501879248589672,-3,-14,-2,90,10,5,12,13
1501879248589672,20,45,13,-83,20,7,1,26
1501879248589672,-1,31,-1,-2,-19,9,1,-29
1501879248589672,2,-76,10,70,4,-10,7,25
1501879248612687,-2,51,0,17,-24,-9,-7,10
1501879248612687,11,31,-18,3,0,-2,-2,3
1501879248613674,-10,-89,-1,-12,8,2,3,49
1501879248613674,-2,15,3,-56,-2,4,7,6
1501879248634675,-8,2,22,87,-2,-8,-13,-39
1501879248634675,16,29,-79,-47,-8,0,12,58
1501879248635676,-4,22,47,10,10,-10,-5,-18
1501879248635676,12,60,27,-12,15,15,-8,-44
1501879248649675,-12,-78,-65,-27,-3,-8,-2,-9
1501879248649675,6,10,49,27,-14,-2,-6,36
1501879248649675,3,28,9,112,39,7,14,28
1501879248649675,9,22,-55,-45,-47,-10,-5,-11
1501879248672678,-14,-49,-21,-23,-3,0,0,29
1501879248672678,6,45,65,37,19,3,5,-40
1501879248673677,-7,-24,-48,11,-4,-3,-7,-3
1501879248673677,1,22,62,22,-4,0,10,22
1501879248694678,17,27,-34,-97,35,6,-1,16
1501879248694678,-4,-12,24,46,-44,-8,-1,10
1501879248695680,2,32,6,-110,35,0,-7,-17
1501879248695680,-5,-5,41,111,-8,-6,-6,11
1501879248709683,-11,-30,-9,-60,-9,3,-4,-39
1501879248709683,3,8,-9,-2,0,-1,1,2
1501879248709683,-3,-10,11,43,-5,-1,5,54
1501879248709683,-26,-38,-77,-69,-20,-7,-28,-96
1501879248732682,4,22,-5,2,39,-5,-7,25
1501879248732682,0,29,19,-20,-24,-1,1,22
1501879248733681,11,-33,21,-27,-4,8,10,2
1501879248733681,-5,-3,-17,10,21,2,6,-8
1501879248754683,17,91,47,81,-14,4,30,68
1501879248754683,-16,-65,10,-43,13,-15,-36,-72
1501879248755682,-18,-27,-96,-98,7,0,-17,-22
1501879248755682,-2,-31,12,6,-10,2,6,11
1501879248769682,7,11,-7,37,26,-2,-2,-17
1501879248769682,8,5,5,-42,-15,4,16,48
1501879248769682,4,14,12,33,-32,-11,2,-1
1501879248769682,-3,38,12,28,54,11,2,7
1501879248792687,9,-26,4,-40,-62,-1,2,28
1501879248792687,-4,13,-62,-50,-26,-10,4,-3
1501879248793686,-1,-36,29,24,-13,0,-18,-16
1501879248793686,13,86,37,-11,70,6,20,2
1501879248814686,-35,-14,-11,60,19,3,-17,-34
1501879248814686,3,25,-37,14,1,1,-3,-21
1501879248816686,3,4,32,26,-22,-4,4,5
1501879248816686,11,30,23,13,-32,-4,7,42
1501879248828687,-1,-43,-31,4,-8,-10,-3,-14
1501879248828687,-9,-18,28,-29,26,7,-4,-21
1501879248837687,1,0,-1,-21,-25,-2,10,41
1501879248837687,6,-3,-10,59,-20,1,5,-17
1501879248852689,19,-13,0,-52,47,-7,3,49
1501879248852689,-34,-58,-12,24,0,14,-17,-77
1501879248853688,12,30,22,-16,3,-1,5,20
1501879248853688,-12,-43,-27,-18,33,1,2,15
1501879248875694,-4,24,13,16,-54,-2,4,-11
1501879248875694,9,11,12,51,-4,-8,2,18
1501879248876689,-1,37,-47,-36,15,6,3,-19
1501879248876689,2,-72,-39,-22,-58,-10,-4,31
1501879248888691,-1,6,28,38,-10,2,2,9
1501879248888691,-1,8,-15,-33,33,4,2,-1
1501879248897690,7,43,6,-32,-12,2,-1,1
1501879248897690,-6,14,-4,-44,28,0,-3,21
1501879248912693,-1,-34,-1,26,17,3,-4,-36
1501879248912693,5,0,7,-14,-15,2,8,20
1501879248913692,3,27,41,32,-4,-1,-6,-24
1501879248913692,-6,14,-64,-51,-25,-3,-3,-11
1501879248934694,-7,-8,10,-21,0,-2,-3,-9
1501879248934694,-3,-7,16,58,6,-4,4,4
1501879248936692,15,19,12,-28,2,0,8,23
1501879248936692,-10,-53,12,-33,-45,-6,-17,-38
1501879248948695,0,-1,16,11,15,4,0,-4
1501879248948695,-9,-7,-27,-5,35,-7,-6,-15
1501879248957695,12,43,18,7,8,13,6,43
1501879248957695,2,-93,8,59,17,-1,-8,-17
1501879248972694,1,19,-3,-41,-35,-4,-4,2
1501879248972694,3,9,15,28,-21,-2,5,-24
1501879248973695,-12,-3,-4,58,12,-3,-4,-20
1501879248973695,7,23,-10,-70,-5,-3,-1,16
1501879248994697,-4,-22,16,33,-89,-10,-1,3
1501879248994697,17,-1,10,38,76,2,4,29
1501879248996696,-10,-9,-67,-93,-7,2,-9,-42
1501879248996696,-7,-23,-11,39,16,4,9,28
1501879249008698,-2,39,27,4,28,-1,3,0
1501879249008698,8,-13,11,-55,-68,2,-2,9
1501879249017698,-5,7,19,33,26,2,4,-11
1501879249017698,-4,28,8,-2,-18,-12,-7,8
1501879249032700,3,12,4,12,20,6,5,25
1501879249032700,-1,-12,-39,-70,-9,-1,-8,14
1501879249034699,6,22,3,8,-11,-12,-3,4
1501879249034699,-7,-14,6,1,11,2,-2,-33
1501879249055717,-8,-76,-19,18,10,-3,-4,-10
1501879249055717,-2,36,7,52,-14,2,-2,-18
1501879249056714,0,-48,-18,-66,-6,-2,1,20
1501879249056714,-10,21,20,2,18,2,4,13
1501879249068702,-1,34,6,4,-23,-6,-13,-21
1501879249068702,4,-39,17,39,0,1,9,32
1501879249077701,-8,-27,-47,-68,-27,-11,-18,-22
1501879249077701,6,10,29,26,2,1,2,0
1501879249092703,-4,-1,-5,19,61,-4,-1,25
1501879249092703,14,99,21,-13,-26,5,6,-26
1501879249093703,-7,-87,-25,37,20,1,1,10
1501879249093703,4,40,24,32,8,2,2,-31
1501879249114704,5,-12,-29,-54,-14,-4,-8,-21
1501879249114704,-19,-33,-6,-9,-5,-1,-4,15
1501879249116703,-3,39,29,6,22,5,8,30
1501879249116703,12,-15,-27,-24,-15,0,7,-9
1501879249128708,3,7,6,-16,-24,2,7,7
1501879249128708,-1,-6,10,9,-1,-11,-15,-18
1501879249137704,-7,-12,13,19,14,5,-3,-18
1501879249137704,-2,-3,-19,-39,17,2,1,32
1501879249152706,4,19,14,-23,8,5,11,8
1501879249152706,3,9,3,-4,-5,-1,3,2
1501879249153706,2,-18,-36,23,-33,-4,-5,-18
1501879249153706,-5,43,42,73,19,-4,-7,-9
1501879249174707,-9,-46,-25,9,13,8,3,-12
1501879249174707,-4,-29,-15,-19,-16,0,9,13
1501879249176706,7,-3,29,4,-6,-1,-7,10
1501879249176706,0,10,-50,12,-41,-4,-3,3
1501879249197709,-13,5,-6,7,12,-10,-8,17
1501879249197709,8,-26,10,23,35,8,3,12
1501879249198708,11,28,21,-15,5,-1,4,7
1501879249198708,1,-5,-56,-24,-52,-4,3,2
1501879249212710,-16,-36,12,40,15,-6,-11,-10
1501879249212710,-6,11,-27,-70,-7,-1,-5,6
1501879249213711,-11,22,16,-9,-5,-3,2,-10
1501879249213711,-4,-47,12,28,11,-2,-4,-1
1501879249234710,19,99,11,-7,-20,-2,12,-26
1501879249234710,-18,-88,-26,40,56,-3,-16,17
1501879249242710,13,3,4,22,5,7,2,45
1501879249242710,-22,-48,29,-9,-14,-1,-5,-70
1501879249257718,1,0,-46,-5,40,-6,-14,-2
1501879249257718,7,35,15,-6,-47,3,3,-33
1501879249258727,-9,-25,6,1,2,-4,1,-8
1501879249258727,9,60,38,7,9,6,7,32
1501879249272712,-10,-78,-11,-32,0,1,1,-21
1501879249272712,-13,11,2,5,-72,-9,-1,-18
1501879249273712,2,-12,-16,5,40,2,4,47
1501879249273712,7,16,-6,10,47,13,-1,-45
1501879249294722,-15,16,9,-42,-24,0,-8,-26
1501879249294722,12,32,10,-1,-13,-4,-2,19
1501879249296714,-1,20,14,45,-1,-9,5,-16
1501879249296714,3,-45,-11,-31,-12,1,0,49
1501879249317716,4,35,-9,3,-21,-1,-8,-28
1501879249317716,-9,-35,23,-1,50,-3,6,12
1501879249318716,-9,-1,-18,4,-20,1,-11,-54
1501879249318716,7,17,28,4,14,1,4,14
1501879249331716,4,35,-24,7,-66,-4,1,18
1501879249331716,-3,-19,39,47,64,-5,-1,26
1501879249338717,-14,18,-41,-83,11,1,-22,-46
1501879249338717,10,-30,-1,-17,-4,-1,1,46
1501879249354720,-7,-18,11,-33,-15,-1,-3,-21
1501879249354720,8,46,-6,8,-12,1,5,3
1501879249356717,-7,-21,15,33,-20,-3,5,4
1501879249356717,4,37,17,14,7,-5,-2,5
1501879249377728,0,21,35,10,7,3,10,30
1501879249377728,-3,22,-51,-31,35,1,-14,-43
1501879249378719,1,-22,12,16,-23,2,3,6
1501879249378719,1,-22,-22,5,7,-3,3,11
1501879249391723,-4,-22,16,29,22,2,3,1
1501879249391723,-6,-12,-29,-32,-29,-4,-2,-21
1501879249398719,6,28,9,21,-8,-1,-3,-15
1501879249398719,-13,-1,-2,3,-8,-8,-5,-2
1501879249414721,5,-15,6,26,-1,-2,1,22
1501879249414721,4,7,-3,7,1,1,2,11
1501879249416721,10,62,1,-20,-8,-1,8,7
1501879249416721,-12,-28,-5,18,-21,-2,-2,-11
1501879249437724,4,-52,-29,-14,36,-11,-10,-22
1501879249437724,-27,-60,-14,-26,8,1,-12,-12
1501879249438723,1,7,25,11,-18,-7,-1,-6
1501879249438723,5,8,-32,-2,-15,-5,-1,-23
1501879249451723,-4,37,24,29,-6,10,1,40
1501879249451723,7,26,5,-27,-17,1,-1,-38
1501879249458724,-10,-64,-7,31,-2,-4,0,7
1501879249458724,1,29,23,-17,9,-1,4,19
1501879249474726,15,50,11,-47,-8,-2,-2,-15
1501879249474726,5,-26,-24,49,11,-3,4,45
1501879249476724,8,6,-35,-13,-29,6,19,31
1501879249476724,-17,-10,9,-18,9,-6,-33,-52
1501879249497728,7,-3,13,16,-14,3,4,-17
1501879249497728,0,12,-24,38,-23,-5,-4,4
1501879249499729,2,-6,-12,-46,-13,-6,2,5
1501879249499729,-5,21,8,8,43,1,1,-15
1501879249511728,-6,-41,-8,-20,-13,1,-4,-2
1501879249511728,7,62,40,0,-54,-4,1,17
1501879249518728,-9,-81,-18,38,68,1,-7,-13
1501879249518728,12,12,-5,-24,-33,2,6,4
1501879249534728,-2,-28,-8,-4,14,-2,5,8
1501879249534728,-6,3,27,21,10,2,-4,-3
1501879249536729,1,21,7,-44,-8,-4,-8,-28
1501879249536729,-6,-20,-57,-49,-17,-6,-5,1
1501879249557729,-1,6,11,20,-28,-2,0,8
1501879249557729,7,11,-27,-4,53,8,12,16
1501879249558730,0,-51,-7,13,11,1,0,12
1501879249558730,2,23,26,-3,8,3,7,28
1501879249572741,-15,-27,-21,7,-13,2,-4,-41
1501879249572741,3,-3,17,4,-13,-5,0,11
1501879249578730,-2,38,12,56,-5,-1,-6,-44
1501879249578730,4,0,4,-27,32,9,11,-9
1501879249594732,-2,-12,-69,-45,-1,-6,2,43
1501879249594732,4,1,3,-9,-55,-4,0,-11
1501879249596731,-16,-3,14,19,55,1,-12,-34
1501879249596731,7,30,1,0,-37,-1,3,18
1501879249617733,-2,24,23,41,21,-2,-2,-29
1501879249617733,-9,-70,-18,-36,0,7,-1,-4
1501879249618734,8,31,5,-25,-27,-5,-5,11
1501879249618734,-8,-15,-7,15,-2,-1,-5,3
1501879249632735,14,13,26,31,-5,0,1,34
1501879249632735,-12,9,-22,-20,31,-1,-5,-58
1501879249638735,-1,13,27,2,-35,-4,6,21
1501879249638735,-13,-17,-16,2,26,-2,-9,-24
1501879249654735,5,3,-17,-3,-5,-2,-2,20
1501879249654735,5,29,36,44,-8,-1,3,-6
1501879249656736,1,-11,-18,-22,-5,2,-4,-11
1501879249656736,2,39,3,24,-10,-5,-2,27
1501879249677747,-6,-40,12,-17,10,1,-4,-20
1501879249677747,3,1,14,-12,14,1,1,16
1501879249678745,4,8,-60,0,-11,-7,10,63
1501879249678745,-7,-14,11,20,-25,-6,-12,-37
1501879249690740,-5,-1,-30,-23,19,3,-1,1
1501879249690740,-1,0,11,-12,-23,-10,-8,-4
1501879249699736,5,6,7,7,6,7,11,29
1501879249699736,2,-12,10,1,15,-2,-3,4
1501879249714738,-3,2,2,0,-16,-6,-5,-6
1501879249714738,-3,-15,1,19,34,2,2,0
1501879249716738,-1,18,10,-13,-21,1,1,-3
1501879249716738,-7,-34,-12,-10,-17,0,1,-3
1501879249737739,-2,-2,-8,-10,-2,-3,-7,0
1501879249737739,4,23,1,40,19,-1,-5,-24
1501879249738743,-12,-19,11,-80,-10,-1,-3,12
1501879249738743,7,-3,-16,13,9,1,7,-9
1501879249750740,3,5,21,-6,8,2,5,6
1501879249750740,2,13,8,26,0,6,3,36
1501879249759740,11,18,-4,14,-3,-5,-6,-10
1501879249759740,1,-14,5,-9,14,-2,6,17
1501879249775757,-11,-1,8,-18,-10,-1,-2,-15
1501879249775757,-10,-47,-29,-20,-10,-4,-9,-14
1501879249776741,4,23,38,3,34,0,0,-1
1501879249776741,0,-10,-8,27,-14,-6,-3,-9
1501879249797742,6,22,10,-9,-6,-2,6,28
1501879249797742,1,-35,-4,-8,-27,-3,3,17
1501879249798744,-13,6,7,24,44,-10,-18,-65
1501879249798744,6,8,-2,1,-18,15,5,25
1501879249811750,-8,1,-2,12,21,1,0,-10
1501879249811750,2,-8,-10,-23,-20,-3,-4,-5
1501879249819744,-2,-22,16,1,-11,-6,-3,1
1501879249819744,-3,4,-31,-38,-24,-7,-2,-2
1501879249834745,-1,7,4,16,37,5,5,9
1501879249834745,5,-12,0,-17,-12,-1,1,-10
1501879249836746,-6,-26,5,31,6,0,-4,-22
1501879249836746,-9,0,8,11,6,0,-4,-7
1501879249856748,-6,-23,5,22,8,4,3,1
1501879249856748,2,19,-26,-25,8,-1,1,43
1501879249864747,3,11,-7,8,-4,4,-3,-45
1501879249864747,-3,-22,14,-1,-13,-6,-1,-4
1501879249870747,5,3,-24,13,-5,-1,-3,-9
1501879249870747,1,35,-18,7,10,3,10,18
1501879249879748,-4,-16,-9,-37,-9,-4,-9,2
1501879249879748,8,22,30,52,7,3,1,12
1501879249894749,-3,-9,61,6,2,-3,-10,-20
1501879249894749,1,-11,-52,59,7,1,5,26
1501879249896750,2,27,-20,-72,-16,1,3,-30
1501879249896750,-9,-49,14,17,15,0,0,1
1501879249917750,1,28,-15,56,-27,-10,-9,-9
1501879249917750,-3,-17,55,6,16,10,3,7
1501879249918751,1,-8,-46,45,4,6,7,39
1501879249918751,2,9,-12,-40,7,-3,-3,-6
1501879249930752,-1,-6,38,-36,-8,-3,1,4
1501879249930752,-8,-11,-33,8,-32,-13,-10,-31
1501879249939751,11,11,23,39,13,2,6,43
1501879249939751,-3,33,2,32,-4,-1,-3,-17
1501879249954753,-4,-38,-37,-55,19,5,2,7
1501879249954753,13,36,7,4,5,0,-2,2
1501879249956752,-11,-24,16,-16,-30,-2,-7,-65
1501879249956752,4,2,-7,-3,30,-4,2,29
1501879249978754,-8,4,-24,-4,-11,-3,-5,-36
1501879249978754,-5,12,9,-7,-20,-8,-14,-55
1501879249979754,1,-10,14,35,29,6,8,51
1501879249979754,0,-21,-20,-12,-7,-1,-6,3
1501879249990755,1,-1,-28,-25,-23,-4,-1,-5
1501879249990755,-7,-25,-20,-69,5,1,1,-8
1501879249999753,-1,-7,-16,-10,8,-2,1,15
1501879249999753,3,50,25,-10,-4,-2,-2,-23
1501879250014763,3,-28,-19,34,10,-2,3,37
1501879250014763,-7,-12,-1,-54,-32,-4,0,2
1501879250016756,5,1,5,47,9,3,6,17
1501879250016756,-16,2,-10,-19,14,2,-7,-19
1501879250037759,4,8,23,48,-7,4,-1,-2
1501879250037759,9,13,5,-19,6,-4,8,36
1501879250038758,-9,0,1,-25,-24,-10,-7,7
1501879250038758,-2,-23,-24,-14,4,7,5,23
1501879250050761,-6,-50,-5,7,-8,-1,0,1
1501879250050761,-1,-26,46,26,-8,-1,0,-6
1501879250059760,-4,-2,-48,-37,16,-1,-6,-21
1501879250059760,15,21,18,67,-5,-5,1,18
1501879250074760,-16,23,-16,-49,-45,-10,-3,-21
1501879250074760,-2,-27,-4,10,46,11,2,15
1501879250082759,1,4,-9,-16,-9,-2,6,-3
1501879250082759,5,17,7,6,-4,0,-9,5
1501879250097763,6,17,1,-5,8,5,6,9
1501879250097763,-4,27,13,33,4,-4,-5,-12
1501879250098760,0,6,35,37,-14,-3,-4,-7
1501879250098760,-1,-14,-1,-33,17,11,18,25
1501879250110763,4,19,-20,31,-3,-8,-11,-18
1501879250110763,0,7,8,-26,0,3,-2,-6
1501879250119764,2,-9,-5,26,-24,-7,0,14
1501879250119764,3,24,2,-5,-13,-9,1,27
1501879250134763,-11,-24,-3,-18,51,15,7,3
1501879250134763,-11,2,39,69,-5,-5,-25,-66
1501879250140766,7,-17,-39,-65,-11,1,5,37
1501879250140766,-9,-16,-11,18,-18,-2,-12,-54
1501879250157764,3,28,21,-5,11,0,-2,7
1501879250157764,2,13,-29,50,14,-1,7,18
1501879250159775,-3,3,18,-11,-21,3,-1,6
1501879250159775,-2,-17,-3,-21,-12,-9,-4,-30
1501879250179766,2,7,25,-5,-3,-3,-2,-46
1501879250179766,-1,45,-19,-39,9,3,4,25
1501879250181766,2,-43,8,-21,-15,-3,-1,-16
1501879250181766,-4,-5,-2,22,8,-2,-2,2
1501879250194766,3,5,-9,5,-9,0,0,11
1501879250194766,-5,-13,-22,-34,-4,1,5,16
1501879250196766,2,-3,24,38,-12,3,6,-24
1501879250196766,9,13,2,22,41,2,-4,13
1501879250217767,-3,-15,52,-7,-18,-3,-5,-25
1501879250217767,0,9,-55,-21,-18,-8,1,21
1501879250218768,3,9,23,30,0,-3,-5,-20
1501879250218768,-16,-18,-8,-6,-32,-2,-2,-10
1501879250239771,4,7,-20,-72,-3,-2,-1,7
1501879250239771,5,-8,-8,2,17,1,5,23
1501879250241770,-9,19,-6,-12,3,-2,-1,-10
1501879250241770,3,-15,17,-1,-6,-1,-3,-12
1501879250254770,2,19,-44,-17,13,1,2,49
1501879250254770,0,-16,24,-8,-7,0,7,-37
1501879250256770,-7,-22,-12,6,4,-4,-13,13
1501879250256770,-3,-2,14,-5,-7,-1,1,4
1501879250277774,0,4,-31,2,5,-4,-1,15
1501879250277774,4,-6,1,0,3,-2,3,-9
1501879250283776,-14,-39,-34,-15,20,4,-2,-10
1501879250283776,0,8,9,7,-7,0,-2,3
1501879250299774,4,-12,21,39,0,-1,1,-21
1501879250299774,1,9,-23,-27,-45,-7,-8,-19
1501879250301773,4,21,13,19,-2,0,0,-10
1501879250301773,3,-8,-3,-22,9,6,10,38
1501879250314774,-8,11,31,41,5,-4,-5,-4
1501879250314774,1,2,-15,24,-4,-1,-6,-40
1501879250320773,-2,5,-5,-58,13,-2,-4,-1
1501879250320773,-3,-2,7,14,-19,-5,5,-27
1501879250337774,-1,-61,-10,22,14,5,-3,21
1501879250337774,-2,13,16,-31,9,4,-1,10
1501879250338775,-6,-48,-21,-34,-5,-5,-1,17
1501879250338775,0,21,-8,-13,-24,-6,4,1
1501879250359794,-2,1,-6,5,10,3,-1,-39
1501879250359794,-5,-20,8,37,4,-3,0,17
1501879250361777,-2,35,-2,-8,-8,3,-2,-19
1501879250361777,2,11,-3,-14,25,-2,-6,10
1501879250374776,3,-12,-5,-10,-16,-3,9,34
1501879250374776,1,30,24,20,6,-3,-7,-57
1501879250380777,-1,-32,10,24,27,5,6,33
1501879250380777,-2,-14,-15,-5,0,1,-3,-11
1501879250397780,-1,18,-3,-15,16,-1,-4,-1
1501879250397780,-1,16,16,-38,-30,-4,5,33
1501879250398778,9,9,2,53,16,7,3,7
1501879250398778,-2,-13,-13,40,27,7,-2,-21
1501879250419779,-2,4,-29,-58,-47,-15,-10,40
1501879250419779,1,-3,27,-27,23,5,6,-13
1501879250421781,-5,18,2,47,-6,2,3,8
1501879250421781,1,9,-14,-62,-17,-6,-5,22
1501879250434780,-3,4,13,28,21,3,3,-30
1501879250434780,3,-24,-21,-28,-21,-6,0,46
1501879250440781,-15,-14,-27,-23,-15,-3,-10,-102
1501879250440781,-2,-6,-27,-20,8,6,8,1
1501879250457788,8,53,21,20,9,0,2,-14
1501879250457788,-12,-49,6,15,-8,3,-8,27
1501879250459794,10,24,12,-4,39,1,11,48
1501879250459794,-9,-28,-29,-59,-24,-6,-13,-66
1501879250479784,9,22,11,38,-19,4,4,7
1501879250479784,0,-5,-23,-12,16,-3,-1,6
1501879250481786,1,27,19,9,-6,-3,-4,6
1501879250481786,-7,-17,15,9,-7,1,-3,-50
1501879250494784,-1,-14,24,-6,-2,-1,2,4
1501879250494784,4,-17,-21,-4,-1,0,1,-29
1501879250500784,1,-14,-1,10,-3,-4,-6,7
1501879250500784,8,25,17,-9,3,-1,3,22
1501879250517785,-14,-17,-20,17,-5,-3,-3,-15
1501879250517785,5,-3,-1,9,14,7,7,28
1501879250518791,-3,-2,-15,-25,-21,-9,-4,-21
1501879250518791,11,1,40,35,-28,-4,-12,13
1501879250540789,-8,-16,-35,-15,10,-2,-3,-5
1501879250540789,-11,10,1,19,3,-4,-6,-7
1501879250541788,-1,2,-1,-26,4,0,3,-4
1501879250541788,7,9,19,18,-12,0,7,36
1501879250554790,0,5,-5,-2,-4,-4,-1,0
1501879250554790,-4,1,11,17,-24,-5,-8,-15
1501879250560788,7,7,-41,-52,8,2,-1,1
1501879250560788,-15,-5,-5,-2,7,-6,-8,-10
1501879250577789,3,-4,0,-1,5,0,-2,23
1501879250577789,5,6,2,-17,9,1,-2,-25
1501879250578789,-6,12,22,55,-13,-3,-2,-7
1501879250578789,-7,-5,-18,-20,16,0,3,17
1501879250599789,-2,-2,14,2,-21,1,3,-12
1501879250599789,7,6,-26,-7,35,9,-6,-15
1501879250601791,-8,5,31,36,-1,-3,-9,8
1501879250601791,5,2,12,16,10,3,4,23
1501879250613795,0,-9,16,-6,-5,-4,-10,-51
1501879250613795,-6,-17,9,19,-11,-3,9,12
1501879250622791,-1,-1,-14,-26,12,-3,-3,2
1501879250622791,5,21,3,17,11,6,7,22
1501879250637794,-4,-6,-3,28,1,-4,-2,-10
1501879250637794,2,-2,15,-33,-12,4,-2,-34
1501879250638792,8,19,10,32,21,0,-1,11
1501879250638792,-10,-40,-35,-21,-10,-1,-1,-21
1501879250659805,2,8,-2,7,13,2,2,20
1501879250659805,0,-3,9,-3,-1,-3,1,15
1501879250661796,1,0,4,-3,-16,-1,0,9
1501879250661796,-5,1,23,13,12,-1,-5,-15
1501879250673794,-1,-30,-33,-11,-19,1,2,37
1501879250673794,-3,-6,-17,-23,-7,-11,-5,-5
1501879250682795,2,14,15,18,-20,-1,-11,-4
1501879250682795,2,14,-16,-2,-8,2,5,3
1501879250697795,1,14,-1,11,24,4,2,8
1501879250697795,-12,-14,-13,-20,0,-6,-7,-17
1501879250698796,1,-5,6,10,-14,2,10,18
1501879250698796,1,35,5,-7,-4,-7,-11,3
1501879250727797,-6,-49,-8,-19,9,0,1,-13
1501879250727797,9,18,20,28,-8,4,9,19
1501879250728797,-7,-8,-19,-22,2,0,-4,-2
1501879250728797,5,18,10,0,-6,-3,-3,-6
1501879250733799,1,14,7,8,-7,2,4,0
1501879250733799,3,6,3,-19,-3,-5,4,22
1501879250742808,-10,-38,-19,-35,16,-6,-5,-28
1501879250742808,5,6,-10,-17,-34,-1,2,19
1501879250757802,1,13,5,-4,33,4,-5,-13
1501879250757802,-13,1,15,13,22,3,-7,-36
1501879250758800,4,6,6,16,3,-3,3,18
1501879250758800,-6,-4,-8,3,-1,0,-2,-28
1501879250779801,3,18,2,-8,-19,-4,-6,-11
1501879250779801,-5,-37,5,27,1,-5,-8,9
1501879250781801,-3,6,6,-18,-25,-1,-1,-28
1501879250781801,-8,-20,-40,-25,9,-4,-2,-4
1501879250793801,8,28,25,14,-15,-4,6,8
1501879250793801,-1,27,-20,-5,6,5,-2,6
1501879250802803,4,-24,7,11,0,0,2,8
1501879250802803,0,-10,2,18,-6,-4,-6,-10
1501879250817803,-3,-7,3,-44,-10,2,0,13
1501879250817803,5,17,-7,9,-1,-6,-5,-4
1501879250818803,1,-19,-8,2,3,2,9,41
1501879250818803,-6,10,18,19,-14,-2,-7,-26
1501879250839805,-9,-11,-35,-47,5,-3,3,7
1501879250839805,-2,8,5,-4,-6,-1,3,-10
1501879250841804,-3,13,11,1,-3,2,-2,-20
1501879250841804,3,4,24,9,22,-1,-1,5
1501879250853806,-4,4,-3,27,19,6,-2,-25
1501879250853806,3,-7,8,-6,-16,-1,3,29
1501879250862806,-7,-6,-3,5,1,-2,-10,-38
1501879250862806,-2,-25,-33,-16,-3,-2,1,15
1501879250877824,-2,10,-24,22,-21,-5,-6,-13
1501879250877824,5,6,-6,32,45,5,3,8
1501879250878806,3,26,-12,-32,-3,-6,-4,7
1501879250878806,1,-28,30,23,8,5,8,23
1501879250899809,-5,-14,-18,-25,-10,-2,-3,-14
1501879250899809,-9,-2,8,10,-20,-4,-9,-8
1501879250901808,1,1,21,24,7,-2,0,-4
1501879250901808,0,3,-41,-21,-3,-1,-1,-1
1501879250913813,6,-2,21,-8,8,2,6,11
1501879250913813,-5,11,7,13,-34,-5,-10,-15
1501879250922810,1,30,-8,-17,28,0,4,28
1501879250922810,5,-32,2,-23,18,2,7,5
1501879250937810,-4,-4,1,6,-8,0,1,0
1501879250937810,-3,-9,-7,4,-7,-5,-9,-13
1501879250938810,4,10,7,23,-30,1,2,5
1501879250938810,-5,1,32,16,14,-4,-1,20
1501879250959812,10,29,-17,-40,-4,6,4,-4
1501879250959812,-6,-18,-7,-31,11,-2,-5,-14
1501879250961815,2,5,14,-3,-8,-1,1,-6
1501879250961815,-7,-5,0,25,1,-3,-7,-4
1501879250973811,4,2,-4,-27,-11,-4,-1,20
1501879250973811,3,-12,8,-9,-13,-1,12,2
1501879250982812,4,13,-4,26,-3,2,-5,1
1501879250982812,1,-15,-12,-26,17,-3,2,6
1501879250997815,-1,21,17,34,-5,-6,-6,-17
1501879250997815,0,0,-9,8,-14,0,-2,-24
1501879250998813,-7,-28,-43,-1,9,-3,1,-10
1501879250998813,-2,10,2,5,-3,3,-3,-8
1501879251019814,-3,-4,-7,1,-6,-9,-7,18
1501879251019814,1,5,14,39,23,5,5,8
1501879251021817,3,6,-23,-50,-34,-2,-1,-7
1501879251021817,-4,-10,3,-4,-15,-5,0,-18
1501879251042827,-5,-32,-7,6,24,1,2,3
1501879251042827,3,19,18,40,-19,-3,-7,1
1501879251044820,-9,2,-9,-47,7,-2,-1,2
1501879251044820,11,-9,-31,-50,28,5,8,-10
1501879251057816,-2,-16,26,37,-2,3,0,18
1501879251057816,3,10,9,-22,3,-1,7,33
1501879251058817,-6,-3,1,-3,-19,-2,0,-21
1501879251058817,0,25,7,-9,2,3,-8,-41
1501879251079819,10,-5,9,22,-4,-3,0,10
1501879251079819,-12,-12,-9,-44,37,3,-3,-27
1501879251081819,-4,-28,-15,13,-11,0,3,8
1501879251081819,-3,14,15,37,-15,-4,5,5
1501879251102818,4,12,-3,-43,4,1,3,-7
1501879251102818,0,1,7,13,-29,-5,-4,14
1501879251103819,6,-12,9,-24,8,-5,-4,9
1501879251103819,-13,-11,-26,41,35,1,-15,-45
1501879251117820,-3,11,18,5,-5,0,0,-2
1501879251117820,-2,-29,-39,-28,-9,1,5,7
1501879251118820,-4,-12,12,-2,-13,-1,-4,-9
1501879251118820,1,8,20,2,-18,-6,0,10
1501879251139823,-5,-17,-1,2,19,0,2,-5
1501879251139823,8,33,-12,-7,-8,-3,-1,31
1501879251141824,-8,-20,23,14,43,6,-3,-36
1501879251141824,-5,-1,-32,37,-24,-3,-6,-19
1501879251162843,-5,-11,-9,-26,0,-3,-4,-9
1501879251162843,4,-2,7,4,4,-2,4,15
1501879251163832,3,16,7,2,-12,-3,-1,32
1501879251163832,4,7,14,-4,1,5,0,0
1501879251177827,-9,-9,-7,9,3,-6,-4,-5
1501879251177827,4,5,-16,-1,-2,0,2,10
1501879251178836,2,5,-3,9,2,-1,3,-24
1501879251178836,-6,-6,2,-16,-13,-2,1,20
1501879251199824,2,27,10,26,2,-2,-8,-12
1501879251199824,0,12,-5,-20,1,-4,5,23
1501879251201825,-5,-17,9,-9,-20,3,-5,-14
1501879251201825,4,-17,-39,-26,25,3,0,13
1501879251222827,-1,-6,-13,-42,-14,-1,2,-2
1501879251222827,-6,8,13,17,-14,-5,-10,-4
1501879251223827,-3,-28,8,17,-9,-5,-2,-6
1501879251223827,1,8,13,13,9,-5,-2,7
1501879251236827,8,-12,4,-1,1,6,9,14
1501879251236827,-13,13,-5,-8,-2,-1,-7,-57
1501879251243829,4,33,-13,9,-4,-2,-4,20
1501879251243829,-5,-28,34,25,-5,-3,-2,-29
1501879251259830,1,-18,-20,-9,-3,1,2,11
1501879251259830,-1,-5,-2,22,31,3,2,-12
1501879251261838,4,0,2,8,4,2,0,-18
1501879251261838,4,19,8,-7,-8,-1,4,32
1501879251282829,2,17,25,23,-7,-4,1,1
1501879251282829,1,1,-9,-18,8,0,2,14
1501879251283830,-4,-33,-13,4,3,-6,-22,-10
1501879251283830,4,15,10,21,2,1,4,8
1501879251296830,0,-8,-5,-37,-15,8,0,-12
1501879251296830,3,7,-8,10,8,-7,-2,2
1501879251303831,-5,9,-19,-42,-21,2,7,21
1501879251303831,-1,-1,24,-26,3,0,5,26
1501879251319830,-2,16,3,21,11,-6,-19,-76
1501879251319830,-7,-31,-21,-40,-31,0,0,4
1501879251321833,4,20,33,33,33,-3,2,5
1501879251321833,-4,-24,-48,-39,-9,-1,1,7
1501879251342847,-6,2,12,10,-8,-4,-4,-1
1501879251342847,8,0,4,-2,-8,1,3,4
1501879251343833,-11,-3,3,-10,-7,-8,-4,-16
1501879251343833,-1,8,5,-7,-8,5,5,13
1501879251356835,3,-10,-11,12,4,-6,0,15
1501879251356835,2,-11,6,-3,6,5,2,6
1501879251363834,-1,16,8,17,7,1,-1,-4
1501879251363834,2,3,-20,6,-6,-4,-4,-5
1501879251379837,-5,-26,1,8,0,-1,2,-1
1501879251379837,-1,-4,-13,-1,-4,-2,-5,20
1501879251381836,-1,-1,11,-4,9,3,6,-3
1501879251381836,-2,-4,-7,1,0,0,2,8
1501879251402837,-2,12,1,10,-23,-5,-3,-21
1501879251402837,-1,-3,12,-8,3,0,-3,-24
1501879251403837,3,7,5,59,-14,-7,1,33
1501879251403837,2,-12,9,-93,28,10,-4,-10
1501879251415836,0,13,-3,0,11,1,3,28
1501879251415836,-1,-19,1,0,0,0,3,-11
1501879251424839,-5,-12,-31,-11,-18,-4,-6,-22
1501879251424839,-4,4,12,37,-16,-4,-6,-9
1501879251439839,-4,4,4,6,-3,-1,3,20
1501879251439839,0,4,10,-18,-17,1,-6,-13
1501879251441841,6,9,2,-5,14,3,3,1
1501879251441841,4,8,-9,10,3,-8,3,11
1501879251462841,-4,-2,-12,-17,11,3,-9,-17
1501879251462841,-2,-11,-3,17,-16,-6,-6,2
1501879251463842,-1,13,-3,-39,-15,1,1,8
1501879251463842,-5,-13,17,33,12,-4,-3,-6
1501879251476843,1,15,2,18,-7,4,3,-3
1501879251476843,-3,-23,-8,-20,14,-3,1,5
1501879251483841,4,5,-2,-11,5,2,5,21
1501879251483841,4,-3,6,10,-28,-5,-6,-28
1501879251499842,-6,-2,-3,-20,20,-3,-2,4
1501879251499842,1,11,0,26,-4,3,0,-12
1501879251501843,2,4,1,18,7,0,7,22
1501879251501843,-3,8,2,-24,-43,3,0,-21
1501879251522843,3,9,9,0,36,0,-10,0
1501879251522843,-8,-30,0,-5,9,2,-1,-12
1501879251523844,-1,1,-3,13,-8,-1,2,19
1501879251523844,1,17,-6,-36,-9,-7,3,12
1501879251536845,1,-33,-8,11,-9,2,0,26
1501879251536845,-5,6,20,-24,5,1,3,-34
1501879251543846,0,-1,8,37,4,-2,-8,-12
1501879251543846,-9,-24,-30,-9,16,-3,-4,-31
1501879251559849,0,-3,-12,-30,-18,1,-2,-9
1501879251559849,3,14,-2,6,-10,-8,-1,16
1501879251561858,-4,-27,9,-18,10,2,1,0
1501879251561858,2,24,-20,4,-10,0,4,-4
1501879251582848,-2,-15,1,-2,1,-5,-2,12
1501879251582848,2,1,-3,20,1,2,-1,10
1501879251583848,0,8,-21,-5,-45,-5,-4,-12
1501879251583848,-1,-16,13,-10,63,1,-4,15
1501879251595847,-5,2,-7,12,-13,0,3,-7
1501879251595847,-2,0,7,1,-23,-1,-3,-12
1501879251604849,4,13,-9,-11,23,-2,1,2
1501879251604849,-1,-7,20,23,-15,3,4,14
1501879251619850,2,-20,-8,14,-17,-5,4,33
1501879251619850,-3,8,-6,1,30,-1,-9,-3
1501879251621850,0,2,9,-16,-25,1,1,-22
1501879251621850,-2,22,5,18,-5,2,-2,10
1501879251642852,2,8,-4,-12,7,0,1,-11
1501879251642852,-13,-6,-11,2,-6,-6,-3,-10
1501879251643851,-1,3,-5,-2,14,-1,-7,-20
1501879251643851,0,0,22,17,-7,-1,-5,12
1501879251655852,1,12,-12,-17,10,-1,2,-3
1501879251655852,5,5,-7,3,-18,-1,3,7
1501879251664851,-2,-3,1,4,30,4,-1,-3
1501879251664851,-4,-34,2,5,-12,-1,-1,-8
1501879251679854,0,6,-6,2,-4,-7,-4,-3
1501879251679854,2,-1,2,-12,14,7,1,5
1501879251681853,-1,-5,-4,-6,-1,4,2,7
1501879251681853,2,10,5,-14,-2,-1,1,-1
1501879251702854,-4,0,5,7,-30,-5,-3,-9
1501879251702854,-4,-2,-37,-3,14,-6,-4,5
1501879251703855,-4,-20,-2,-8,0,-1,-3,-8
1501879251703855,2,0,-2,0,-34,-3,0,11
1501879251715854,-5,0,25,18,44,6,0,-34
1501879251715854,1,1,8,10,5,-4,-2,5
1501879251724865,1,-5,-11,-21,-2,0,1,4
1501879251724865,1,-2,-1,-2,-9,-3,-1,2
1501879251739857,-2,2,3,0,-13,-1,-2,7
1501879251739857,0,-4,8,13,9,-1,3,11
1501879251741863,2,-9,-14,0,6,2,-1,-9
1501879251741863,-4,14,-1,5,-4,-2,2,10
1501879251762859,-2,-26,-3,-22,2,5,-2,-1
1501879251762859,0,7,3,16,-3,-3,-3,-13
1501879251763858,2,-8,5,2,6,-3,2,14
1501879251763858,4,7,-11,-41,-12,1,-1,11
1501879251775859,-11,8,-5,0,6,-5,-11,-39
1501879251775859,0,-12,11,4,-26,-2,0,4
1501879251784858,0,-4,-10,-13,16,-1,3,5
1501879251784858,-3,9,-13,9,-2,-5,-2,-8
1501879251800860,5,5,-2,-7,-16,-2,3,20
1501879251800860,0,0,5,-4,9,-1,-1,-24
1501879251801860,0,12,14,29,-39,-2,-2,-16
1501879251801860,0,-19,-11,-2,49,6,1,26
1501879251822861,0,0,0,0,-34,0,1,-12
1501879251822861,-7,0,-4,2,13,-4,1,-9
1501879251823861,10,26,8,14,13,0,1,30
1501879251823861,1,-23,-1,-43,-12,1,-3,-23
1501879251835862,-9,-13,-6,-3,5,-1,-6,-11
1501879251835862,10,15,-6,-16,-32,2,4,11
1501879251844864,-7,-18,-3,-6,24,-7,-2,-9
1501879251844864,-1,12,-7,21,3,1,8,3
1501879251859876,-2,4,2,-3,-1,-4,-6,17
1501879251859876,0,8,1,-3,-9,1,-4,13
1501879251865863,0,-2,-2,0,-35,-6,-2,15
1501879251865863,-6,-38,-7,33,48,-2,-5,-52
1501879251882866,6,18,4,-52,-12,9,8,-6
1501879251882866,-9,-16,3,22,14,-5,0,24
1501879251883864,3,40,0,-4,-16,6,-7,-49
1501879251883864,-7,-19,-3,9,17,-2,6,33
1501879251895869,-9,-24,-7,11,-18,-8,-13,-35
1501879251895869,0,3,5,-6,15,7,2,-3
1501879251904866,-3,-10,-14,-16,4,-2,-4,-4
1501879251904866,-1,29,6,5,-29,-5,-7,-11
1501879251919866,7,-9,-6,9,5,-3,1,9
1501879251919866,-1,1,-3,-23,1,0,7,27
1501879251921869,-9,-20,4,19,23,2,-12,-45
1501879251921869,2,12,13,-8,-36,2,-4,5
1501879251942869,1,16,8,7,7,2,5,11
1501879251942869,4,-7,6,-4,21,1,-5,-10
1501879251943877,6,9,-15,-31,7,-1,7,23
1501879251943877,-12,-16,7,21,-16,-7,-4,-12
1501879251955869,0,1,7,4,12,1,-1,-12
1501879251955869,5,8,3,5,-35,2,6,-2
1501879251964881,-12,-33,-2,3,24,-7,0,17
1501879251964881,3,1,1,-15,5,0,-15,-25
1501879251979871,2,37,3,21,-3,-5,3,27
1501879251979871,-9,-27,-2,10,-29,-7,-10,-32
1501879251981871,-8,-17,-7,-29,-3,2,1,-19
1501879251981871,9,28,-2,12,32,4,5,5
1501879252002872,-2,-7,-9,-4,-6,-3,-2,37
1501879252002872,4,30,-12,-3,-7,0,-3,-24
1501879252003873,-3,-12,3,15,-13,-4,-2,7
1501879252003873,-2,-16,-1,-27,-6,-1,1,0
1501879252024899,0,0,7,-3,39,0,0,-19
1501879252024899,1,-6,-16,3,10,-2,-4,17
1501879252026875,-14,-25,-3,13,-4,-4,0,9
1501879252026875,2,24,-23,-1,13,7,0,-21
1501879252039877,-4,-25,-2,-13,-28,-6,0,22
1501879252039877,-3,-7,2,-8,1,0,0,-3
1501879252041876,5,9,16,17,9,1,-2,-6
1501879252041876,1,-6,5,9,7,1,2,14
1501879252062886,-5,-6,-10,5,3,2,1,-13
1501879252062886,-3,3,11,4,5,-3,-8,-10
1501879252063875,10,22,-6,-12,-25,-3,1,27
1501879252063875,-2,0,5,10,-12,-3,-2,-8
1501879252084880,5,6,-5,0,-7,-5,-2,-20
1501879252084880,2,-8,19,-18,-11,-3,7,15
1501879252086878,-11,-13,-51,-20,22,1,-9,-9
1501879252086878,-6,-8,-1,2,-9,-4,-5,9
1501879252099877,1,-4,0,10,2,0,2,9
1501879252099877,-3,4,2,-1,-4,0,-6,-16
1501879252101878,5,38,19,2,-32,-6,2,-1
1501879252101878,-3,-32,-9,-15,23,0,2,5
1501879252122879,-1,-6,-8,6,23,2,-3,13
1501879252122879,-2,-5,-4,0,0,3,4,6
1501879252123879,3,-2,11,13,3,4,4,4
1501879252123879,3,30,-4,-20,-18,-6,-2,-7
1501879252144882,0,0,3,9,-14,-3,1,14
1501879252144882,-1,-4,-3,-8,1,-2,1,18
1501879252146881,5,0,7,1,-1,2,3,13
1501879252146881,-4,-3,3,19,-11,-2,-4,-6
1501879252159882,-1,-3,-2,-1,-12,2,-1,0
1501879252159882,-3,1,-13,-1,28,0,0,-3
1501879252161882,1,-10,5,-6,-11,2,4,-9
1501879252161882,-1,-2,1,17,-1,-2,2,16
1501879252182883,6,28,-9,-6,-5,-1,2,7
1501879252182883,-5,-37,5,6,16,3,-5,-19
1501879252183882,-4,-6,1,4,1,-3,-3,7
1501879252183882,-3,-5,-4,-10,0,1,2,-15
1501879252204884,0,-10,6,13,-1,-3,-2,-8
1501879252204884,5,19,4,-11,-11,1,3,9
1501879252206884,-1,-2,-1,3,10,-2,3,21
1501879252206884,-4,-2,3,-3,-17,-2,-8,-34
1501879252218884,6,9,2,6,-22,-4,-4,9
1501879252218884,3,1,-7,3,-12,-3,3,32
1501879252225886,-2,-19,-2,-22,35,3,-3,-40
1501879252225886,-4,14,3,10,-2,-2,-2,11
1501879252242887,-1,-12,-1,-1,-40,-3,-2,-15
1501879252242887,-2,10,-15,-17,42,2,-8,-16
1501879252243886,4,-1,-1,22,-19,1,3,18
1501879252243886,-4,-6,5,-21,-10,-3,2,10
1501879252264887,-2,-10,7,-9,20,4,1,-5
1501879252264887,-1,-8,-8,-1,-30,-9,-2,1
1501879252266888,-1,7,-2,-9,7,-1,-1,-3
1501879252266888,-1,-2,-2,17,-12,-4,-1,-12
1501879252278888,-6,-7,1,-12,31,6,-1,-1
1501879252278888,1,19,9,21,28,7,2,-2
1501879252285887,3,-2,-4,-18,-30,-1,4,13
1501879252285887,3,16,4,3,1,-4,-1,2
1501879252302890,-1,-23,-6,-2,-11,-2,0,0
1501879252302890,-8,-6,2,7,4,-2,-2,1
1501879252303889,-1,2,1,-6,-21,-3,-4,-16
1501879252303889,-2,-8,-2,0,18,2,3,38
1501879252324894,-2,34,-1,5,16,-1,0,-10
1501879252324894,2,-23,-9,4,-5,-1,-4,-30
1501879252326902,-1,-7,1,-3,-18,-6,2,25
1501879252326902,2,-7,-4,-17,-3,-1,-3,-19
1501879252338895,0,-8,-3,6,17,6,1,10
1501879252338895,-7,0,3,5,-28,-7,-1,10
1501879252345893,-5,1,-5,-18,42,4,-3,-13
1501879252345893,2,17,3,11,-19,-2,1,-23
1501879252369892,-3,-9,-3,-9,13,-2,-8,-32
1501879252369892,2,4,0,-7,-36,-3,0,2
1501879252371895,-2,0,0,6,16,3,-1,-4
1501879252371895,6,15,4,5,16,3,2,9
1501879252384895,-9,-28,4,14,-12,-3,5,-4
1501879252384895,-1,2,-19,-7,-4,-1,-5,-22
1501879252386894,0,9,-3,0,-5,-3,-4,4
1501879252386894,-1,-21,-7,-12,-9,-1,-3,1
1501879252398895,2,7,8,8,9,2,5,5
1501879252398895,2,7,6,8,14,0,-3,13
1501879252405896,-1,5,9,10,-26,-1,3,-26
1501879252405896,-7,-9,-10,-24,17,-3,-5,-5
1501879252422895,-2,-14,-12,-21,-15,0,-4,11
1501879252422895,2,22,2,-6,-10,-5,-1,1
1501879252423896,-12,-20,1,13,24,0,-4,0
1501879252423896,0,-6,-3,7,2,-2,2,5
1501879252444899,-2,3,0,-5,-9,-3,-2,-5
1501879252444899,5,9,-1,1,9,-1,3,19
1501879252446898,1,29,10,-13,-23,-5,0,27
1501879252446898,0,-23,-3,8,20,3,-4,-33
1501879252459899,-1,2,-3,8,3,-3,-5,-9
1501879252459899,-1,-5,0,4,-22,1,-1,-18
1501879252465900,0,0,-5,-17,37,-2,2,18
1501879252465900,-1,0,-6,-27,-28,-3,2,10
1501879252482900,7,11,5,9,11,2,0,11
1501879252482900,-8,0,8,2,-11,-1,-1,0
1501879252483899,5,-10,-8,8,0,-2,4,21
1501879252483899,-5,-8,-8,3,-5,-4,-10,-22
1501879252504901,0,20,-1,-22,14,1,-4,-19
1501879252504901,0,1,-12,-9,-2,-3,-1,2
1501879252506902,-1,1,4,10,8,3,-2,1
1501879252506902,6,-3,7,11,-7,-1,4,18
1501879252518900,-7,3,1,11,-12,-5,0,-24
1501879252518900,-7,-21,-3,-10,10,-1,-1,-1
1501879252527902,4,7,0,-12,-22,0,-3,4
1501879252527902,0,9,7,10,2,-2,2,1
1501879252542904,4,-3,-3,-6,-11,0,-3,7
1501879252542904,2,-1,5,2,19,3,0,-6
1501879252543905,1,-1,-4,11,2,-1,-7,-23
1501879252543905,-9,-8,-1,-6,-4,0,1,7
1501879252564904,1,2,6,1,-4,-1,2,16
1501879252564904,-2,-7,-8,1,3,1,0,2
1501879252570905,-1,-10,-8,-10,-3,-2,-5,-3
1501879252570905,5,36,6,15,2,2,7,48
1501879252578906,-16,-31,-12,-19,-4,-3,-12,-83
1501879252578906,1,4,7,6,1,-4,-3,6
1501879252587906,-1,2,5,15,-3,-2,-1,-14
1501879252587906,-1,-3,-3,-25,-11,-1,0,13
1501879252602907,0,-2,-17,-5,14,1,5,20
1501879252602907,-2,22,2,2,-7,0,-3,-12
1501879252603908,-8,-40,-2,-2,-2,-1,0,-3
1501879252603908,1,-5,0,10,1,-2,-3,-15
1501879252624910,-3,-7,-2,-9,-25,0,-4,-1
1501879252624910,3,2,-10,-13,14,0,0,1
1501879252626912,-2,-3,-8,-1,0,0,-2,-7
1501879252626912,3,10,1,-3,-10,-3,2,-5
1501879252638910,3,4,2,11,5,0,2,25
1501879252638910,-4,-3,-1,-8,4,-2,0,-9
1501879252647911,-5,1,4,1,-7,-2,1,13
1501879252647911,-1,-13,4,14,1,1,-6,-27
1501879252662910,-2,-4,3,-28,18,3,1,-41
1501879252662910,1,-8,-15,-1,2,-2,-1,-2
1501879252663912,2,12,3,-6,-13,-1,1,-2
1501879252663912,-6,-3,-1,4,13,2,-3,1
1501879252684912,1,-2,4,12,-12,-5,-1,26
1501879252684912,-2,0,6,1,7,-2,0,0
1501879252686913,2,-2,5,-4,-8,-2,3,0
1501879252686913,-4,1,-11,-7,-11,-2,-3,-13
1501879252698913,0,1,-2,-5,-16,-1,1,19
1501879252698913,-4,-13,1,6,20,4,0,3
1501879252707913,-1,6,-2,10,-6,-3,-4,3
1501879252707913,0,-7,-1,-16,5,1,-2,-10
1501879252722917,0,5,-1,9,-15,-5,1,16
1501879252722917,2,10,1,-6,1,1,0,-5
1501879252723916,1,-7,2,6,7,2,4,-2
1501879252723916,-2,5,-10,-6,9,-1,2,14
1501879252745917,0,-4,-5,-2,-14,-3,-1,2
1501879252745917,1,6,3,1,4,-2,-1,11
1501879252746916,-6,-22,0,2,1,-3,-7,-5
1501879252746916,-1,4,5,4,-9,-1,-2,-43
1501879252758916,-3,10,2,18,13,2,1,5
1501879252758916,1,-7,-13,-22,-19,-4,2,2
1501879252767917,1,17,1,-7,-21,-4,-4,9
1501879252767917,2,-7,-3,-9,13,0,1,21
1501879252782916,3,0,5,18,14,1,3,9
1501879252782916,-4,-5,9,7,-24,-3,-3,-36
1501879252783918,0,0,-4,-3,14,1,2,0
1501879252783918,-2,-12,-5,3,-23,-3,-3,13
1501879252804919,6,12,0,-6,21,2,3,11
1501879252804919,-8,-18,0,2,4,3,-1,8
1501879252806924,1,16,-1,-6,-10,-2,-7,-26
1501879252806924,-5,-6,3,20,15,-3,-2,-8
1501879252818919,0,-6,0,-26,-19,-1,-1,12
1501879252818919,-1,-1,-5,-3,-10,-4,1,4
1501879252827920,0,-4,-4,-10,-1,1,-1,0
1501879252827920,2,5,-2,5,-2,-1,2,20
1501879252842921,-5,-3,-4,6,2,-1,-3,-18
1501879252842921,1,1,4,2,4,-1,0,-5
1501879252843921,-2,-1,1,-6,-8,-2,0,-4
1501879252843921,2,-3,-5,3,-5,1,-2,12
1501879252864923,-2,-2,-6,-7,11,-6,-4,2
1501879252864923,3,11,2,1,-3,1,0,4
1501879252866922,-9,-18,-5,-8,0,-3,-5,-3
1501879252866922,3,15,2,-10,-6,0,-1,11
1501879252878923,-2,-20,-1,-4,0,-1,0,-4
1501879252878923,1,-6,-1,-6,-11,2,0,2
1501879252887924,0,9,-6,-1,14,-2,0,11
1501879252887924,-1,-5,2,-3,-14,-1,1,9
1501879252902926,-1,18,4,4,-4,-3,-6,-22
1501879252902926,-3,-6,-1,7,15,0,0,10
1501879252903924,-1,-1,-3,7,-3,2,0,-12
1501879252903924,0,4,-2,-5,-9,-3,-3,2
1501879252925934,1,4,-1,10,10,-4,2,7
1501879252925934,-2,-9,1,-16,-21,-1,-1,18
1501879252926926,-4,-1,-4,-6,10,0,-2,-11
1501879252926926,1,-3,0,4,8,1,0,-5
1501879252938927,-4,-12,-3,1,-8,0,0,-5
1501879252938927,1,-1,1,7,0,-2,-4,-8
1501879252947927,8,16,8,2,5,3,1,8
1501879252947927,-3,-10,-6,-8,-15,-5,-1,-8
1501879252962928,-2,4,-2,5,15,3,-2,5
1501879252962928,5,8,4,0,-3,-1,6,12
1501879252963935,-10,0,0,17,-8,-7,-14,-53
1501879252963935,6,-8,-1,-3,28,5,3,-1
1501879252984930,-7,-15,-7,-11,-15,0,-3,-9
1501879252984930,0,-2,-1,5,6,-2,0,2
1501879252986929,2,6,5,-6,-30,-2,4,33
1501879252986929,-5,-1,-3,5,21,-3,-5,-3
1501879253007931,2,10,6,5,-5,3,1,6
1501879253007931,-2,-5,-4,-8,-2,-2,-4,-11
1501879253008931,4,-9,-1,-9,4,1,0,-6
1501879253008931,-3,5,-1,-4,-8,0,-1,15
1501879253022932,9,12,-1,-1,0,-1,5,18
1501879253022932,-3,-1,-1,4,-4,-1,-1,-19
1501879253023932,-1,-32,5,21,-4,1,2,-2
1501879253023932,0,17,-17,-33,-1,1,1,-8
1501879253044933,-5,-27,0,-6,-4,-2,-4,-8
1501879253044933,1,17,1,11,12,-2,-2,-20
1501879253046933,1,6,-1,-9,-16,-5,0,15
1501879253046933,1,-10,8,13,17,1,2,3
1501879253067943,-7,0,-9,3,-1,0,0,-20
1501879253067943,-6,-4,0,-7,-9,-4,-7,-7
1501879253068934,0,11,-3,0,9,1,4,-1
1501879253068934,-3,-4,5,5,-26,-6,-4,-3
1501879253082935,4,3,2,13,13,1,3,27
1501879253082935,-9,-3,-3,-11,7,4,-5,-30
1501879253083935,5,-6,-5,-13,-3,1,2,-4
1501879253083935,0,10,2,9,-9,-1,0,-5
1501879253104939,-5,-8,4,25,-3,-9,-5,6
1501879253104939,-1,-21,-6,-29,6,8,7,11
1501879253106937,-5,-13,-13,0,-6,1,-7,-9
1501879253106937,0,7,-3,-9,8,-1,-1,30
1501879253127939,2,-11,2,6,-10,1,-4,-38
1501879253127939,-5,4,2,2,-3,-7,-6,4
1501879253128938,0,9,2,6,22,5,5,-3
1501879253128938,-2,-7,2,10,-1,-2,0,-5
1501879253141940,0,11,-3,-19,-9,1,0,3
1501879253141940,3,-5,-3,0,-12,-4,0,7
1501879253148938,-5,-12,-2,-2,4,-2,-4,-7
1501879253148938,0,5,3,7,-23,-3,0,-8
1501879253164945,1,0,-5,-8,25,2,0,14
1501879253164945,-5,-9,-4,6,-5,1,0,-23
1501879253166947,5,18,1,-2,-6,-3,1,16
1501879253166947,-5,-25,-5,-1,-3,-4,-3,-13
1501879253187943,2,6,0,-9,-13,1,0,-1
1501879253187943,-1,-1,0,6,11,-4,1,22
1501879253188941,-4,0,4,42,-17,-5,3,-8
1501879253188941,-3,-5,-5,-60,42,13,-5,11
1501879253201944,-8,-15,-11,-7,-11,-3,-4,-31
1501879253201944,3,9,-1,4,-2,-1,-6,-4
1501879253208942,0,8,5,-3,-17,-1,-1,-3
1501879253208942,3,-6,4,21,21,1,4,3
1501879253224943,-2,19,0,-13,-10,-5,-1,16
1501879253224943,3,-8,-3,-2,-2,2,-2,6
1501879253226951,-3,3,-3,-6,3,-4,-1,-2
1501879253226951,-4,-12,-4,1,-21,-2,-1,-7
1501879253247946,-1,2,-2,-9,12,-1,-4,-24
1501879253247946,2,4,2,21,-6,-4,1,-1
1501879253248945,-2,-2,-5,-19,-1,4,-2,5
1501879253248945,-2,-9,-1,-4,4,-2,-3,-8
1501879253261946,1,-4,5,6,-15,-1,4,7
1501879253261946,3,6,0,-7,-4,-2,-3,11
1501879253268946,4,3,0,2,12,1,-2,-6
1501879253268946,-1,24,-4,6,-8,-3,1,4
1501879253284946,-7,-29,-10,-2,-7,-3,-1,9
1501879253284946,-3,-9,-2,-2,-2,-2,-1,-9
1501879253286948,0,-4,-2,-13,4,-1,0,7
1501879253286948,5,10,3,6,-13,-3,-2,-17
1501879253307948,1,11,3,3,-6,0,-4,2
1501879253307948,0,20,0,2,13,3,2,5
1501879253308956,-6,-29,-8,-2,10,1,-2,14
1501879253308956,-2,-6,1,1,-6,-1,1,-28
1501879253321949,-1,-1,1,7,5,-3,-1,7
1501879253321949,1,0,2,-10,-26,-1,-1,-4
1501879253328950,1,3,0,4,21,3,1,3
1501879253328950,-3,4,-2,4,4,1,-2,-7
1501879253344950,0,-6,-1,4,6,0,-2,1
1501879253344950,-3,8,4,4,-3,-2,0,7
1501879253346954,0,-3,0,-8,2,-4,-5,-14
1501879253346954,1,4,3,2,-9,-2,-1,-1
1501879253367951,5,0,0,-4,3,2,0,8
1501879253367951,-3,-2,-9,-6,7,-3,-1,5
1501879253368952,3,1,2,3,-11,-4,0,6
1501879253368952,-4,-6,-2,8,5,-1,-1,-10
1501879253381955,-4,-3,0,-34,-12,-2,0,-1
1501879253381955,1,-16,0,5,15,1,4,12
1501879253388953,0,3,-2,-12,-19,-1,1,5
1501879253388953,1,11,-1,2,3,-1,1,4
1501879253404954,-1,5,0,8,2,-2,-4,-12
1501879253404954,-2,-3,-1,-1,-3,-1,-3,-6
1501879253406954,-3,-3,-2,-8,-1,-1,3,0
1501879253406954,0,8,1,4,-7,0,-3,-9
1501879253427969,1,-10,-1,1,7,1,2,13
1501879253427969,0,-4,0,-3,-5,-1,0,-6
1501879253428956,-2,3,-1,3,-1,-2,-4,-7
1501879253428956,-1,-2,0,-1,-19,-2,1,14
1501879253441956,-1,-2,-3,5,29,3,0,-5
1501879253441956,-1,-3,-1,16,4,0,-2,-10
1501879253448957,1,9,-3,-27,-25,2,1,2
1501879253448957,0,-8,0,-1,15,-3,1,3
1501879253464957,-1,6,1,-6,-18,-3,0,6
1501879253464957,0,-2,0,1,-24,-4,-2,-10
1501879253466958,-6,-12,-12,5,34,3,-3,-10
1501879253466958,1,-2,3,2,-20,0,1,2
1501879253487958,-1,12,-2,-1,6,-2,1,-7
1501879253487958,0,-21,5,10,-5,-5,6,28
1501879253488959,-2,28,-1,-9,9,4,-8,-21
1501879253488959,3,-21,-4,-2,3,-1,-1,24
1501879253500961,-3,0,-1,-2,-15,-2,-7,-25
1501879253500961,-1,-2,-3,-13,10,-2,-1,4
1501879253509985,-1,1,4,9,-8,-5,2,-2
1501879253509985,-2,0,-3,-2,4,-3,-1,3
1501879253524961,3,5,2,4,-15,-1,2,32
1501879253524961,-4,2,-7,-10,8,1,-2,-44
1501879253526968,0,-12,1,5,-3,-4,0,10
1501879253526968,-2,2,-1,2,-12,-1,0,-1
1501879253546963,-4,-13,-1,0,6,1,1,-18
1501879253546963,1,13,3,-5,7,3,-1,8
1501879253548962,4,8,4,26,10,1,1,17
1501879253548962,-4,-7,-1,-20,-5,-4,-4,-5
1501879253560964,-1,1,-5,9,5,7,-2,-24
1501879253560964,-1,-4,2,-3,-22,-5,-4,0
1501879253569962,-1,-9,-6,-8,14,0,-2,-12
1501879253569962,-4,5,-2,14,-7,-3,0,3
1501879253584964,1,2,1,-1,-2,-2,0,14
1501879253584964,-3,1,-2,-7,7,2,-3,-1
1501879253586966,1,7,4,7,-12,-4,2,-2
1501879253586966,-1,-7,-3,-9,1,1,-3,10
1501879253606966,-4,-9,1,-2,-1,-1,-1,-17
1501879253606966,2,8,0,1,11,3,1,-6
1501879253608966,-3,-9,-1,0,-18,-5,-3,-2
1501879253608966,-1,-1,-2,20,30,0,-1,1
1501879253620966,0,5,-1,-46,-15,2,2,22
1501879253620966,0,-6,1,6,13,-2,5,-17
1501879253630968,4,-19,-6,-9,-27,-1,-1,35
1501879253630968,-2,8,0,-2,8,-1,-4,-29
1501879253644968,1,2,1,18,-4,-4,1,10
1501879253644968,-5,-8,-1,3,-4,0,-3,4
1501879253646969,-5,-2,-4,-9,-5,-2,0,-1
1501879253646969,0,2,4,0,-6,0,0,-7
1501879253666968,1,2,-5,-1,6,-3,0,10
1501879253666968,1,9,-1,-10,-11,-2,-1,10
1501879253668969,-5,-19,-3,7,15,-1,-1,-17
1501879253668969,-1,1,-1,-4,-10,0,0,-5
1501879253680971,-4,-2,4,15,6,-4,-3,6
1501879253680971,2,-4,-5,-23,-22,-1,-2,3
1501879253689970,1,6,2,11,0,-1,-1,-8
1501879253689970,-1,9,-4,-33,16,6,-1,-8
1501879253704971,-1,-24,-4,2,-3,1,2,1
1501879253704971,-3,-7,-6,5,-2,-4,-5,2
1501879253706971,-1,1,1,-5,-8,-3,-2,-4
1501879253706971,-4,-16,-5,-6,-4,-4,-1,0
1501879253727974,0,8,-1,8,0,-1,0,-6
1501879253727974,0,4,-1,-7,-7,1,0,9
1501879253729974,2,2,0,-5,2,-2,-7,-11
1501879253729974,-5,-3,1,7,-4,-1,-1,4
1501879253740974,2,1,-2,-5,-1,-1,3,-20
1501879253740974,-3,-1,0,4,5,1,-7,-14
1501879253749974,-2,19,-1,0,0,1,0,12
1501879253749974,-2,-17,-1,1,-1,-5,-1,-2
1501879253764974,-2,-3,-1,-6,0,0,-1,6
1501879253764974,2,-2,2,7,6,0,3,3
1501879253766975,0,7,0,1,20,8,1,-5
1501879253766975,1,2,-1,-2,-14,-2,1,6
1501879253786976,-1,1,0,-1,-7,-3,-4,-3
1501879253786976,-2,-1,1,-1,-3,-3,-1,-2
1501879253788976,-3,-7,0,-1,-5,-2,-2,-2
1501879253788976,0,-3,-9,2,4,1,2,3
1501879253800977,-1,2,-1,6,-2,-1,-1,-3
1501879253800977,-2,7,-1,-14,-2,-3,-3,1
1501879253815978,1,2,1,6,-4,-1,1,-4
1501879253815978,-1,-13,-3,-12,-5,0,-1,1
1501879253824978,1,2,-1,13,19,-4,-4,1
1501879253824978,-1,-2,-2,-13,-14,4,2,5
1501879253826989,-2,-1,2,-4,2,-2,1,-5
1501879253826989,0,9,3,1,-8,-2,-2,-6
1501879253847981,-1,-2,-3,2,-8,-2,-3,-4
1501879253847981,-1,1,1,10,8,0,5,10
1501879253848981,-1,-2,-3,3,29,2,2,-7
1501879253848981,5,8,4,6,1,1,1,4
1501879253861991,-3,-5,1,-5,-7,0,-2,-1
1501879253861991,1,0,0,3,-2,-2,-1,-15
1501879253869981,-3,-3,-4,-12,-28,-5,0,17
1501879253869981,-1,-9,0,2,-11,-2,-2,-14
1501879253884982,0,12,3,5,20,2,2,1
1501879253884982,3,-4,-2,10,7,1,-1,8
1501879253886982,-4,-14,-5,-15,-5,1,-2,-15
1501879253886982,1,11,1,9,-7,-5,2,12
1501879253906984,-8,-6,-3,-10,-13,1,0,-17
1501879253906984,-1,-11,-7,11,22,4,-1,6
1501879253908985,-1,-5,2,1,-11,-5,-3,-23
1501879253908985,1,9,-2,-3,11,2,1,-7
1501879253929986,2,5,8,9,-18,-5,1,13
1501879253929986,-3,5,-2,-4,19,7,6,-6
1501879253932985,-1,-1,-2,0,2,-2,-2,8
1501879253932985,-2,-5,-4,-3,-4,-3,3,24
1501879253944986,-10,-2,-1,1,-15,-8,-18,-75
1501879253944986,7,24,2,-18,-8,-1,-3,1
1501879253946986,-1,-28,-6,-10,-6,0,2,4
1501879253946986,-6,-5,1,9,7,-2,2,-4
1501879253967988,4,-3,-6,-1,0,5,1,50
1501879253967988,-3,2,-2,3,-3,-9,-7,-48
1501879253968995,0,10,0,-7,2,2,0,-23
1501879253968995,0,-4,2,2,-14,-3,-1,25
1501879253989988,-3,-15,-1,-13,12,-2,-1,4
1501879253989988,-4,8,-8,-2,-7,-5,-1,4
1501879253991990,5,-2,1,0,-8,-2,0,10
1501879253991990,-8,-2,-1,1,2,3,-5,-15
1501879254004991,5,-2,-4,-9,-6,0,2,12
1501879254004991,1,3,3,19,-3,-3,-1,12
1501879254006990,-4,-10,-1,-8,5,0,-2,3
1501879254006990,1,-2,-3,-9,-13,-2,-4,-9
1501879254027992,2,26,1,12,16,2,1,11
1501879254027992,-4,-20,6,-11,-6,-4,0,-3
1501879254028990,-3,-6,-5,20,19,2,1,4
1501879254028990,-3,16,3,-6,3,1,2,-13
1501879254049992,0,-10,-4,-1,0,-3,-3,5
1501879254049992,1,-4,1,1,-10,-1,-3,10
1501879254051992,-2,14,4,-5,-4,-5,-2,-11
1501879254051992,0,-17,-11,-6,3,3,1,13
1501879254063994,-1,4,-5,-25,-8,-3,2,-2
1501879254063994,0,-1,-4,4,6,-1,-1,7
1501879254070992,-2,7,5,8,6,-4,-1,-3
1501879254070992,2,-2,2,1,4,6,-1,-4
1501879254086995,-1,-6,-1,8,-5,-3,-3,-15
1501879254086995,1,-2,-3,-12,-17,-4,-1,8
1501879254088994,0,3,-4,0,21,2,2,15
1501879254088994,1,5,1,1,-9,-5,-1,2
1501879254109995,-6,-2,0,-1,-2,-1,0,-4
1501879254109995,-4,-8,-2,3,1,-2,-4,-8
1501879254112013,0,5,2,8,-4,-3,-4,4
1501879254112013,-1,-12,-3,-10,-1,-1,-2,-7
1501879254123996,3,16,1,6,5,3,3,17
1501879254123996,-1,-5,-4,-6,-4,1,-1,-12
1501879254131996,-4,-7,-2,-13,-26,-3,-6,-3
1501879254131996,4,23,6,18,27,2,3,8
1501879254146998,-2,-27,-5,-13,2,-1,-6,-23
1501879254146998,-2,-2,2,7,-3,-1,-2,1
1501879254148998,0,1,-2,5,12,1,-3,-2
1501879254148998,-1,1,-1,-8,-24,-2,-3,-10
1501879254169997,2,4,2,3,4,-3,2,7
1501879254169997,-1,-11,-2,2,5,3,3,4
1501879254171999,-2,10,-1,5,-12,-3,-3,-5
1501879254171999,-1,-16,-3,-9,-5,-5,-2,1
1501879254192003,-2,2,-4,-3,-1,-1,-2,-6
1501879254192003,3,16,3,-4,-5,-2,-2,1
1501879254194000,-4,-19,-4,5,8,2,1,10
1501879254194000,-4,-13,-2,-1,-2,-2,0,-6
1501879254208002,0,1,1,2,-5,-1,-2,-2
1501879254208002,0,6,1,-6,2,1,3,13
1501879254209003,-1,0,-6,-6,-14,-6,-6,-19
1501879254209003,2,1,4,13,6,3,-1,-3
1501879254230002,-5,3,-4,-14,16,-2,2,6
1501879254230002,-4,-9,0,9,-13,0,-7,-3
1501879254232002,0,-9,-5,-7,-4,-2,0,4
1501879254232002,-5,-5,-5,5,15,-2,-5,-17
1501879254244003,2,7,0,-23,-28,2,5,6
1501879254244003,1,2,1,2,10,1,3,15
1501879254251005,-2,-8,-2,-10,-4,1,0,2
1501879254251005,-2,-1,0,7,-7,-5,-5,-7
1501879254267003,1,1,-1,3,3,2,-1,4
1501879254267003,-4,-9,-4,-5,6,0,-1,-8
1501879254269004,2,5,3,7,-7,-3,-1,1
1501879254269004,1,4,0,-1,7,-1,-1,-3
1501879254290005,-2,-10,0,16,8,0,-3,-1
1501879254290005,2,6,0,-6,-7,-2,0,2
1501879254292005,0,-5,-2,-3,2,1,1,1
1501879254292005,-5,0,-1,-10,-6,-1,-5,-6
1501879254304006,-1,1,-4,-2,-2,-1,-2,-14
1501879254304006,-3,-7,-2,4,-1,-1,1,9
1501879254311020,5,14,-1,-2,5,1,1,6
1501879254311020,1,0,-3,-8,3,-1,4,14
1501879254328007,0,-14,5,16,-9,-2,-3,-14
1501879254328007,-3,-6,-5,-12,10,-2,-2,4
1501879254330008,-1,7,0,-4,-23,-1,3,5
1501879254330008,-2,5,-3,-11,13,1,-7,-33
1501879254350009,3,2,3,3,5,2,5,24
1501879254350009,-6,-2,0,5,-4,-4,-3,-34
1501879254352010,-1,-6,2,-8,5,3,-1,-2
1501879254352010,2,8,-1,0,-17,-5,-2,18
1501879254364011,0,9,-1,8,22,5,2,19
1501879254364011,1,-8,2,8,-6,1,5,3
1501879254371010,-5,-10,-2,-11,-8,-4,-5,-24
1501879254371010,-5,1,-6,-10,-4,-2,-4,9
1501879254387012,-1,6,-1,-8,-12,-3,-3,0
1501879254387012,-4,-16,-4,6,2,-2,-2,10
1501879254389011,1,4,2,3,-4,-2,-1,-4
1501879254389011,1,-8,-2,-5,10,4,-2,-7
1501879254410020,-3,-2,-3,-4,-3,-2,-4,-1
1501879254410020,2,3,-1,-2,-18,-3,-4,-8
1501879254412012,-2,1,-1,10,20,2,0,2
1501879254412012,0,-5,0,0,-6,-1,2,-2
1501879254424014,-2,1,-3,0,-1,-1,-2,9
1501879254424014,-1,-7,0,2,2,-1,-2,-3
1501879254433014,-2,3,5,-6,-9,0,-1,5
1501879254433014,1,-4,-1,0,4,-3,0,14
1501879254447015,-3,-4,-4,1,3,2,1,-10
1501879254447015,0,5,0,-2,-8,-1,-4,-4
1501879254449015,0,0,-3,0,13,-1,-2,-4
1501879254449015,1,4,6,8,1,1,0,-2
1501879254470015,2,16,0,-9,-9,-1,3,11
1501879254470015,0,-25,-4,-6,16,1,-2,7
1501879254472017,-6,-3,-2,3,-16,-3,-3,-10
1501879254472017,-3,-3,-1,7,4,-1,-3,-9
1501879254484019,-1,-3,-2,2,0,-2,-2,-10
1501879254484019,3,21,1,-3,0,1,0,-1
1501879254493017,1,-14,-2,8,2,3,2,7
1501879254493017,-3,-4,-3,-3,-7,-3,1,9
1501879254507018,-6,-11,-1,-6,-3,-2,-4,-15
1501879254507018,-1,5,-4,-5,-9,-2,3,0
1501879254509019,2,-1,-3,0,1,-4,-2,2
1501879254509019,0,4,-1,-5,-21,-4,-1,-7
1501879254531019,-1,-12,0,1,14,0,1,1
1501879254531019,1,20,2,-5,23,5,-3,-23
1501879254532019,2,-7,-3,-6,-2,-2,6,22
1501879254532019,-6,-2,0,0,-6,0,-10,-25
1501879254544021,0,5,-1,6,-13,-6,-6,-14
1501879254544021,-2,-9,-3,5,-8,-1,-1,14
1501879254553021,-1,9,0,-2,2,1,1,-2
1501879254553021,1,-1,0,2,1,0,2,23
1501879254567020,5,0,1,1,-6,1,3,17
1501879254567020,-11,1,1,1,0,-1,-8,-51
1501879254569022,0,-7,-2,-4,4,1,-3,-6
1501879254569022,-2,-8,-2,7,-11,-4,0,-4
1501879254590024,0,0,-1,-15,14,7,4,7
1501879254590024,1,2,2,0,-13,-2,4,15
1501879254592027,-3,5,-1,-2,-14,-2,1,7
1501879254592027,3,-5,-3,4,21,-1,-3,-15
1501879254604024,-2,10,-2,4,-4,-3,-5,-11
1501879254604024,-4,-23,-2,-3,5,1,-2,4
1501879254613024,-1,2,0,7,-5,1,1,-13
1501879254613024,1,0,1,-7,-6,1,4,20
1501879254627041,-2,-7,-1,-1,-9,-2,-2,-8
1501879254627041,2,3,-3,-7,-6,-4,0,8
1501879254629025,-1,2,-1,-1,5,-1,-2,1
1501879254629025,-1,2,-2,-4,4,0,-1,-3
1501879254650027,-3,-17,-1,-4,-1,1,-1,-11
1501879254650027,-2,6,2,23,-10,-3,1,13
1501879254652028,3,4,0,-11,10,0,-6,-7
1501879254652028,-5,5,-8,-18,-4,1,-1,-9
1501879254664027,1,-8,-1,5,5,-5,-2,17
1501879254664027,0,-19,-3,-7,-5,2,5,-12
1501879254673031,-1,13,3,10,23,3,-2,0
1501879254673031,0,-2,-3,3,-11,-3,-2,5
1501879254687027,-3,-16,-2,-6,-11,-5,-5,-32
1501879254687027,2,12,-2,-3,-4,-5,0,11
1501879254689029,-1,-7,-1,-1,-10,-4,-3,-1
1501879254689029,-1,-2,0,0,5,0,-1,-3
1501879254710044,1,5,1,1,-7,-2,3,10
1501879254710044,0,1,-3,-5,6,-2,-5,-1
1501879254712033,-1,-2,1,-1,-6,1,3,2
1501879254712033,1,-1,-1,2,-1,0,1,6
1501879254724035,-4,-1,-3,9,-1,-1,-4,-9
1501879254724035,-1,6,1,-10,5,1,-2,-3
1501879254733031,-2,0,-2,-3,-3,-2,-3,0
1501879254733031,2,-5,3,3,-2,1,3,5
1501879254747034,-1,4,-1,2,1,0,1,1
1501879254747034,0,0,-1,3,4,0,-2,-2
1501879254749033,-1,-4,-3,-2,-7,-1,1,2
1501879254749033,3,0,2,1,-11,0,-1,-7
1501879254770036,-7,-4,-2,-3,14,0,0,5
1501879254770036,-1,3,-2,-1,12,4,-2,5
1501879254772034,-1,-4,-1,-2,-8,-2,-2,-2
1501879254772034,-2,-1,1,11,-26,-6,-4,-5
1501879254784033,-1,-1,-7,-25,23,0,-3,4
1501879254784033,6,6,-1,-13,-14,1,4,15
1501879254793035,-6,-8,-2,6,3,-3,-4,-3
1501879254793035,-1,12,0,-6,-7,1,2,19
1501879254807036,-6,0,0,-3,-10,-5,-7,-42
1501879254807036,-4,-18,-4,0,-1,-5,-3,-1
1501879254809039,2,-6,-1,-2,-2,-1,1,10
1501879254809039,-4,-2,-1,-2,7,-3,0,17
1501879254830038,2,6,0,0,-11,-1,-1,7
1501879254830038,0,2,-3,-4,-12,-3,-3,2
1501879254831039,0,6,-2,-1,17,4,1,0
1501879254831039,-3,-3,-1,-2,4,1,0,-18
1501879254844040,1,-3,1,4,-3,1,2,2
1501879254844040,-1,0,0,-1,-6,-4,-5,-1
1501879254853038,-1,-1,1,-1,-10,-3,-1,-5
1501879254853038,-3,-5,-3,-4,10,-1,-2,-8
1501879254867054,6,2,1,6,-11,0,5,18
1501879254867054,1,-2,-4,0,-1,-2,0,-9
1501879254869040,-5,6,-4,-1,-3,-1,-3,1
1501879254869040,1,-9,-1,-3,9,1,-1,-10
1501879254890045,-2,-7,-4,4,-3,-2,-4,2
1501879254890045,-1,1,1,1,0,-3,1,-5
1501879254892041,1,-1,-1,-2,-1,-1,1,-7
1501879254892041,-1,-2,1,4,1,1,0,12
1501879254912055,0,8,-1,-2,-8,-2,0,-19
1501879254912055,1,-4,1,2,-15,0,-2,-19
1501879254914042,-4,-8,-6,-12,10,2,-1,2
1501879254914042,0,-19,-3,7,11,1,-1,11
1501879254927050,-2,-4,-3,-3,-4,0,-1,3
1501879254927050,0,7,0,-3,3,1,1,1
1501879254935043,1,6,2,3,-12,-4,0,-7
1501879254935043,-1,2,0,-7,-5,-7,-4,-20
1501879254950044,-2,-3,-2,-5,5,-1,-1,9
1501879254950044,-1,-2,-4,20,11,1,-2,-3
1501879254952045,-1,-2,-1,-9,-4,1,0,8
1501879254952045,-3,4,-2,-3,2,0,-1,0
1501879254972046,4,2,1,-7,-6,-2,2,-3
1501879254972046,-10,-7,-1,9,2,-2,-2,7
1501879254974046,-3,-1,-2,-2,-2,1,-1,-3
1501879254974046,-2,-2,0,-1,0,-1,0,-6
1501879254987046,-1,1,2,5,-2,1,-1,-2
1501879254987046,2,-3,-2,-6,1,-1,0,6
1501879254994048,3,21,1,0,-7,-1,0,6
1501879254994048,-3,-27,-4,-6,0,-2,-1,-5
1501879255010049,-1,-3,-1,3,8,2,-1,-2
1501879255010049,-4,5,1,-6,1,-2,0,12
1501879255012048,1,3,3,8,2,0,-1,-16
1501879255012048,0,20,-2,-14,-21,-4,0,-4
1501879255032049,3,-16,-1,8,4,1,2,39
1501879255032049,-7,-11,-8,-14,0,-2,-3,-28
1501879255034049,-5,-3,-1,1,12,-1,-7,-34
1501879255034049,1,2,0,6,-4,-1,-1,-6
1501879255047051,-4,-7,0,7,-3,0,-2,-17
1501879255047051,4,14,0,-22,-2,0,5,40
1501879255054051,0,-13,-3,1,-9,-4,-1,3
1501879255054051,-3,-5,-1,-2,3,1,-2,-8
1501879255069052,-5,-1,-3,-8,-16,-1,-3,-8
1501879255069052,2,-5,-1,7,7,-4,0,5
1501879255078052,0,-2,-2,-3,3,-1,-1,0
1501879255078052,4,6,2,2,3,0,0,2
1501879255092058,0,6,1,1,-3,-1,0,2
1501879255092058,-3,-4,-1,-2,-6,1,-2,-10
1501879255094056,1,-3,-1,-1,1,1,-2,3
1501879255094056,3,6,-2,2,0,2,2,10
1501879255107055,-1,-8,-1,-3,0,-2,-3,3
1501879255107055,-1,2,0,2,1,3,-3,-15
1501879255114063,-2,-13,-1,1,2,0,1,3
1501879255114063,-5,1,-1,0,-3,-3,-2,-2
1501879255130056,0,3,-3,-7,-1,-6,-2,-3
1501879255130056,1,-1,1,2,1,-2,0,-2
1501879255132055,2,1,-1,-1,-5,1,3,6
1501879255132055,0,2,-2,-1,2,1,-1,4
1501879255152057,-2,-2,0,-4,-2,2,1,-4
1501879255152057,-1,2,3,1,2,-1,-5,-3
1501879255154056,-2,-2,-4,2,-7,-5,1,3
1501879255154056,-1,0,-1,0,1,-1,-3,-4
1501879255167055,-1,5,-1,-2,4,-1,-1,-4
1501879255167055,1,-3,1,-2,-1,0,4,-1
1501879255174056,-1,1,0,-6,-2,-2,2,5
1501879255174056,-4,-3,2,44,1,-4,-12,-7
1501879255190059,4,1,4,-38,2,-2,0,-2
1501879255190059,0,1,-5,2,2,3,0,1
1501879255192059,0,-5,-9,-8,-6,-1,2,5
1501879255192059,-2,1,1,-16,0,0,-1,-1
1501879255212078,-2,-2,-2,23,3,-1,-3,0
1501879255212078,-3,-3,3,-13,-4,-2,-6,-7
1501879255214060,-2,1,1,3,1,-1,-1,-1
1501879255214060,0,0,-3,1,1,0,-1,1
1501879255227076,-2,1,1,6,-1,0,-1,-1
1501879255227076,-1,-1,-1,6,1,-2,1,2
1501879255235061,-1,-1,-1,-5,-2,-3,4,0
1501879255235061,-1,1,2,22,2,-1,2,2
1501879255250063,-3,-4,-11,-53,-2,-3,-4,-8
1501879255250063,-2,-1,-3,8,0,-1,-2,-1
1501879255252063,3,0,-2,-4,3,1,1,0
1501879255252063,-1,-2,3,-34,-4,1,1,-2
1501879255272063,0,1,-2,67,4,3,1,1
1501879255272063,0,-2,-5,-39,-6,-3,-4,-2
1501879255274063,-4,0,3,-6,-2,-2,-2,-4
1501879255274063,1,0,-4,2,1,-2,-1,3
1501879255286065,-1,-1,-5,2,1,0,-1,0
1501879255286065,-2,-1,-3,-8,-1,1,-1,-2
1501879255295065,-2,-2,14,27,-6,-3,-4,-2
1501879255295065,-2,0,-5,-14,0,0,4,-2
1501879255310065,0,-2,3,2,0,0,-1,-2
1501879255310065,-3,0,6,27,5,1,0,-2
1501879255312065,19,2,-5,-11,2,-1,-5,1
1501879255312065,-18,-2,1,18,-5,-2,-1,-5
1501879255332067,-3,-2,-26,-50,-5,-1,0,2
1501879255332067,1,-3,-1,-24,-2,-2,9,2
1501879255334066,0,3,23,53,4,-1,-10,2
1501879255334066,8,0,-3,4,0,-1,0,-21
1501879255346067,8,6,12,29,2,-1,12,2
1501879255346067,-18,2,6,8,2,1,1,-4
1501879255355068,-8,-6,-30,-28,0,2,-2,1
1501879255355068,1,-3,5,-36,-6,-2,1,6
1501879255370067,-8,-1,6,16,-2,-1,-10,-7
1501879255370067,9,0,-6,3,0,0,-4,-2
1501879255371068,-5,-1,3,15,-4,-4,-4,-5
1501879255371068,-2,-3,-11,-30,2,0,3,4
1501879255392071,3,-1,2,40,-4,-5,-1,-2
1501879255392071,1,1,10,35,2,0,-4,3
1501879255394070,-3,-2,-15,-34,-5,3,1,1
1501879255394070,0,1,-12,-17,2,1,-3,0
1501879255406071,-2,-3,13,-4,-9,-6,-3,1
1501879255406071,-3,-1,-2,-6,-2,-3,-4,-2
1501879255415072,-2,-2,4,6,-2,-1,3,0
1501879255415072,2,1,4,25,6,0,-1,-7
1501879255430073,-1,1,-11,-26,0,3,-1,0
1501879255430073,-1,-3,-9,-2,-5,-4,0,1
1501879255432073,-2,-3,-6,-38,-4,-2,-2,-7
1501879255432073,-2,-3,-2,22,7,0,-6,4
1501879255452076,-3,-2,5,59,0,-2,0,-2
1501879255452076,13,0,-3,-60,-13,-3,-10,-4
1501879255454074,-6,1,-8,-24,6,2,17,3
1501879255454074,3,-3,23,58,-10,-6,-6,0
1501879255466074,2,4,-8,21,7,4,1,1
1501879255466074,1,-4,16,4,-2,-4,0,-1
1501879255475076,-2,0,-8,3,-3,-2,-6,-1
1501879255475076,-3,-1,-6,-11,-2,1,0,1
1501879255490077,6,-1,-5,-52,-9,-3,-3,-2
1501879255490077,-6,-2,-8,9,2,2,2,1
1501879255491077,-3,-2,0,-3,1,2,-1,-6
1501879255491077,2,0,3,23,1,-1,4,2
1501879255513089,-3,-2,1,-3,-2,-2,-4,1
1501879255513089,-2,-2,-11,-18,-2,-1,-2,-1
1501879255514077,-1,-3,6,17,-1,-2,-5,-1
1501879255514077,3,0,-6,-10,0,-2,-1,1
1501879255526078,-4,-3,-3,-16,1,0,-5,-1
1501879255526078,-2,-1,-4,-3,-2,1,2,-2
1501879255535078,5,1,7,5,1,0,1,4
1501879255535078,-1,0,-3,-14,-2,0,0,0
1501879255550080,-4,-2,11,22,-1,-2,-1,-3
1501879255550080,1,-2,-4,0,-4,-2,-2,-3
1501879255552079,-1,-2,-7,-3,-2,-2,-3,-1
1501879255552079,-2,0,-10,-40,1,1,-2,2
1501879255572079,-3,-3,1,13,1,1,1,-1
1501879255572079,1,1,0,27,0,-1,1,-1
1501879255574080,-1,-2,1,-11,-4,-4,-3,-3
1501879255574080,-2,-2,10,4,0,-3,-3,-2
1501879255586081,1,-1,-8,-18,-1,-1,-3,2
1501879255586081,-2,0,-5,9,3,5,4,0
1501879255595083,-3,-4,-18,-56,-7,-3,2,2
1501879255595083,-1,0,-1,61,4,1,5,-3
