timestamp,emg1,emg2,emg3,emg4,emg5,emg6,emg7,emg8
1501878444951164,5,30,28,0,-28,-10,5,30
1501878444951164,-2,-87,-9,5,-1,17,4,-21
1501878444951164,2,48,27,30,-1,-10,10,9
1501878444951164,29,41,34,14,-1,11,8,-7
1501878444952164,6,39,-4,34,26,-4,-13,-41
1501878444952164,1,32,25,-46,5,-2,5,23
1501878444955205,-18,-92,29,1,-12,2,0,16
1501878444955205,-4,-12,-11,5,43,5,-10,60
1501878444963203,9,22,-35,12,-3,-3,12,-33
1501878444963203,-2,4,-44,-16,-16,-9,-17,-22
1501878444971203,11,111,20,-58,-47,3,-11,-61
1501878444971203,-5,21,30,78,-4,-10,-4,29
1501878444977203,-8,-53,-40,-75,-18,1,-8,-20
1501878444977203,-11,22,17,32,-12,-12,7,41
1501878444992203,21,68,21,48,35,15,1,0
1501878444992203,1,16,-85,-77,2,-4,4,26
1501878445001204,-10,6,89,68,-12,-3,-6,-86
1501878445001204,-14,-4,-9,-51,6,0,-4,0
1501878445016203,22,8,26,52,3,-7,3,20
1501878445016203,-15,37,30,-59,-32,-2,-12,-32
1501878445023224,-13,-77,-9,-11,27,4,-2,33
1501878445023224,22,48,-19,33,-23,-1,-2,36
1501878445037234,-23,-51,-11,-8,24,-2,22,7
1501878445037234,4,-1,1,8,-2,-6,-9,-25
1501878445079171,-6,-42,-31,17,15,0,-8,-11
1501878445079171,11,32,8,-29,12,0,-11,-19
1501878445080170,-1,24,-4,11,-44,-3,0,9
1501878445080170,0,-7,3,5,3,1,4,10
1501878445083209,-17,-7,3,-54,-6,-6,-5,-42
1501878445083209,1,-66,15,14,-4,2,5,22
1501878445084202,5,31,27,51,13,0,-3,15
1501878445084202,4,-34,-26,-38,-6,-7,-4,-12
1501878445089213,5,103,8,36,-41,-5,0,7
1501878445089213,-10,-20,15,18,48,9,4,5
1501878445097235,6,50,-34,-30,-7,-1,9,15
1501878445097235,1,6,57,60,30,0,-5,1
1501878445106206,9,5,60,-20,-28,3,6,28
1501878445106206,-9,-43,-50,47,6,-8,-9,-50
1501878445120194,-8,32,35,13,6,-1,1,-13
1501878445120194,2,4,-6,10,-5,0,-6,18
1501878445128230,-9,-30,-33,-4,11,-1,1,-23
1501878445128230,6,20,11,-49,-14,-4,-13,42
1501878445151213,-10,-48,16,-3,20,4,21,-21
1501878445151213,0,38,-20,-17,-44,-8,0,28
1501878445152174,2,-27,23,23,46,2,4,0
1501878445152174,-1,60,-22,-3,-39,-5,-9,-34
1501878445165216,-1,-108,-36,-20,3,-4,-14,-12
1501878445165216,-9,3,-5,-48,8,1,-2,12
1501878445172232,12,11,44,98,-12,-12,-3,38
1501878445172232,-4,0,-14,-58,-15,0,7,-6
1501878445188217,-9,-43,-22,8,47,4,-8,-2
1501878445188217,6,10,-16,32,-13,1,6,-23
1501878445190213,0,5,-19,-9,4,0,-2,33
1501878445190213,-5,7,-17,-12,-19,-5,7,-17
1501878445211196,11,-19,-1,32,-11,3,5,73
1501878445211196,-20,-68,60,9,25,0,-18,-52
1501878445212178,-12,-16,-64,-61,0,-6,-4,-21
1501878445212178,0,12,14,7,-2,3,-3,2
1501878445225221,3,-15,-12,-5,0,-8,8,16
1501878445225221,2,7,-21,7,-5,6,5,0
1501878445232218,-8,12,2,-73,-7,1,-4,-3
1501878445232218,0,28,0,36,-13,-7,-2,-27
1501878445248225,-9,7,5,4,5,1,-11,-27
1501878445248225,17,32,7,0,-32,-10,10,47
1501878445250189,-9,45,14,44,30,1,-8,-34
1501878445250189,-29,-49,-11,-42,15,5,-2,-34
1501878445271192,12,25,-1,-8,-21,-8,-9,-18
1501878445271192,0,15,-16,25,3,1,-3,15
1501878445272180,10,26,-30,-36,-12,3,13,45
1501878445272180,-13,-42,-30,-12,-12,-13,-12,-44
1501878445284214,5,-20,20,20,49,14,1,0
1501878445284214,-17,4,2,-110,-15,1,2,-27
1501878445293183,15,-16,40,11,-3,-1,10,26
1501878445293183,10,53,-18,-17,-21,-3,-8,-1
1501878445308251,1,42,14,-14,3,-4,-5,-7
1501878445308251,-15,-95,-35,34,15,2,1,-34
1501878445310183,6,-20,-1,28,-7,0,-5,0
1501878445310183,8,26,22,18,-27,0,7,48
1501878445331229,-3,-18,-15,-53,9,1,-3,-31
1501878445331229,6,98,19,12,0,1,0,22
1501878445332184,-16,-84,-10,29,13,-2,-1,-10
1501878445332184,10,6,12,-18,4,-1,11,52
1501878445344227,13,124,7,-31,-31,-6,-3,-49
1501878445344227,-2,-22,20,37,18,4,-7,-75
1501878445353186,-4,69,-56,-66,-28,0,-2,-27
1501878445353186,0,-52,31,76,61,-7,2,33
1501878445368186,1,30,-23,-89,-46,11,2,-6
1501878445368186,13,30,14,-1,14,-4,-2,14
1501878445370188,-6,-20,-11,-23,-28,-3,5,7
1501878445370188,10,62,18,40,-4,3,1,-5
1501878445391254,-12,-65,-7,-8,14,-6,-2,34
1501878445391254,-1,-27,9,1,-10,-4,-2,0
1501878445392207,16,-20,16,34,-18,4,2,24
1501878445392207,-21,-21,-51,-30,33,1,-10,-19
1501878445404219,8,72,23,22,-2,-6,1,13
1501878445404219,-12,-32,-25,37,-4,-4,-1,6
1501878445413201,2,-6,18,9,27,7,1,-2
1501878445413201,-6,-126,1,-23,-25,-5,6,62
1501878445428257,-9,39,-7,19,-28,-2,-2,-57
1501878445428257,4,-39,4,-37,21,4,-5,-21
1501878445430203,-1,-27,-3,19,-8,-2,-3,-5
1501878445430203,-3,63,63,9,9,-5,-5,-45
1501878445451190,-4,-74,-73,9,18,8,6,75
1501878445451190,-8,86,-19,65,-2,-8,-7,-11
1501878445452201,-11,25,-5,-109,8,9,4,-4
1501878445452201,4,49,-2,16,-24,-9,-9,-26
1501878445464227,3,-8,32,35,-34,-11,-3,17
1501878445464227,10,35,1,-28,40,8,1,-6
1501878445473191,-1,-2,5,39,5,-4,-6,-27
1501878445473191,-1,-10,-28,32,9,9,15,24
1501878445488200,-19,-54,-12,-36,8,-6,-2,1
1501878445488200,0,-8,0,-15,-27,-5,-6,10
1501878445490195,-1,29,16,30,-6,-8,-7,9
1501878445490195,7,-17,2,-8,19,10,0,-4
1501878445511195,-8,-39,-8,-12,-30,-2,-5,-37
1501878445511195,-1,-41,9,-2,2,0,9,55
1501878445512195,13,15,17,-29,13,0,-2,3
1501878445512195,4,-43,24,42,0,-4,-2,-3
1501878445524195,-16,-14,-35,5,-2,-5,-11,-24
1501878445524195,4,24,-19,-63,27,3,5,1
1501878445533196,0,-21,18,48,6,-7,-5,-15
1501878445533196,-5,28,-32,-52,-15,6,4,17
1501878445548230,2,-22,20,17,8,-7,1,18
1501878445548230,2,-17,2,-18,-33,-7,1,-6
1501878445550208,-1,9,-27,-2,29,7,2,8
1501878445550208,-6,-12,13,2,-37,-5,-7,-30
1501878445571240,0,14,14,56,-7,-1,0,2
1501878445571240,0,23,-12,-29,12,4,5,11
1501878445572199,-2,-18,-17,-13,-25,-4,0,22
1501878445572199,1,32,-16,-4,0,-2,-6,-14
1501878445584239,1,26,-3,20,-36,-4,-1,22
1501878445584239,3,-43,20,2,19,2,4,-6
1501878445593209,8,85,31,21,-1,4,6,9
1501878445593209,0,-45,-18,-15,2,2,-6,-14
1501878445608243,-16,-34,-21,-33,13,-10,-6,9
1501878445608243,-2,17,4,-2,-43,-6,0,4
1501878445610212,-5,-4,5,49,40,7,1,5
1501878445610212,12,48,14,-46,0,-1,-3,5
1501878445631249,4,-10,18,-17,21,0,-5,-12
1501878445631249,-7,-15,1,5,-14,-3,-2,-4
1501878445632202,-4,10,-1,-8,-50,-12,-5,-23
1501878445632202,10,41,34,20,0,1,4,19
1501878445644261,-2,-12,-56,10,46,4,1,2
1501878445644261,-3,10,4,14,2,4,-3,-5
1501878445653216,-7,-40,-18,-22,-28,0,-3,-26
1501878445653216,0,19,10,12,29,1,0,35
1501878445668246,3,32,27,1,-17,-1,-3,-32
1501878445668246,-1,2,-25,39,-15,-8,-2,5
1501878445670203,0,-31,19,-33,12,6,0,4
1501878445670203,-1,10,-23,-7,-9,-4,1,37
1501878445691275,10,15,33,-16,-7,2,0,-35
1501878445691275,-2,-5,0,8,-6,-3,-4,-7
1501878445692205,-12,-51,-25,1,25,-1,-2,10
1501878445692205,2,-3,4,-5,0,-2,4,-8
1501878445713215,0,32,16,7,13,5,-5,-1
1501878445713215,6,5,-5,-11,-9,1,1,-20
1501878445715217,2,54,-14,1,-5,-4,-4,13
1501878445715217,1,2,-7,-5,-12,0,0,9
1501878445728273,-2,1,35,22,23,5,8,7
1501878445728273,12,16,11,-7,-16,-2,5,56
1501878445730222,-16,-10,-37,0,-3,-5,-11,-60
1501878445730222,-5,-30,-3,-15,-7,1,0,-4
1501878445750274,-2,12,-16,28,6,-5,-2,2
1501878445750274,-7,-44,-13,-75,-54,-1,-2,-23
1501878445757209,3,-9,-3,-3,34,0,3,30
1501878445757209,-3,-17,1,10,-14,-5,-7,-42
1501878445773208,8,44,-8,-41,-12,-1,-2,19
1501878445773208,-8,-25,-3,42,51,0,2,-6
1501878445775220,1,22,18,16,-26,-4,0,-7
1501878445775220,-18,-40,-18,-55,-15,-4,-11,-49
1501878445788209,11,17,6,38,33,-1,5,17
1501878445788209,-2,35,-6,-31,-12,3,3,50
1501878445790210,-4,2,21,20,-2,0,-14,-78
1501878445790210,-1,-41,-27,-20,35,2,4,22
1501878445811211,-1,-23,2,-19,-35,-7,0,-7
1501878445811211,5,58,-10,15,16,3,-2,-12
1501878445812213,-11,-16,20,-1,-7,-5,-4,14
1501878445812213,4,20,-2,10,-2,1,2,-12
1501878445833276,-8,-29,12,-10,-2,2,-6,4
1501878445833276,4,3,-1,20,21,-3,-1,14
1501878445835221,5,27,16,-11,-20,3,7,-4
1501878445835221,-14,-19,-11,19,-3,-6,-7,-20
1501878445848214,10,62,-9,-17,8,2,4,12
1501878445848214,-15,-72,-7,12,-7,-2,-5,-30
1501878445850228,3,9,12,-26,-26,-6,-7,-9
1501878445850228,6,18,9,26,37,6,5,13
1501878445871254,-2,-16,5,1,-20,-3,1,-5
1501878445871254,1,21,-33,-14,6,-2,-3,-9
1501878445872216,3,-20,-9,-2,15,1,-2,17
1501878445872216,3,19,7,-4,-22,-1,3,11
1501878445893279,-8,-15,-4,11,8,0,-3,-3
1501878445893279,0,17,35,31,0,0,2,-2
1501878445895243,10,-8,-15,-26,-27,-2,-3,27
1501878445895243,-5,13,4,6,26,6,-2,-27
1501878445908232,1,-4,5,0,-4,1,4,22
1501878445908232,-23,-2,13,4,-8,-6,-23,-75
1501878445914222,10,86,-5,15,2,-1,7,15
1501878445914222,7,-92,5,3,10,-1,-1,26
1501878445931263,-20,-34,-1,-10,-8,-3,-1,-8
1501878445931263,7,14,8,11,16,-2,-2,27
1501878445932219,-5,-10,-21,-31,-8,0,4,18
1501878445932219,11,37,2,10,-20,-2,8,48
1501878445953260,1,24,-37,-11,4,-5,-10,-80
1501878445953260,-7,-57,21,-24,-40,3,0,8
1501878445955256,-16,1,-44,66,44,-9,-11,-29
1501878445955256,16,28,24,-34,-14,6,7,2
1501878445968237,-4,-37,8,-4,-22,0,-3,8
1501878445968237,2,40,-16,-20,15,-4,5,9
1501878445974259,1,-48,2,10,-4,-6,-7,2
1501878445974259,-11,12,-15,-33,-45,-6,-2,-7
1501878445991273,3,-7,5,25,15,6,1,30
1501878445991273,-5,21,10,26,1,-4,-7,-48
1501878445992235,7,16,14,1,-16,4,15,39
1501878445992235,-15,-30,-39,-35,6,-5,-15,-67
1501878446013284,6,-54,7,-2,15,1,-2,2
1501878446013284,0,22,-1,6,-2,-1,5,53
1501878446015235,1,-2,-22,-17,2,1,7,13
1501878446015235,-7,-55,16,19,-3,-4,-7,10
1501878446028239,5,68,7,-2,1,2,4,-8
1501878446028239,-2,-96,-22,-14,1,-1,-7,-7
1501878446034263,0,23,12,-15,5,2,3,1
1501878446034263,6,24,13,22,-18,-6,3,30
1501878446058294,2,-10,-6,6,6,5,5,-3
1501878446058294,1,-3,-4,15,45,3,11,24
1501878446060225,6,-37,24,-18,-32,2,-9,-13
1501878446060225,-10,30,-24,0,13,-1,3,-5
1501878446073290,2,35,31,3,-8,-2,-4,0
1501878446073290,3,1,-23,-1,-23,-1,5,-5
1501878446075237,-19,-55,-15,-21,8,-3,-14,-57
1501878446075237,0,28,17,52,39,5,5,18
1501878446096265,-3,-50,-11,-82,-41,-9,-2,23
1501878446096265,5,48,0,-15,36,4,-6,-6
1501878446097229,-1,-35,6,29,-11,-2,-5,8
1501878446097229,7,8,11,11,13,1,8,20
1501878446109296,-12,9,4,1,-7,0,-8,-56
1501878446109296,3,14,13,-19,-39,-7,-7,17
1501878446118251,-3,25,-5,-4,15,1,1,10
1501878446118251,-1,-23,-8,1,-3,1,-2,8
1501878446133269,5,22,0,-5,-1,-3,8,20
1501878446133269,-7,6,-12,-1,-2,1,0,-36
1501878446135262,3,27,3,10,9,3,1,7
1501878446135262,0,-10,14,10,-3,1,4,7
1501878446156299,-8,2,-18,13,12,-1,-8,-24
1501878446156299,1,-5,-1,-18,-10,-4,-1,-24
1501878446157247,-1,26,-10,-20,12,-4,-8,7
1501878446157247,3,30,9,10,-16,-1,-2,13
1501878446169294,0,-35,-4,21,8,-3,1,5
1501878446169294,-3,-10,13,-7,-7,6,3,19
1501878446178247,-5,-20,-13,-4,-12,-3,6,-15
1501878446178247,4,21,-4,-3,-1,-3,-7,17
1501878446193234,-6,-13,-38,-6,11,2,-5,-24
1501878446193234,3,21,0,-9,-12,-3,1,3
1501878446195245,6,-16,14,0,5,1,6,16
1501878446195245,-9,25,-16,-3,-6,-2,-5,-40
1501878446216282,10,-13,25,48,8,3,7,12
1501878446216282,-4,-25,-13,-28,21,1,-1,3
1501878446217234,-2,-18,-5,-2,-6,-2,-2,-14
1501878446217234,4,15,21,7,1,6,7,0
1501878446238279,-2,11,0,4,3,-3,-7,-17
1501878446238279,-7,-11,-36,5,-1,-4,-10,-15
1501878446240247,5,10,8,-13,-23,-4,0,3
1501878446240247,-4,-4,4,-14,4,-4,-3,-4
1501878446252299,1,0,6,-18,-19,-4,6,45
1501878446252299,1,-9,5,24,-8,-1,-4,-9
1501878446261238,2,3,-4,25,14,2,-6,-2
1501878446261238,-5,-15,9,-15,10,1,-2,-10
1501878446276304,2,26,-2,-9,-5,1,6,28
1501878446276304,-2,-14,8,24,-28,-5,-3,23
1501878446277247,-5,-11,-26,-14,-12,-2,0,-11
1501878446277247,3,-18,-11,3,24,6,0,-11
1501878446298238,1,8,16,-6,-1,-4,-3,-6
1501878446298238,1,12,1,11,0,-1,3,24
1501878446300244,-6,-3,5,11,12,-2,-2,-6
1501878446300244,2,4,10,-13,-20,1,2,5
1501878446313275,4,10,-19,4,4,1,6,4
1501878446313275,-1,-22,-10,-24,-6,-6,-14,-48
1501878446315240,-5,1,7,4,-19,-6,-3,0
1501878446315240,-6,2,-2,-7,32,1,-4,-13
1501878446336282,1,-10,12,-1,-25,0,1,-4
1501878446336282,2,21,-1,-5,36,0,6,12
1501878446337241,-3,22,8,-1,8,4,0,-13
1501878446337241,-3,-17,-25,0,-31,-6,-5,-5
1501878446358310,-1,19,6,-4,-3,-1,-3,-8
1501878446358310,6,4,9,10,5,3,6,35
1501878446360254,2,-6,-7,10,2,1,5,-18
1501878446360254,-9,-16,-25,-25,-8,-5,-11,-8
1501878446373261,-2,8,3,-13,-30,-3,-5,-6
1501878446373261,-2,14,-9,-4,7,-2,-4,-9
1501878446379309,5,-47,12,12,37,5,8,27
1501878446379309,5,-3,8,6,-26,1,3,7
1501878446396314,-7,-13,-11,17,16,1,-5,-2
1501878446396314,-4,-2,0,-6,-7,2,2,-2
1501878446397246,3,30,16,-15,-9,1,3,5
1501878446397246,-2,-12,-40,19,-9,-5,-1,31
1501878446418284,-1,-5,1,10,18,-2,-4,-42
1501878446418284,-8,6,4,-15,0,0,1,-31
1501878446420278,3,45,6,-22,1,0,-1,1
1501878446420278,-3,-45,-4,-8,-10,-3,1,-3
1501878446433259,7,10,18,21,-16,0,10,25
1501878446433259,-6,-31,-7,-12,10,2,-4,-23
1501878446439317,-4,21,7,20,11,-1,-1,0
1501878446439317,6,-33,18,13,6,4,3,-9
1501878446456281,-5,-6,-2,-12,-10,-3,-1,49
1501878446456281,-4,19,-23,18,8,3,-2,-49
1501878446457249,5,-19,6,-13,3,1,2,5
1501878446457249,-2,51,6,15,0,-3,-1,-22
1501878446478289,-4,-19,-17,-11,3,0,-3,35
1501878446478289,-6,-10,15,13,-4,-7,-7,-39
1501878446480282,0,9,-18,-18,-9,0,-2,15
1501878446480282,-1,-2,24,36,20,-9,-7,-12
1501878446493272,9,17,2,-12,34,15,12,33
1501878446493272,-11,-25,-24,-38,-31,-9,-11,-53
1501878446499298,0,-12,-3,-7,-13,-4,-6,-2
1501878446499298,4,4,0,4,13,1,3,-9
1501878446516319,-10,-33,-1,0,0,-10,-13,-44
1501878446516319,12,1,0,-1,16,6,20,85
1501878446517252,-14,-12,-5,7,-14,-9,-20,-61
1501878446517252,7,47,17,-19,-15,11,5,14
1501878446538254,-1,-30,-23,-4,37,0,2,-11
1501878446538254,-3,-4,13,20,-8,0,0,12
1501878446540262,6,0,-2,-18,-43,-5,1,24
1501878446540262,-2,51,5,-13,39,-4,-2,7
1501878446552253,0,-8,-8,-9,-26,-3,-3,-48
1501878446552253,2,20,-15,12,5,2,5,36
1501878446559292,-9,-80,-16,-10,12,-2,0,-8
1501878446559292,-2,-8,-3,-13,-8,-4,1,13
1501878446576323,-1,39,4,19,-21,-2,-2,-5
1501878446576323,-11,-5,26,-10,1,-5,-20,-11
1501878446577257,0,-6,1,26,-13,-3,-1,4
1501878446577257,-4,-10,-7,-8,10,2,1,9
1501878446598266,5,-26,-19,10,-6,-6,0,35
1501878446598266,2,1,-2,-21,-5,4,6,10
1501878446600255,-5,-4,2,2,29,1,1,-1
1501878446600255,4,-11,-7,11,-23,-3,-3,-6
1501878446613278,-1,25,26,-19,-3,1,-1,-7
1501878446613278,5,8,-20,20,-6,-2,5,7
1501878446619256,1,54,12,18,-12,-3,-3,-18
1501878446619256,-11,-65,-18,-27,2,5,1,-8
1501878446636291,-3,-10,-6,-2,7,-1,-3,12
1501878446636291,10,5,18,15,-9,1,5,9
1501878446637260,-1,14,-6,-17,12,3,7,-33
1501878446637260,-1,21,4,-2,0,-3,-4,-15
1501878446658298,-5,8,3,3,-10,-4,-6,-22
1501878446658298,6,-18,15,1,13,0,4,26
1501878446660261,-5,4,8,10,19,-3,-2,17
1501878446660261,-2,8,-25,-22,-34,0,1,-4
1501878446672328,-3,-25,-6,-13,-7,0,2,11
1501878446672328,-3,19,-16,-24,1,-4,-9,-33
1501878446681261,-14,-7,-4,15,10,-8,-18,-10
1501878446681261,1,-5,18,-7,-23,6,3,-8
1501878446696310,1,28,8,17,15,-4,1,17
1501878446696310,4,12,-4,7,0,0,4,16
1501878446697275,5,-5,-14,-13,8,5,7,14
1501878446697275,3,33,7,1,-2,-7,-3,-8
1501878446718329,-4,-26,-9,-14,-20,-2,0,3
1501878446718329,-1,-9,16,16,-9,-4,-5,-10
1501878446720283,-1,-7,-3,10,17,0,0,10
1501878446720283,-3,1,5,-9,6,0,0,14
1501878446732303,2,5,3,-8,5,4,6,-7
1501878446732303,-9,-9,5,-1,-5,-1,-7,-16
1501878446741272,7,-8,-14,6,-14,-1,5,18
1501878446741272,-4,-26,-5,-7,2,-7,-10,-11
1501878446756332,1,13,-1,10,6,2,-2,7
1501878446756332,-2,-6,11,12,16,0,2,3
1501878446757265,0,21,0,-8,-4,8,8,-12
1501878446757265,-6,-10,6,9,-21,-4,-6,13
1501878446778308,-7,4,7,18,51,4,-1,-16
1501878446778308,1,-25,-3,-4,-8,1,6,19
1501878446780266,3,-14,-1,-24,-11,4,3,-13
1501878446780266,4,20,-13,8,-4,0,0,11
1501878446792307,-6,-24,-5,7,-21,-7,-3,-5
1501878446792307,2,11,-10,-2,-2,-3,2,19
1501878446801270,-3,-3,8,-5,5,2,1,11
1501878446801270,-1,-9,2,19,8,-4,-7,-35
1501878446816314,2,18,8,-8,-13,-2,-6,6
1501878446816314,2,5,-18,4,-6,-1,-1,-21
1501878446817280,-4,-18,-4,-15,-24,-10,-3,-6
1501878446817280,-7,9,6,8,33,5,1,-7
1501878446838339,-1,-21,-7,-4,4,0,1,-5
1501878446838339,2,9,16,4,-40,0,-1,1
1501878446840272,0,1,-3,25,18,-1,-4,9
1501878446840272,0,11,-24,-25,2,0,4,7
1501878446852308,-3,-8,-7,-2,-4,-1,-1,-18
1501878446852308,3,-2,16,0,-7,0,-4,-7
1501878446861287,1,3,5,13,7,2,-1,-3
1501878446861287,-1,-16,0,7,-7,0,3,11
1501878446876328,7,49,2,13,-19,-4,4,13
1501878446876328,-7,-25,-6,-32,11,-5,-4,-5
1501878446877284,2,3,-3,-7,16,3,-1,-6
1501878446877284,-4,-24,3,14,-9,0,1,18
1501878446898292,1,31,-6,-14,-55,-5,-3,-24
1501878446898292,-3,3,-11,5,39,1,-1,-19
1501878446900306,0,3,4,-9,-14,-3,4,30
1501878446900306,3,0,-2,2,2,-1,6,17
1501878446912311,-5,-20,6,-1,1,-4,-8,3
1501878446912311,2,8,0,-1,-15,-5,-1,33
1501878446921276,-3,17,-2,-17,-8,-1,-2,-31
1501878446921276,-5,-15,2,13,-1,-4,-8,-51
1501878446936296,-5,13,-4,18,22,2,-5,-23
1501878446936296,1,6,-2,-31,5,5,5,12
1501878446937278,9,21,4,7,-13,-2,-3,8
1501878446937278,-2,-7,-7,-1,3,1,3,18
1501878446958323,-8,-13,18,0,-16,0,-3,1
1501878446958323,-7,-24,-6,35,55,-1,-4,-10
1501878446960278,-12,-17,-7,-36,-59,-3,-1,0
1501878446960278,5,23,7,0,21,-1,2,1
1501878446972289,5,-10,-7,-16,16,0,2,13
1501878446972289,0,9,9,18,-21,-1,-1,-28
1501878446981280,-1,33,4,1,-1,-7,-1,27
1501878446981280,-1,-44,1,23,8,2,-3,-24
1501878446996315,-4,-16,-11,-17,-2,-5,-7,-6
1501878446996315,0,8,4,-20,-9,4,2,9
1501878446997282,-4,-10,-26,-23,1,2,1,11
1501878446997282,2,9,-5,-9,-17,-2,4,21
1501878447018323,1,3,15,21,5,-2,-5,-16
1501878447018323,-3,-7,-7,-7,-11,0,-1,-1
1501878447020281,0,-15,2,-10,14,-1,-3,12
1501878447020281,0,20,21,34,-35,-4,0,24
1501878447032291,3,3,-35,-24,27,3,6,5
1501878447032291,-5,21,12,9,-31,-6,-9,-44
1501878447041293,2,11,11,17,46,2,-1,-6
1501878447041293,-3,-44,1,-40,-14,0,-2,-30
1501878447056348,4,3,-15,15,17,7,5,33
1501878447056348,-2,10,-3,-5,-15,-6,-3,-12
1501878447057283,6,10,7,-6,-1,-3,3,-22
1501878447057283,0,9,-9,-9,-8,-2,1,38
1501878447078327,-5,-38,-17,-13,9,3,-6,-33
1501878447078327,5,19,-1,-16,-11,-2,2,38
1501878447080285,1,-42,-5,1,17,4,0,2
1501878447080285,-14,49,14,20,31,2,-9,-52
1501878447092344,1,-16,6,-22,-25,-4,-1,-1
1501878447092344,1,0,-12,9,-2,0,1,8
1501878447101320,0,-27,5,15,-3,0,6,-3
1501878447101320,9,27,-9,-21,-11,0,8,43
1501878447116327,-2,-5,28,23,-5,-3,-5,-23
1501878447116327,0,4,-20,-34,-3,-1,-1,4
1501878447117286,-2,7,-3,23,-5,-2,4,10
1501878447117286,-9,-29,-7,-20,-20,-1,-12,-15
1501878447138333,2,9,-4,5,17,2,2,16
1501878447138333,0,-8,18,23,-1,-2,0,11
1501878447140320,-5,-28,19,48,7,2,-1,-17
1501878447140320,0,-20,-21,-66,2,3,1,9
1501878447161299,-3,2,-2,-11,-16,-4,3,14
1501878447161299,-5,-10,2,6,-8,-2,-3,2
1501878447162298,-3,10,-4,9,-4,0,-5,-31
1501878447162298,10,12,-3,12,-11,-11,-4,-4
1501878447174348,-8,-11,-12,-18,3,0,2,-2
1501878447174348,-4,1,-4,-10,4,-3,-6,-12
1501878447183312,-4,-11,0,-12,-19,-7,-15,19
1501878447183312,-4,12,14,31,18,0,-2,-22
1501878447198332,1,-21,-4,-11,-24,-1,4,23
1501878447198332,-6,-43,4,26,16,-2,-1,-22
1501878447200291,-5,12,0,-39,9,-1,-3,2
1501878447200291,1,-8,-6,20,8,-1,0,17
1501878447221326,1,12,-15,-11,-5,-1,-1,8
1501878447221326,4,23,16,0,-7,0,4,-36
1501878447222294,-2,-11,-26,4,2,-2,-3,6
1501878447222294,-2,34,8,-17,-4,-4,-3,-6
1501878447236330,-2,-53,2,-2,-4,-3,-4,6
1501878447236330,-1,5,-1,13,12,3,1,17
1501878447237294,-3,5,-3,-16,-2,-2,0,-21
1501878447237294,2,14,1,-2,0,-2,-5,-5
1501878447258342,0,-4,11,18,-3,-2,4,-7
1501878447258342,-5,2,-36,-11,3,-2,-5,15
1501878447260303,1,-9,2,25,-25,-2,1,-15
1501878447260303,-2,-17,8,-23,9,3,6,14
1501878447281326,2,40,11,-8,23,-1,-2,-25
1501878447281326,2,-18,7,3,-8,0,4,24
1501878447282305,6,18,-6,7,1,-2,-3,1
1501878447282305,-6,-16,-11,19,-3,-5,-2,-15
1501878447296305,0,15,1,-7,-13,2,1,1
1501878447296305,1,21,8,-6,17,2,3,5
1501878447297298,-6,2,4,-4,-6,-2,-4,15
1501878447297298,2,-46,-6,5,15,3,3,19
1501878447318331,-3,11,3,9,6,-2,-4,-33
1501878447318331,-2,-13,-5,-7,-4,0,3,12
1501878447320330,1,1,-10,-15,-7,1,-4,-4
1501878447320330,-3,5,2,5,-3,1,-4,-34
1501878447341333,-9,-20,-8,5,4,-2,-4,11
1501878447341333,4,19,0,2,-12,0,0,-15
1501878447342319,-1,-5,1,0,3,-1,3,25
1501878447342319,2,6,4,4,-8,-5,-2,20
1501878447355333,1,3,4,-14,1,2,0,0
1501878447355333,1,-2,2,33,-1,-4,-5,-9
1501878447362332,-2,-8,-4,-15,15,4,5,-9
1501878447362332,4,29,2,0,-16,-3,-1,35
1501878447378336,-16,-22,-10,4,-17,-5,-8,-54
1501878447378336,5,-1,-17,-25,38,7,4,25
1501878447380307,-6,-6,-7,-3,-7,1,2,-24
1501878447380307,1,28,2,10,19,2,-6,-14
1501878447401305,3,9,8,9,-22,-4,0,5
1501878447401305,-4,-22,7,2,-11,-3,-5,6
1501878447402307,1,9,5,-12,-2,-1,-1,11
1501878447402307,-5,0,-8,8,-31,-2,2,-19
1501878447415333,0,10,-5,-18,25,3,-4,-18
1501878447415333,0,4,-2,23,7,-3,1,6
1501878447422310,3,6,0,-2,14,4,4,-10
1501878447422310,2,-17,5,12,-23,-2,3,17
1501878447438373,3,-22,3,9,2,-2,-3,16
1501878447438373,-8,7,-2,-24,-10,-3,-10,-38
1501878447440337,3,18,-6,8,-17,-5,1,33
1501878447440337,-10,-23,-7,-1,10,1,0,-30
1501878447461342,0,29,-1,10,24,1,1,11
1501878447461342,5,-19,1,-25,-34,2,8,15
1501878447462308,-12,-22,3,10,-1,-4,-12,-33
1501878447462308,7,2,-5,-10,24,1,3,19
1501878447475344,-7,19,5,-4,7,-2,-8,-35
1501878447475344,2,-3,-16,9,-6,-4,-1,-14
1501878447482364,-3,-33,3,20,-4,-3,6,14
1501878447482364,-3,10,-4,-44,6,3,1,-10
1501878447498319,5,-33,5,37,-13,3,-2,21
1501878447498319,-1,8,6,-17,-3,2,2,29
1501878447500308,-3,24,-3,8,10,-3,-4,-35
1501878447500308,-2,0,-5,21,-8,0,1,0
1501878447521330,4,6,-4,-31,-2,-3,2,14
1501878447521330,-2,2,12,25,-11,0,-3,15
1501878447522310,3,3,-5,-15,19,1,0,-18
1501878447522310,-2,0,8,7,-6,-2,-2,-12
1501878447535376,1,9,-9,-12,-15,1,4,7
1501878447535376,-5,-5,-9,9,4,-5,-9,-47
1501878447542377,2,1,5,-29,0,1,1,7
1501878447542377,2,-4,-7,20,-3,-3,1,-3
1501878447558376,-5,-6,-2,-7,19,-1,-3,-6
1501878447558376,2,9,7,12,-2,-3,-1,49
1501878447560313,-3,-10,2,-11,-20,2,-6,-47
1501878447560313,-2,8,-2,-15,7,-4,-9,-13
1501878447581313,1,22,-1,25,-7,-4,3,20
1501878447581313,1,-8,-10,-32,2,2,3,2
1501878447582349,3,-4,-5,9,-9,-6,0,24
1501878447582349,-14,-22,-1,-30,-5,3,-8,-45
1501878447595354,4,18,18,3,-2,-4,1,15
1501878447595354,-5,5,-10,8,7,-2,-1,-9
1501878447602390,-2,-15,-1,-14,0,5,0,18
1501878447602390,5,8,6,17,15,-1,4,26
1501878447618362,2,-27,-1,4,-27,-1,3,-5
1501878447618362,0,17,1,-5,-15,-3,-12,-13
1501878447620347,-1,12,-2,11,19,5,5,14
1501878447620347,1,-24,-5,1,-3,-4,-3,0
1501878447641333,3,21,-3,-6,7,2,2,20
1501878447641333,1,-13,-4,-1,7,0,1,-11
1501878447642318,-9,-23,-4,-2,-16,-5,-5,-13
1501878447642318,2,14,1,21,26,3,5,21
1501878447654381,0,-4,-6,-18,-41,-4,-1,0
1501878447654381,-10,7,3,-3,21,0,-4,-30
1501878447664317,4,16,-6,4,-3,2,2,14
1501878447664317,0,-1,-10,-8,-2,2,1,-22
1501878447677359,-1,3,2,4,-26,2,-3,-4
1501878447677359,1,-18,-5,-6,23,-3,5,34
1501878447678317,0,-8,15,-11,-1,-4,-2,-23
1501878447678317,2,-1,-12,-1,-8,0,1,17
1501878447700384,-7,2,10,21,23,-1,-6,-14
1501878447700384,1,12,-9,-25,-27,2,1,-12
1501878447701320,0,-8,-12,13,4,-3,3,28
1501878447701320,-3,-15,-8,-28,-16,-8,-3,1
1501878447723382,0,27,9,6,6,-4,-6,-23
1501878447723382,-3,-49,-3,0,2,5,4,11
1501878447724322,-2,-14,-15,-5,5,-1,-2,21
1501878447724322,1,21,21,14,-15,-3,-2,5
1501878447737389,-7,-24,-14,-27,7,-1,-2,-5
1501878447737389,1,11,0,15,9,4,5,-7
1501878447738320,3,-1,-4,0,-3,-1,4,12
1501878447738320,-4,3,12,33,9,-2,-3,-9
1501878447760382,1,27,-10,-53,-3,0,-2,2
1501878447760382,-1,-6,8,16,-11,-5,-4,0
1501878447761336,1,-22,7,0,8,-1,2,-13
1501878447761336,-5,-2,-7,-11,-14,1,1,32
1501878447783389,-6,-26,-8,29,0,0,-2,-31
1501878447783389,-4,12,0,-15,-2,-4,-8,-15
1501878447784340,4,22,3,5,-14,-3,-2,1
1501878447784340,-7,-21,-6,-5,10,-3,-3,-6
1501878447797366,7,-13,-4,-12,8,4,6,23
1501878447797366,-5,19,-4,-4,-7,1,0,-18
1501878447798348,-1,15,6,-22,-20,-5,-4,4
1501878447798348,6,7,6,-1,11,2,0,2
1501878447820387,-4,5,-14,-4,-5,-1,3,-4
1501878447820387,6,-7,3,17,13,0,2,36
1501878447821327,-11,-31,-5,5,-8,-5,-12,-22
1501878447821327,-3,18,3,4,-12,1,-1,-8
1501878447842384,7,10,-1,1,15,-1,4,25
1501878447842384,-4,-13,-7,-18,-6,-8,-5,-19
1501878447843348,2,36,7,17,-28,1,4,-3
1501878447843348,-3,-15,-16,-21,34,-2,-8,-16
1501878447857387,1,5,2,-2,-26,-2,1,-10
1501878447857387,-10,-20,-3,-7,-7,-1,0,-10
1501878447858327,2,14,3,-9,-12,1,-3,1
1501878447858327,2,3,3,18,3,-6,3,4
1501878447888394,3,-14,-6,6,26,-1,-3,24
1501878447888394,-3,9,0,-3,-11,-1,-6,-42
1501878447889340,-4,-6,7,11,13,-4,-3,-11
1501878447889340,4,1,0,-12,-24,-1,2,14
1501878447902378,-2,-6,3,10,-3,-3,3,32
1501878447902378,0,-6,4,-15,-14,-2,-2,-7
1501878447903353,-4,11,-9,10,29,2,-3,-2
1501878447903353,3,3,-8,-15,-27,1,1,-2
1501878447917333,0,-1,-1,-2,22,0,-1,-37
1501878447917333,-3,-5,3,-6,-5,2,-4,17
1501878447918366,-2,-12,8,16,8,1,1,1
1501878447918366,2,13,-2,-24,-9,-2,1,6
1501878447940376,-4,13,-8,10,-7,0,-4,-17
1501878447940376,5,-27,2,1,-29,-8,0,8
1501878447941346,2,4,2,13,59,7,0,1
1501878447941346,-5,-11,2,1,13,4,1,-20
1501878447962399,-2,-13,-2,-16,-10,2,0,7
1501878447962399,10,34,11,8,-18,-1,2,24
1501878447963352,-6,-1,-12,-6,-19,-4,-10,-30
1501878447963352,-5,-17,4,17,13,-4,-5,-10
1501878447977375,-2,31,10,8,0,1,5,-7
1501878447977375,-6,0,-28,-14,-14,-6,-5,-15
1501878447978377,0,-30,-1,-23,-6,-2,-1,3
1501878447978377,-3,-8,-7,19,14,4,-1,-14
1501878448000406,6,26,4,-17,2,-3,-5,-7
1501878448000406,-4,-13,11,17,18,3,7,27
1501878448001348,0,-10,-1,-5,-4,-2,4,15
1501878448001348,-8,-19,-13,-17,-45,-11,-9,-16
1501878448022377,-1,-12,1,23,35,4,-3,7
1501878448022377,0,10,-1,-25,2,1,0,-2
1501878448023338,-2,7,-4,8,3,-3,1,1
1501878448023338,5,30,3,3,-16,4,4,6
1501878448037412,-7,-73,4,-7,-20,-3,2,18
1501878448037412,-3,22,-11,9,29,0,-8,-29
1501878448038339,-1,47,11,-1,-22,0,-5,-6
1501878448038339,7,-2,-3,0,-4,-2,-3,-17
1501878448060383,-3,-4,1,-1,-9,-3,-2,-1
1501878448060383,-1,-2,5,6,9,2,4,21
1501878448061340,-1,12,-4,-13,14,0,-2,-8
1501878448061340,-3,-19,-4,4,12,0,6,24
1501878448082404,-9,-8,-8,-32,-2,-4,-13,-45
1501878448082404,4,-26,4,19,-12,-2,-1,1
1501878448083341,3,5,2,-16,-37,2,3,2
1501878448083341,0,25,0,19,66,3,0,-3
1501878448097353,1,-7,-5,-11,-19,1,7,16
1501878448097353,6,4,-8,-25,-9,-4,-8,-16
1501878448098342,-5,-25,-1,-18,14,-1,5,17
1501878448098342,-5,15,0,-2,-29,-4,-7,-3
1501878448120390,1,-23,2,8,14,2,2,16
1501878448120390,-8,-20,-10,10,38,3,-1,-18
1501878448121367,10,54,6,5,-6,0,4,-29
1501878448121367,-9,-68,-11,-12,-26,-1,-8,-13
1501878448142410,-3,11,-2,4,3,-4,-4,-3
1501878448142410,5,19,6,0,0,3,4,10
1501878448143350,-1,-15,-16,-1,-49,-5,1,17
1501878448143350,-6,-26,14,31,53,1,-1,-6
1501878448157388,-4,-9,-10,-20,-37,0,1,-2
1501878448157388,-2,22,0,-9,-17,-6,-9,-15
1501878448158356,5,11,3,3,8,-2,3,27
1501878448158356,3,-37,-1,-12,-24,0,8,12
1501878448180345,1,90,-2,1,30,-6,-11,2
1501878448180345,-7,-72,-3,36,-2,0,1,-4
1501878448181346,6,12,-9,-37,4,4,-3,-17
1501878448181346,2,3,-9,-14,-43,-4,1,22
1501878448202412,-2,-20,0,19,30,-4,0,1
1501878448202412,15,112,29,-8,-11,3,3,-4
1501878448203348,-15,-21,-16,38,29,-6,-6,32
1501878448203348,19,95,9,-35,-1,10,6,-25
1501878448217350,-11,-106,-18,-12,-47,-1,-2,21
1501878448217350,-5,-21,-12,7,43,0,2,10
1501878448218356,-4,-13,9,12,-20,-6,-14,-47
1501878448218356,-1,-33,-2,-3,27,1,1,12
1501878448240362,3,39,17,26,-6,0,-2,-40
1501878448240362,8,60,10,-19,-34,-1,8,39
1501878448241351,-6,-52,-30,-10,35,0,2,10
1501878448241351,-12,51,-1,-1,-16,-2,-5,5
1501878448262391,6,-31,1,5,4,-1,-3,0
1501878448262391,-9,-32,1,8,-18,-2,-2,-12
1501878448263380,10,4,10,-2,4,2,7,-2
1501878448263380,0,11,5,10,29,-1,0,63
1501878448277391,-4,23,-2,1,7,3,-4,-54
1501878448277391,0,-43,-1,-2,-11,-4,-1,5
1501878448278393,-2,0,-1,-5,-11,-3,0,19
1501878448278393,0,-19,3,-20,-25,-4,-1,4
1501878448300393,13,81,17,12,13,-2,3,9
1501878448300393,-14,-57,-29,4,28,0,-6,-7
1501878448301355,-1,-38,4,-16,-31,-1,0,13
1501878448301355,-11,-54,-7,18,23,-4,-8,-60
1501878448322394,0,-8,11,5,-31,-5,-2,-15
1501878448322394,-7,34,-2,-26,26,5,5,31
1501878448323360,-1,-12,-4,-5,3,0,-2,-23
1501878448323360,0,6,4,-6,-38,-5,-3,-14
1501878448337397,-8,-25,-25,-9,12,-1,-3,-19
1501878448337397,7,19,-6,22,1,-3,-4,-15
1501878448338355,-6,-6,-5,0,4,3,4,-1
1501878448338355,8,49,13,13,14,0,-3,-8
1501878448360399,4,-7,-9,3,-26,0,5,13
1501878448360399,-11,-20,1,-10,-7,1,-1,31
1501878448361358,6,52,8,5,1,-3,-8,-27
1501878448361358,3,34,-4,9,4,4,0,-33
1501878448382358,-3,-75,-6,-6,3,-1,5,37
1501878448382358,-6,20,-14,-2,-14,-9,-15,-27
1501878448383368,3,-37,4,-3,10,3,2,9
1501878448383368,-5,26,10,4,-2,-1,0,0
1501878448397401,6,-18,7,0,12,4,9,36
1501878448397401,-8,-36,-3,-5,-1,-3,-9,-81
1501878448398371,3,17,-2,4,-5,-2,-1,-1
1501878448398371,1,-23,-8,-27,-1,0,6,26
1501878448420428,2,42,4,-6,-18,-3,-4,-10
1501878448420428,2,-2,6,0,-3,1,2,15
1501878448421374,-5,14,-1,19,13,0,-3,-15
1501878448421374,2,-27,-12,1,9,0,-1,21
1501878448442399,0,74,0,3,-12,2,3,22
1501878448442399,4,-23,-6,7,41,1,-3,13
1501878448443361,-13,17,-11,-25,-25,-7,-13,-53
1501878448443361,-3,11,5,9,-5,-2,-3,-2
1501878448457405,-3,-15,1,-11,-8,-3,-3,-5
1501878448457405,8,-1,-4,0,-9,1,10,49
1501878448458364,1,32,18,22,-9,1,3,29
1501878448458364,-5,-11,-25,-21,11,-3,-7,-26
1501878448480436,-8,-8,-2,0,9,1,-9,-26
1501878448480436,3,18,15,14,-21,0,2,-11
1501878448481364,4,2,0,1,-4,-5,5,33
1501878448481364,-7,-13,-2,-15,-10,-4,-4,-12
1501878448502364,-2,-34,-2,23,31,-2,-7,-10
1501878448502364,0,11,-1,-47,-19,2,4,16
1501878448503364,15,2,4,30,4,5,8,0
1501878448503364,-11,-42,0,-2,-1,-3,-9,-7
1501878448517375,-3,20,-15,-4,-14,-4,-1,7
1501878448517375,-2,4,8,5,5,-1,-3,-12
1501878448518364,2,18,-3,19,20,1,4,24
1501878448518364,11,1,11,-14,-49,2,7,9
1501878448540431,-5,-31,-12,-12,41,-4,-7,-12
1501878448540431,3,18,5,4,-18,-1,-2,-1
1501878448541410,3,-2,11,3,0,3,9,33
1501878448541410,-6,57,-4,22,30,-2,-12,-4
1501878448562442,4,23,11,-5,-25,4,2,-17
1501878448562442,7,-40,-4,-7,6,1,2,0
1501878448563368,-3,8,2,-13,-8,-4,-5,9
1501878448563368,-6,-44,-9,1,-7,0,2,-17
1501878448577425,3,-25,8,27,15,-2,3,60
1501878448577425,-10,42,-13,-20,-6,-2,-6,-63
1501878448578368,3,9,2,-7,21,2,-1,-16
1501878448578368,3,-7,12,40,-13,-4,4,20
1501878448600432,-5,-10,-26,-68,11,4,1,7
1501878448600432,5,41,13,16,-2,0,2,-1
1501878448601373,-24,-96,-11,-13,-40,-9,-9,-23
1501878448601373,13,4,-8,-14,11,3,2,41
1501878448622412,-5,52,18,23,6,-2,-14,-53
1501878448622412,-2,6,-4,0,-13,-1,1,12
1501878448623393,-9,-56,2,4,11,-3,-3,-18
1501878448623393,6,2,0,-16,-27,-4,8,41
1501878448637414,3,47,2,8,-35,0,4,-68
1501878448637414,-9,-23,-5,-19,47,1,-5,-3
1501878448638403,10,66,5,-2,-11,2,5,21
1501878448638403,-7,-29,-7,8,11,1,-3,-6
1501878448660438,5,2,-5,2,-24,-6,-2,24
1501878448660438,-12,-41,1,16,-5,-7,-5,-17
1501878448661391,5,6,-4,-24,16,3,2,19
1501878448661391,3,45,8,-7,8,2,2,-10
1501878448682387,-11,21,4,18,6,-2,-5,-25
1501878448682387,3,15,6,4,-18,-2,0,26
1501878448683376,-5,-71,-5,-33,-12,-1,-4,6
1501878448683376,-7,-13,-6,10,33,1,-1,-11
1501878448697422,3,1,-2,-6,-5,2,2,8
1501878448697422,4,-1,2,9,17,1,3,-9
1501878448705416,-2,5,1,5,-21,0,-2,-11
1501878448705416,-4,-13,-3,13,-2,-3,-4,-11
1501878448720435,-5,-69,-10,-11,-6,-2,-1,22
1501878448720435,0,17,-14,-5,-3,-2,-6,6
1501878448721407,2,-3,6,10,-2,-3,-3,-16
1501878448721407,-2,23,8,-20,14,-3,-8,-15
1501878448742446,2,3,6,5,3,1,2,14
1501878448742446,1,-19,-9,-8,-26,-1,2,28
1501878448743378,-7,-2,1,8,8,1,-2,-24
1501878448743378,-4,-5,-6,-12,-30,-2,-1,-3
1501878448766427,2,-18,-10,4,37,1,-1,-54
1501878448766427,4,23,4,-9,-1,1,1,13
1501878448766427,0,20,-6,20,11,-2,2,-2
1501878448766427,-2,40,3,-14,-30,-5,-6,-8
1501878448780420,0,-87,-5,-6,4,-1,2,27
1501878448780420,-4,35,1,7,12,2,2,7
1501878448781401,-4,4,-8,-18,0,2,-7,-35
1501878448781401,6,2,14,25,3,0,5,32
1501878448802451,4,37,16,4,-27,-1,1,0
1501878448802451,-6,-25,-6,-9,-7,-5,-7,-24
1501878448803381,-2,23,-8,6,34,2,-1,-13
1501878448803381,1,-13,-2,1,9,1,-3,1
1501878448817397,2,18,5,14,3,0,2,15
1501878448817397,2,-12,-2,-30,-22,1,1,-22
1501878448825422,0,25,-4,7,-5,-1,2,19
1501878448825422,11,5,8,19,-4,-2,3,8
1501878448840427,-13,2,-9,-28,2,4,-1,13
1501878448840427,-3,-12,-8,3,-7,-7,-1,-6
1501878448841409,0,17,-2,-1,-2,1,-6,-7
1501878448841409,3,-3,-4,-12,-2,1,4,4
1501878448862449,-3,38,14,21,-25,-7,-6,14
1501878448862449,-5,-67,-10,-15,14,-1,-4,-11
1501878448863386,1,5,-3,0,-9,-4,-2,2
1501878448863386,-2,14,-7,-6,10,0,2,-6
1501878448877427,4,-12,-5,17,-4,1,6,20
1501878448877427,-3,18,9,-13,14,2,1,-14
1501878448885430,-1,13,2,-1,3,-2,-2,8
1501878448885430,-3,-40,-10,11,-3,-2,-4,-11
1501878448900388,2,9,0,-12,-8,-1,2,0
1501878448900388,0,-2,6,-2,1,0,0,15
1501878448901389,-4,9,-1,-6,-24,-2,-3,-4
1501878448901389,-5,-23,-4,-8,9,-4,-3,-17
1501878448922430,5,33,-2,3,14,4,6,19
1501878448922430,0,7,23,19,-9,-3,-2,-20
1501878448923390,-1,-4,-6,1,18,-1,-1,19
1501878448923390,5,-13,-4,-9,-12,1,3,11
1501878448937427,-4,-10,-1,7,1,-3,-1,-1
1501878448937427,5,27,-5,-3,20,6,5,-19
1501878448945435,10,10,4,5,-11,-4,1,6
1501878448945435,-17,-23,-12,-11,4,-3,-6,-8
1501878448960434,-2,-23,-6,9,6,-4,-5,-21
1501878448960434,2,-1,5,-8,-31,-1,1,17
1501878448961432,-2,4,2,-19,2,-3,-3,-19
1501878448961432,7,68,-2,7,-7,0,2,19
1501878448982456,-8,-53,-8,2,6,-5,2,-13
1501878448982456,-5,11,-5,13,8,1,-9,-19
1501878448983401,0,-14,-7,-6,-14,1,-1,-1
1501878448983401,2,11,7,24,7,-1,2,0
1501878448997437,-1,42,3,-31,24,5,-5,-11
1501878448997437,5,-37,-5,13,-18,-9,2,22
1501878449005432,-9,-26,-9,-17,-9,-2,2,33
1501878449005432,-9,-27,-6,1,5,2,-1,-46
1501878449020434,5,9,6,14,-9,-4,-4,10
1501878449020434,-2,-8,3,-16,-18,0,0,-25
1501878449021400,-1,11,0,-2,31,3,2,-6
1501878449021400,0,-15,-9,-17,-16,-3,-3,26
1501878449042437,-4,-1,-3,-9,4,-1,-2,-18
1501878449042437,2,38,0,32,10,0,3,15
1501878449043415,2,-39,-1,-19,-42,-2,1,-22
1501878449043415,1,1,4,3,40,2,-2,-3
1501878449066416,9,10,-1,-12,-23,0,1,14
1501878449066416,-5,-26,-4,4,26,1,-1,22
1501878449066416,-4,15,3,8,-9,-5,0,-9
1501878449066416,3,-10,7,1,-12,-4,0,-8
1501878449080398,-1,19,-3,-9,0,-2,-4,5
1501878449080398,-6,-6,-6,3,-10,-1,1,3
1501878449081400,5,7,8,17,15,-2,-2,8
1501878449081400,-7,-32,-1,-26,0,0,-4,-16
1501878449102469,2,27,5,2,-6,-3,3,19
1501878449102469,-3,6,-7,-3,-1,-2,-3,-18
1501878449103398,0,7,0,37,11,-2,4,31
1501878449103398,-6,3,-2,-26,-7,6,-10,-56
1501878449126422,-8,-18,-2,-15,-10,-3,-6,-35
1501878449126422,1,9,-4,1,-6,0,0,2
1501878449126422,4,22,8,10,-7,-4,-1,0
1501878449126422,3,-24,-1,7,2,-7,4,46
1501878449140450,-8,-30,-7,-2,0,1,0,10
1501878449140450,1,-2,-4,-6,-3,-3,-3,-1
1501878449141403,0,-3,-2,-5,2,3,-4,-8
1501878449141403,5,50,11,-3,-8,2,2,1
1501878449162442,0,-36,4,15,0,1,0,17
1501878449162442,0,-7,-3,14,24,-5,-4,18
1501878449163401,-8,-11,-11,-26,7,6,0,-14
1501878449163401,0,17,-2,0,-7,0,-1,-7
1501878449185448,-2,13,4,3,0,-1,-3,4
1501878449185448,2,17,6,13,-14,-1,6,10
1501878449186439,-6,-28,-1,6,6,-3,-5,-4
1501878449186439,-3,2,-1,5,5,1,-2,-8
1501878449200472,2,16,-3,-13,-9,-1,3,-3
1501878449200472,-3,1,5,-7,0,-3,-5,6
1501878449201406,0,-4,4,9,1,-4,3,-9
1501878449201406,5,20,7,1,-19,3,9,43
1501878449222450,1,2,-19,-12,37,6,-8,-36
1501878449222450,0,-2,-1,-9,-13,0,-3,-9
1501878449223407,-1,7,1,12,-1,-2,-2,-5
1501878449223407,-2,5,7,-5,-6,-6,0,0
1501878449246430,3,-2,-2,0,-16,-3,4,9
1501878449246430,-3,-2,-2,-8,9,-1,-3,-6
1501878449246430,5,24,2,4,-6,0,0,7
1501878449246430,1,-31,-9,4,-6,-3,0,9
1501878449260477,-3,-8,-3,-6,-6,-1,-4,-25
1501878449260477,-2,-10,-6,2,1,2,3,0
1501878449261409,0,13,2,2,-2,0,1,5
1501878449261409,4,15,-4,-1,-16,-3,-2,-1
1501878449282425,-11,-55,4,-7,33,3,-4,-31
1501878449282425,4,15,4,21,-2,-2,-6,-23
1501878449283409,-2,-12,-15,-46,-18,-5,-2,11
1501878449283409,-4,2,8,21,12,3,-1,-14
1501878449306432,2,13,-2,5,-27,-4,3,38
1501878449306432,-3,2,-6,-7,13,3,5,-24
1501878449306432,7,21,1,1,-8,-3,-1,5
1501878449306432,-9,-44,-8,1,16,-3,-2,-18
1501878449320454,1,12,-2,1,-5,-2,0,6
1501878449320454,0,-7,1,-1,-9,-4,1,23
1501878449321413,1,9,-1,-9,-5,-1,1,3
1501878449321413,-3,21,-6,-8,-6,-2,-11,-34
1501878449342473,-8,-19,-3,11,0,1,-1,-13
1501878449342473,1,-14,-1,-6,7,-4,-4,-14
1501878449343428,-10,-1,0,18,-13,-2,0,11
1501878449343428,0,18,-15,-45,4,2,4,15
1501878449365444,4,-12,2,-12,-16,-9,-3,-11
1501878449365444,-6,-3,1,3,-7,-5,-2,7
1501878449366424,6,-18,1,17,11,0,-2,1
1501878449366424,-4,-10,-7,-4,-8,-1,-1,-9
1501878449380458,1,10,3,11,7,1,-2,11
1501878449380458,1,12,5,2,-4,2,3,32
1501878449381416,-5,-17,4,-16,0,3,2,-5
1501878449381416,-2,-6,-3,14,4,-2,-9,-52
1501878449402487,5,17,-1,-7,6,0,-1,15
1501878449402487,-3,-10,-4,9,-17,-3,1,0
1501878449403416,-5,-29,0,-18,10,4,-2,-27
1501878449403416,2,1,0,-4,7,-2,1,46
1501878449425417,0,3,-3,-5,-19,-3,0,6
1501878449425417,6,42,1,20,20,-1,1,9
1501878449426418,2,-18,-9,-31,-14,0,4,20
1501878449426418,-7,-14,-2,0,-7,-4,-8,-10
1501878449440460,-4,3,-3,6,7,-2,-4,0
1501878449440460,3,-3,0,-17,-20,0,0,0
1501878449441420,-2,8,-4,7,12,-2,-2,-12
1501878449441420,3,-8,0,11,12,3,3,1
1501878449462482,-3,8,0,-8,-17,-3,-2,-1
1501878449462482,-2,-8,-9,-4,12,-1,-1,3
1501878449463427,-2,-1,6,13,7,0,-1,0
1501878449463427,0,9,-4,-15,-13,-2,1,-4
1501878449485461,4,13,2,11,4,1,4,2
1501878449485461,-5,-26,-5,-5,-35,-4,2,12
1501878449486421,2,23,-5,5,29,4,-4,-12
1501878449486421,-2,-22,4,-3,-8,-4,-3,-20
1501878449500463,1,19,4,2,-4,1,0,1
1501878449500463,0,-18,-2,4,6,3,-1,-1
1501878449501423,-2,-4,-7,-17,-15,-4,-5,-9
1501878449501423,1,13,8,17,-14,-1,3,20
1501878449522481,-2,-6,-8,-18,3,-2,0,17
1501878449522481,2,5,3,-8,8,1,-4,-21
1501878449523436,-1,-4,-1,19,1,-4,-2,7
1501878449523436,0,19,2,5,10,-1,1,21
1501878449545466,-1,-28,-7,-19,-10,3,3,-39
1501878449545466,-2,3,3,-4,1,-1,-2,-7
1501878449546458,1,0,-6,12,3,1,-2,2
1501878449546458,-1,-16,-3,-5,-6,-3,4,11
1501878449560494,0,2,1,12,1,-3,2,14
1501878449560494,-7,9,-8,-14,9,-3,-14,-37
1501878449561427,0,-10,7,-1,-4,-3,-1,-7
1501878449561427,0,-4,1,-1,-14,-1,-3,-8
1501878449582427,3,7,4,7,15,0,1,14
1501878449582427,-4,-2,0,5,17,-1,4,8
1501878449583442,1,25,0,-20,5,-2,-4,-1
1501878449583442,1,5,3,18,-2,5,1,7
1501878449606449,-1,-9,-6,-17,6,0,-2,-6
1501878449606449,2,4,1,-1,-16,-3,2,25
1501878449606449,-7,-11,1,5,15,-2,-2,-13
1501878449606449,1,8,2,-12,-10,4,3,-8
1501878449620475,-3,2,-1,15,-1,-4,-4,4
1501878449620475,1,-7,-3,-21,-16,1,5,21
1501878449621428,0,-1,2,9,-6,-4,3,9
1501878449621428,-1,11,-1,2,0,-2,-8,-33
1501878449642501,-2,-4,-3,-3,3,-1,-2,-1
1501878449642501,-2,-5,2,-5,5,2,1,-1
1501878449643465,2,-6,-2,-8,-2,1,-3,3
1501878449643465,-3,-18,-6,7,-7,-2,0,6
1501878449666447,-3,13,3,-1,1,-1,-1,-6
1501878449666447,2,-1,-2,7,-6,-3,-4,-6
1501878449666447,-4,-7,-1,14,-39,-6,0,1
1501878449666447,3,-1,-9,-23,36,3,4,20
1501878449679471,0,-9,-1,-2,-3,-4,-2,-2
1501878449679471,-5,10,4,-9,-1,1,-5,-13
1501878449687499,0,8,2,13,-10,-3,-3,1
1501878449687499,0,-5,-7,-7,5,-1,-2,0
1501878449702501,4,17,3,-1,-8,-2,7,47
1501878449702501,-8,-34,-12,-2,6,0,-5,-67
1501878449703433,-3,-3,-2,-2,-8,-2,-7,-13
1501878449703433,-1,21,3,2,1,-3,-1,-4
1501878449726466,-3,-15,3,5,3,0,-2,2
1501878449726466,5,12,6,19,-24,0,5,12
1501878449726466,0,-22,-10,-19,33,3,3,23
1501878449726466,-1,11,0,-1,-6,0,-2,-2
1501878449748501,1,4,3,0,-2,1,3,-7
1501878449748501,-2,-12,1,11,-14,-4,-8,-7
1501878449749438,1,8,-2,-12,9,1,1,-3
1501878449749438,-1,-10,-2,5,9,-2,-1,11
1501878449762497,-3,-13,-6,-15,-27,1,-3,-17
1501878449762497,4,10,2,8,21,-3,5,29
1501878449763436,-1,6,-4,-21,-17,2,3,-11
1501878449763436,-4,-25,-2,-3,12,0,-2,-5
1501878449785498,-4,1,0,11,-4,-4,-4,-8
1501878449785498,-2,10,-3,-3,24,0,0,1
1501878449786475,0,10,-2,-17,-23,-2,0,7
1501878449786475,3,13,10,30,-24,-4,1,-4
1501878449799511,-2,-13,-5,-31,19,1,-3,-12
1501878449799511,1,31,-2,5,8,1,2,17
1501878449807503,-5,-36,-3,-7,-2,-2,1,1
1501878449807503,1,3,3,16,-11,-3,-1,-15
1501878449822507,-2,5,0,-9,-1,-2,-3,-5
1501878449822507,4,-5,1,-4,-8,0,0,-4
1501878449823441,-2,11,0,22,21,5,1,-3
1501878449823441,-1,2,-6,-19,-14,-1,-2,2
1501878449846470,2,7,0,12,7,0,0,-3
1501878449846470,-3,-9,-4,-3,-1,-2,-2,1
1501878449846470,0,-17,-6,-1,4,0,1,-10
1501878449846470,-3,6,-6,-5,17,-1,-4,-29
1501878449859504,0,4,4,0,-16,-6,1,12
1501878449859504,-4,-12,-5,-12,-9,2,-4,-21
1501878449867454,0,9,5,14,4,-6,-2,10
1501878449867454,-2,-26,-8,7,7,1,2,9
1501878449882508,0,11,1,-14,1,2,1,-13
1501878449882508,0,-13,1,7,-7,2,5,10
1501878449883456,-1,9,7,21,-2,-3,-9,-7
1501878449883456,-2,6,-7,-43,-1,-2,-2,7
1501878449905486,3,2,-3,11,-9,-2,1,17
1501878449905486,-1,-13,-1,-2,18,-1,-2,-20
1501878449906484,-2,14,0,-11,-22,2,1,-2
1501878449906484,-2,-25,1,26,29,0,-2,7
1501878449920456,-5,-20,-10,-6,-10,-1,-1,-9
1501878449920456,3,16,5,-10,-6,-4,-2,17
1501878449927447,-6,-14,3,21,-2,-3,-2,-10
1501878449927447,1,26,5,-26,-18,2,0,-3
1501878449942508,4,-17,-4,10,24,0,2,28
1501878449942508,-1,-3,-3,-1,-8,-3,-7,-14
1501878449943477,-4,-4,-4,-23,-6,-3,-5,-13
1501878449943477,1,-4,3,8,-6,-1,-1,-2
1501878449966467,-5,27,4,10,9,1,-2,-7
1501878449966467,2,7,-1,9,-2,-3,1,22
1501878449966467,-2,-11,-12,-24,-1,0,-1,7
1501878449966467,-1,7,-1,-6,-18,-3,-1,-10
1501878449979508,1,-5,-2,-6,-5,2,0,-9
1501878449979508,-1,-1,2,5,3,-6,-1,-5
1501878449987520,-1,8,2,-4,0,1,0,11
1501878449987520,0,-8,3,10,-12,-2,3,17
1501878450002515,-4,-8,-7,0,6,0,-1,-3
1501878450002515,-11,-3,0,-5,-5,1,-7,-49
1501878450003488,2,-4,-2,8,0,2,3,-6
1501878450003488,0,17,-1,-9,9,-3,1,6
1501878450025489,1,-27,2,14,-3,0,-2,-2
1501878450025489,-3,0,-5,-6,-8,0,1,10
1501878450026495,0,1,-2,1,9,1,2,-1
1501878450026495,0,-4,-2,1,-4,1,1,11
1501878450048514,-3,20,-1,-4,-9,-4,-1,-13
1501878450048514,1,-13,0,-7,11,1,-2,7
1501878450049455,0,0,-1,1,-9,-2,0,0
1501878450049455,-4,-1,3,16,9,-2,-3,-16
1501878450062494,-4,-3,-1,-5,15,1,2,-4
1501878450062494,3,-18,-1,-5,-3,3,3,29
1501878450063458,0,6,-2,-32,-30,-4,-3,-3
1501878450063458,-5,-27,-8,8,16,-1,-2,-1
1501878450085465,1,3,0,3,0,-1,-4,-6
1501878450085465,0,6,-2,-1,-5,-1,0,-2
1501878450086491,0,-14,0,12,13,-3,1,21
1501878450086491,0,9,2,-4,-8,-2,-1,-20
1501878450108524,-7,0,4,0,-7,-1,-4,-25
1501878450108524,0,10,0,-4,-6,-3,-1,10
1501878450109457,-1,-13,-5,7,21,2,2,0
1501878450109457,-3,-5,-5,-12,-16,-3,-2,2
1501878450122523,2,1,-1,1,5,0,0,13
1501878450122523,0,8,2,-5,-12,-6,-7,-27
1501878450123468,-4,6,2,11,8,-2,-4,-13
1501878450123468,-1,-5,-1,0,4,1,2,5
1501878450145504,1,14,-1,-4,-11,-2,1,12
1501878450145504,1,-22,1,-5,-17,0,-1,-1
1501878450146499,4,8,1,2,11,-2,-2,-6
1501878450146499,-2,-15,-4,-2,5,-1,-4,-1
1501878450168526,1,-4,2,-3,-13,0,0,-1
1501878450168526,1,26,-2,-4,-3,-2,2,5
1501878450169497,-3,-30,-3,6,-16,1,1,-7
1501878450169497,1,7,5,29,14,-3,1,4
1501878450182480,2,-1,-3,-25,-7,4,8,35
1501878450182480,-10,-12,-9,-3,13,-2,-8,-16
1501878450183467,0,15,1,-17,-30,-2,-5,-22
1501878450183467,0,-9,-1,12,15,-1,1,-4
1501878450205501,-1,9,-5,-8,-21,-5,-8,-21
1501878450205501,2,-2,2,11,16,-2,4,19
1501878450206508,-6,-26,-7,0,-21,-3,3,6
1501878450206508,-2,-17,-9,-17,11,2,-1,8
1501878450228537,-3,3,3,8,0,-6,-6,-34
1501878450228537,3,4,-2,-6,2,1,0,3
1501878450229471,0,14,1,21,21,1,-1,-2
1501878450229471,1,3,-2,-19,-20,-2,3,16
1501878450242511,-3,-3,-2,7,10,1,-2,-9
1501878450242511,-2,-2,-1,12,11,0,-2,-7
1501878450243482,0,1,-1,-26,-13,-4,0,-4
1501878450243482,-4,5,2,13,6,1,1,12
1501878450266505,-3,3,0,-9,-6,0,-5,-5
1501878450266505,8,7,4,8,-16,1,5,37
1501878450266505,-8,9,-3,-10,-1,-4,-4,-29
1501878450266505,-1,-9,-10,-3,19,6,-1,-8
