timestamp,emg1,emg2,emg3,emg4,emg5,emg6,emg7,emg8
1501874391410016,-1,27,46,29,-3,2,3,-18
1501874391410016,-14,-58,20,97,21,1,7,5
1501874391410981,-3,-17,-4,80,12,7,12,45
1501874391410981,-4,23,-11,-57,-11,-3,-5,-54
1501874391410981,-4,12,-9,-64,-6,-2,-9,0
1501874391410981,-3,-18,12,50,3,-2,-10,0
1501874391411992,11,25,22,-59,-3,-3,-7,3
1501874391411992,-5,-2,-28,-15,0,3,14,4
1501874391416020,11,0,-10,18,5,0,15,28
1501874391416020,9,-3,35,-31,-7,-7,-5,-5
1501874391423989,6,5,1,-34,-10,-4,-8,-20
1501874391423989,-14,1,-52,28,-1,-2,-6,40
1501874391438023,-14,-12,13,56,14,2,-5,-50
1501874391438023,7,38,-25,-77,-11,2,10,24
1501874391446031,-17,-61,-13,-20,-4,-1,-4,-29
1501874391446031,18,83,56,76,10,3,-8,-5
1501874391453027,-19,-65,-32,-54,-67,-20,-2,9
1501874391453027,2,7,-24,45,39,18,7,2
1501874391477027,3,40,15,48,-8,-6,8,18
1501874391477027,-6,-24,28,-53,33,11,8,5
1501874391477990,15,17,18,54,12,8,-11,10
1501874391477990,-4,-5,-54,-89,-7,-2,-2,10
1501874391516986,12,4,-5,15,-6,-3,-20,-11
1501874391516986,-10,-11,1,31,-3,0,14,-26
1501874391518022,-4,-23,0,-59,-28,-8,4,-3
1501874391518022,0,-10,14,4,3,-2,-10,31
1501874391521048,-6,-1,-15,-39,-9,-4,-8,-49
1501874391521048,-18,-40,1,43,-6,-9,-2,11
1501874391522004,2,21,18,66,18,9,10,20
1501874391522004,2,25,23,-50,-25,-5,8,-1
1501874391528002,10,-36,-14,-62,29,13,6,34
1501874391528002,-14,11,-62,-57,-37,-15,-18,23
1501874391536044,-7,13,23,96,0,-2,-3,-24
1501874391536044,3,64,-8,-45,12,0,4,10
1501874391543033,-3,-86,-18,54,-60,0,-3,-13
1501874391543033,3,31,16,-72,78,-2,11,16
1501874391558042,3,-7,35,43,-13,-1,-14,-18
1501874391558042,-24,-76,3,-33,-13,-5,-10,9
1501874391565033,2,70,1,56,56,13,12,2
1501874391565033,8,-29,-12,49,-53,-19,-21,-52
1501874391580033,8,28,-18,-113,-3,14,6,21
1501874391580033,-18,-41,-45,46,-15,-13,-18,-62
1501874391589001,5,74,22,-53,0,-10,1,-12
1501874391589001,-10,-52,11,39,-3,13,18,53
1501874391603036,7,21,18,-28,16,-10,-12,-46
1501874391603036,6,17,-27,33,-9,6,-2,-11
1501874391610043,-3,-65,20,2,20,-4,6,22
1501874391610043,-1,26,-2,-31,0,2,7,46
1501874391626041,5,14,-19,-22,-18,-5,-14,-33
1501874391626041,7,0,11,22,23,4,5,90
1501874391627996,-2,69,-8,13,14,7,-3,-47
1501874391627996,22,38,35,-7,11,7,6,18
1501874391640042,-19,-116,-5,18,-65,-15,-3,4
1501874391640042,16,-8,-81,1,53,9,11,24
1501874391648996,-8,13,78,52,-21,-2,-3,18
1501874391648996,-9,-29,23,-95,-16,4,-7,-34
1501874391663041,-11,18,-24,90,-26,-9,5,-18
1501874391663041,0,42,-60,-34,30,10,-10,-51
1501874391670037,11,85,8,-95,-5,-8,-4,-1
1501874391670037,1,-67,-16,48,-3,-2,-6,27
1501874391688000,-15,-28,12,-9,31,0,-8,3
1501874391688000,7,-3,46,-19,-28,-9,2,16
1501874391689000,5,-20,-21,60,7,1,8,29
1501874391689000,-9,24,-38,-74,-18,-1,-5,-52
1501874391700041,15,79,2,4,21,-3,6,47
1501874391700041,-20,-35,10,34,-7,-1,-6,-71
1501874391708999,14,4,-14,4,0,-1,8,58
1501874391708999,-13,37,9,14,-11,-2,-16,-66
1501874391724041,-4,1,-2,-27,-24,5,-5,-37
1501874391724041,1,-11,6,32,61,5,6,11
1501874391726000,-15,-31,23,81,-18,-8,-8,-26
1501874391726000,23,25,-26,-16,-34,-8,3,11
1501874391746062,0,7,-17,-35,76,15,9,15
1501874391746062,-2,8,42,-9,-30,-5,-5,-4
1501874391748007,-9,-3,0,-18,-3,-1,7,16
1501874391748007,22,-14,8,42,16,0,2,13
1501874391760035,-10,-34,15,30,-35,-8,-12,-16
1501874391760035,-10,-9,-53,-52,1,-1,-1,-29
1501874391769003,6,39,-17,-24,5,-10,-2,25
1501874391769003,-17,-25,13,-28,16,4,-13,-41
1501874391784030,10,12,-22,6,-11,0,6,47
1501874391784030,2,5,26,35,11,1,13,37
1501874391786035,-8,-23,19,-20,-28,-11,-18,-46
1501874391786035,3,2,-63,9,-39,0,-1,18
1501874391807048,3,-9,-10,-3,59,1,4,-5
1501874391807048,-5,20,55,52,-30,-8,-10,-4
1501874391808039,-10,-30,-21,-42,-25,0,6,-3
1501874391808039,5,-13,54,62,33,6,9,17
1501874391829015,-7,6,-22,-28,-27,-2,-7,-28
1501874391829015,24,14,42,31,10,7,14,38
1501874391831011,-14,-27,-44,22,-14,-5,-11,-4
1501874391831011,-8,16,3,57,25,0,-1,-37
1501874391844010,18,37,17,-51,-28,-8,9,38
1501874391844010,-15,-13,-19,-48,24,-5,-7,-81
1501874391846039,12,39,17,63,-4,3,-6,31
1501874391846039,-7,-35,-9,4,13,3,1,-15
1501874391867047,19,69,36,-7,9,4,3,14
1501874391867047,-11,-52,-23,3,-28,-6,2,9
1501874391868009,-4,-10,22,-61,-4,2,1,11
1501874391868009,-1,0,-16,52,-19,-1,1,29
1501874391889057,7,0,1,-61,43,2,0,-22
1501874391889057,3,-5,-22,-15,-9,-1,-6,19
1501874391891014,-6,-24,13,-3,0,-2,7,-17
1501874391891014,3,49,36,10,19,3,4,-1
1501874391904050,-19,-46,-38,-1,-28,0,-11,-2
1501874391904050,9,18,42,59,-9,-4,-1,22
1501874391906011,-15,3,8,-35,-1,0,-1,-53
1501874391906011,14,-12,-15,-10,-6,-9,3,-3
1501874391927018,-4,0,11,4,14,10,2,6
1501874391927018,5,-19,-16,11,32,1,4,20
1501874391928015,-13,-20,-32,21,7,5,-5,-19
1501874391928015,2,1,-12,21,-28,-6,-5,23
1501874391949040,-1,-26,34,70,1,-5,3,-6
1501874391949040,-2,24,4,-60,-20,2,-1,10
1501874391951022,3,9,-25,-3,1,-1,4,7
1501874391951022,13,-7,8,-55,11,-2,0,31
1501874391963078,-8,-12,-22,42,1,-3,-7,-22
1501874391963078,13,83,17,28,-41,-5,10,49
1501874391970024,0,-42,-33,-14,10,0,-19,-56
1501874391970024,-21,-14,-3,-39,40,9,-4,-22
1501874391986065,-4,23,-22,-5,-24,-5,4,1
1501874391986065,-2,-17,22,-1,1,1,6,13
1501874391988016,-7,-24,-16,38,-3,-5,-5,-37
1501874391988016,3,11,34,14,-28,-3,4,38
1501874392016059,-5,-14,-21,-57,-9,-2,-13,-7
1501874392016059,-2,-5,-4,-6,37,-7,-11,-39
1501874392018018,14,16,-6,-9,40,11,13,32
1501874392018018,-8,-6,2,32,2,-2,-6,-45
1501874392023065,3,-20,-14,32,5,1,10,51
1501874392023065,-6,0,7,-15,-95,-17,-15,-27
1501874392030059,6,-23,20,14,69,2,9,37
1501874392030059,2,91,10,-31,9,2,1,-7
1501874392046064,-17,-66,-11,18,-15,0,-3,-32
1501874392046064,-6,-46,-31,7,-4,-2,-14,-41
1501874392048031,2,16,29,-19,-15,-8,4,28
1501874392048031,25,10,-55,3,-16,1,-1,34
1501874392069067,-16,-36,34,35,8,-12,-8,-7
1501874392069067,4,4,18,-64,22,5,5,9
1501874392071020,-4,16,-1,-19,-46,-9,10,45
1501874392071020,0,19,9,-11,38,-2,-21,-64
1501874392083054,6,17,17,24,-1,7,1,-7
1501874392083054,-4,-18,-47,-29,-8,3,1,-20
1501874392090090,12,79,31,73,13,-1,5,25
1501874392090090,-6,-22,-25,0,-24,-1,-3,11
1501874392106087,12,52,-12,-99,-12,-3,10,20
1501874392106087,-19,-6,19,42,-1,-2,-15,-46
1501874392108023,-1,-27,-28,-64,-71,1,0,7
1501874392108023,-10,-6,19,19,67,8,5,13
1501874392129072,-3,-1,-2,-35,-11,-4,-6,29
1501874392129072,12,29,-1,12,16,5,2,-18
1501874392131026,-10,-55,-6,39,-16,-3,-10,-28
1501874392131026,1,-14,34,-10,-6,-8,5,9
1501874392143081,-5,-32,-26,-47,5,7,7,9
1501874392143081,8,17,-10,6,16,2,-6,5
1501874392150094,-7,-3,11,-14,25,4,-3,-19
1501874392150094,-1,-3,0,21,-23,-3,-1,16
1501874392166068,7,19,-12,24,-2,-3,2,-5
1501874392166068,-2,-17,5,-12,-19,-2,10,44
1501874392168026,1,-13,-10,33,-1,1,-13,-32
1501874392168026,-2,3,26,-11,-8,-8,2,2
1501874392189085,6,25,-44,-40,11,1,3,-30
1501874392189085,-10,-12,0,12,-12,0,-11,-16
1501874392191029,-4,-18,-24,-10,16,-2,0,21
1501874392191029,4,11,10,1,-42,-2,0,2
1501874392203070,-1,-22,-5,31,9,4,-6,-2
1501874392203070,6,-39,32,-10,-12,-3,1,25
1501874392210078,-1,23,4,-31,-11,2,6,-23
1501874392210078,-7,-21,22,28,-30,-3,-10,-52
1501874392226095,-12,18,-23,-6,11,-5,-9,1
1501874392226095,7,-14,-42,-5,11,1,5,16
1501874392228030,0,-6,22,20,34,3,0,13
1501874392228030,-9,-43,-47,-75,1,-5,-2,-7
1501874392249072,10,29,25,9,9,7,4,6
1501874392249072,-10,-5,10,13,1,-4,0,-17
1501874392251034,9,32,12,12,-24,1,10,16
1501874392251034,-11,-10,5,22,-3,-3,-10,-8
1501874392263074,5,-27,14,-18,-28,-4,8,63
1501874392263074,11,6,-2,14,39,-3,4,-27
1501874392270074,-19,-2,-38,-49,70,5,-25,-35
1501874392270074,-4,12,-5,71,9,1,3,-1
1501874392286089,-10,-15,15,-26,-37,-7,-8,-30
1501874392286089,6,30,29,19,-26,-7,9,46
1501874392288061,4,-18,15,12,-9,1,7,1
1501874392288061,1,-15,-31,-3,23,5,0,6
1501874392309076,6,28,13,-7,-8,-6,-2,30
1501874392309076,-9,37,21,-4,7,6,-9,-84
1501874392311036,5,-30,-17,24,-14,-8,-2,18
1501874392311036,-9,0,8,-21,-30,-5,-1,-10
1501874392323035,14,1,32,66,38,2,8,8
1501874392323035,3,16,-37,-51,-34,4,7,66
1501874392332048,1,7,42,10,26,1,2,21
1501874392332048,5,-8,-15,-3,13,-2,11,45
1501874392346044,-21,-22,-23,-8,-44,-19,-21,-39
1501874392346044,-7,-14,27,61,65,7,-21,-106
1501874392348043,7,8,-56,-64,-30,1,2,44
1501874392348043,10,38,26,-10,-13,0,16,57
1501874392369073,-10,-5,32,51,28,2,-13,-70
1501874392369073,5,22,-30,-35,-10,2,17,76
1501874392371039,-14,-45,16,5,-49,-18,-25,-27
1501874392371039,2,-36,-12,1,-3,15,1,17
1501874392383050,-4,5,-6,-5,21,1,-6,-3
1501874392383050,-4,4,17,-24,-9,-2,3,2
1501874392398059,-1,-3,4,49,11,-5,1,15
1501874392398059,2,41,11,-51,-50,-6,5,-6
1501874392406086,-9,-26,-33,-29,-16,0,-20,-44
1501874392406086,-2,-12,-12,2,18,4,-2,14
1501874392408073,1,15,11,-32,-22,-1,6,-7
1501874392408073,-8,4,-5,20,34,-5,-14,-21
1501874392429085,12,17,4,16,-2,5,9,18
1501874392429085,-4,-10,-3,22,-11,-1,5,-14
1501874392431051,-3,-6,-12,2,-9,-5,-11,-27
1501874392431051,6,11,5,-13,35,1,1,51
1501874392443056,-1,7,31,10,81,3,4,-50
1501874392443056,-8,-22,-18,-5,-4,-2,-2,9
1501874392452043,0,42,-2,-21,-6,4,9,-5
1501874392452043,-1,-55,-40,-40,-7,-5,0,1
1501874392466107,8,4,-7,33,-15,3,6,44
1501874392466107,2,36,11,4,-8,-6,3,-10
1501874392468044,-6,-22,14,55,35,9,3,-7
1501874392468044,8,22,18,-45,6,-1,-9,38
1501874392488088,-7,-27,-22,-22,-27,-6,-3,10
1501874392488088,2,3,42,5,10,0,3,17
1501874392495084,5,3,-55,-40,-31,-4,8,7
1501874392495084,-7,0,10,10,-37,2,3,-54
1501874392511048,2,-12,-20,-10,1,0,-5,33
1501874392511048,-8,-3,11,-4,17,-7,-11,-3
1501874392513046,10,14,43,81,25,9,2,5
1501874392513046,-10,-11,-16,-12,17,2,-4,-16
1501874392534058,-3,-1,24,-4,-29,-4,8,7
1501874392534058,-2,-19,-37,-29,-22,1,-6,3
1501874392535049,3,12,5,-27,-6,-3,-4,-21
1501874392535049,-1,-30,-9,56,-7,-6,3,18
1501874392548112,8,37,18,17,13,1,0,2
1501874392548112,8,-1,14,12,10,9,9,2
1501874392555080,0,-27,1,-21,-17,-7,4,33
1501874392555080,-18,18,32,61,-11,0,-20,-79
1501874392571091,6,-5,8,74,-9,-7,1,56
1501874392571091,-17,-16,-41,-81,33,-6,-10,-50
1501874392573051,-1,13,10,32,8,1,-1,-15
1501874392573051,9,5,8,-9,2,6,18,41
1501874392594064,-5,-11,-11,-10,-1,-3,-5,-18
1501874392594064,1,-27,-9,2,-28,-3,-3,-17
1501874392595067,15,45,17,-26,0,2,12,80
1501874392595067,6,-14,2,-1,15,2,5,-2
1501874392608097,-20,-26,-12,-26,0,-3,-20,-27
1501874392608097,6,1,7,33,-31,-6,7,18
1501874392615118,-11,7,-24,-46,6,-3,-8,-39
1501874392615118,11,21,1,26,-8,1,-11,-28
1501874392631124,-5,-12,-1,-2,-19,2,-3,-35
1501874392631124,-6,-4,-22,-25,13,2,0,8
1501874392633054,-4,-28,14,22,3,-5,-9,-25
1501874392633054,-2,6,-18,-11,3,0,9,38
1501874392654099,5,-18,-15,-55,-17,1,-10,-21
1501874392654099,2,36,21,45,-10,-5,-8,-1
1501874392656057,-2,1,-47,15,21,5,-1,-9
1501874392656057,-4,-2,12,-103,-19,-4,-4,-22
1501874392668126,-7,-10,14,11,22,0,10,24
1501874392668126,9,21,-7,34,-5,0,3,15
1501874392677057,5,-16,10,-6,-13,-3,-9,-30
1501874392677057,-12,-25,-10,48,2,-5,-5,-7
1501874392691098,1,11,-15,-37,-15,4,11,-3
1501874392691098,-4,-18,-1,-13,-10,0,5,6
1501874392693068,-2,3,6,-16,3,5,-2,-9
1501874392693068,3,3,-11,19,4,-3,-7,-16
1501874392714103,13,21,19,17,19,1,14,57
1501874392714103,-5,-3,-4,44,-24,-4,-6,-13
1501874392716060,-15,-23,4,-26,18,0,-15,-40
1501874392716060,3,6,-7,-45,16,4,1,-8
1501874392728091,4,26,-1,-6,-4,-2,3,-22
1501874392728091,-5,-39,3,32,-14,4,7,3
1501874392735102,-2,3,34,33,-7,-4,2,29
1501874392735102,-1,8,11,21,-4,-5,-5,-44
1501874392751061,3,27,-10,13,4,1,7,26
1501874392751061,12,2,28,-22,-31,-1,-6,9
1501874392753061,-13,-31,-29,16,27,-5,-7,-21
1501874392753061,-6,-5,-5,7,8,-5,-1,40
1501874392774069,-4,-10,3,-41,-28,-4,2,-25
1501874392774069,0,24,-13,4,19,4,-3,0
1501874392776062,11,6,15,-25,-17,3,8,15
1501874392776062,9,0,2,30,-1,0,6,29
1501874392788080,-16,-15,-16,5,5,0,-8,-34
1501874392788080,2,-10,-6,-15,4,-1,4,71
1501874392797063,-5,-22,-9,9,-21,-7,-12,-19
1501874392797063,5,26,8,-15,14,2,-4,-14
1501874392811097,11,11,-23,4,6,1,3,10
1501874392811097,-15,21,6,-20,2,2,-6,-37
1501874392813066,-2,-17,-9,4,-20,-6,6,21
1501874392813066,-12,-20,17,35,0,5,1,-11
1501874392834104,11,17,-5,-67,-16,-4,3,18
1501874392834104,-9,-9,6,16,32,-4,-4,-45
1501874392835065,-4,-1,-20,-16,5,0,-5,2
1501874392835065,7,17,-8,-3,5,-2,-2,-9
1501874392848083,-2,-14,11,53,7,4,0,17
1501874392848083,0,0,21,-3,-23,-6,1,8
1501874392856108,-3,8,-55,-27,-36,-2,2,3
1501874392856108,1,11,-12,-8,35,6,-4,-33
1501874392871130,-3,-7,-9,46,3,0,-7,-9
1501874392871130,4,-1,23,8,14,-1,-5,-2
1501874392873068,8,33,-17,-74,-30,5,10,31
1501874392873068,-10,-46,-3,-14,-19,-9,7,6
1501874392894082,-3,-15,-13,6,6,0,-12,-7
1501874392894082,-2,-4,4,10,-10,-5,-4,-6
1501874392895070,-2,39,26,32,13,0,-2,-20
1501874392895070,3,0,-26,-29,17,2,3,23
1501874392908089,-10,-39,6,-2,-40,-4,6,3
1501874392908089,-1,-23,8,17,80,2,-9,-39
1501874392916116,3,32,-20,16,-6,-6,-1,14
1501874392916116,-3,10,-5,-30,-14,4,-5,-14
1501874392931118,2,24,26,11,-1,-3,3,17
1501874392931118,8,-9,-11,-6,-21,-2,2,-1
1501874392933072,-7,-13,10,-8,-26,-12,0,12
1501874392933072,-1,-6,12,19,52,19,1,-3
1501874392954113,-7,-16,-13,36,5,-2,-13,-15
1501874392954113,10,25,-8,-16,-24,0,7,29
1501874392955075,-9,6,26,1,-16,-6,-5,-33
1501874392955075,-4,-18,-13,-18,-11,-3,-2,-5
1501874392968092,-5,-3,-25,-38,2,-5,-4,3
1501874392968092,4,9,9,20,1,-4,-2,14
1501874392977076,-3,-12,-18,29,6,7,11,18
1501874392977076,-10,9,21,-12,-14,-10,-11,10
1501874392991115,6,-8,5,-9,23,9,12,-8
1501874392991115,-5,16,6,16,2,-6,-18,14
1501874392993075,8,-15,25,59,10,9,9,-9
1501874392993075,-7,-15,-38,-78,-25,-7,-2,-12
1501874393014115,-2,-4,0,32,22,2,1,-23
1501874393014115,11,15,4,-18,-31,-3,11,59
1501874393015085,3,-28,24,4,16,4,5,9
1501874393015085,-3,7,29,17,-14,-3,-9,19
1501874393028077,-8,11,6,-16,15,2,-9,-63
1501874393028077,-6,-24,-46,17,-15,-3,4,1
1501874393037078,2,2,22,-36,31,3,-2,-31
1501874393037078,1,-13,-33,15,2,0,8,30
1501874393051123,6,22,-5,-36,-40,-8,-7,-6
1501874393051123,-6,-2,5,23,13,4,0,-3
1501874393053079,3,2,4,-11,-33,-5,-5,-4
1501874393053079,1,1,-10,10,25,-3,3,-2
1501874393074147,13,0,13,2,1,-3,1,38
1501874393074147,-11,17,-29,-27,-44,-6,-8,-37
1501874393075082,1,19,10,17,23,4,1,-4
1501874393075082,3,-2,19,26,-9,1,-2,-37
1501874393096133,-4,-19,-18,18,-9,0,8,13
1501874393096133,15,7,-1,-7,-2,8,9,34
1501874393096133,-17,4,-32,-10,26,-4,-17,-70
1501874393096133,0,9,34,7,-21,-3,1,13
1501874393111124,7,9,-9,9,39,1,1,37
1501874393111124,-8,-21,-2,-13,-18,-4,-9,-1
1501874393111124,-1,19,-23,-4,8,0,1,18
1501874393111124,2,13,26,-36,-65,-6,-4,-27
1501874393133121,-7,-33,-49,8,8,-9,-7,23
1501874393133121,4,-4,3,20,19,9,9,0
1501874393134082,5,-21,1,-40,-14,-1,8,30
1501874393134082,-5,21,-5,48,5,-4,-7,-9
1501874393156133,14,23,2,-38,-29,7,11,55
1501874393156133,-9,-33,10,-7,39,-7,-19,-47
1501874393156133,-8,-9,-32,-24,-7,0,-8,-7
1501874393156133,10,14,-2,12,7,2,7,20
1501874393171131,-13,-13,31,-5,-7,3,1,-6
1501874393171131,9,14,14,5,18,-3,17,25
1501874393171131,-18,-35,-31,-19,-25,-6,-32,-71
1501874393171131,3,-3,-16,-3,20,2,-3,23
1501874393193134,0,18,13,58,6,-3,-1,-15
1501874393193134,-2,-15,-28,-73,-4,2,0,-11
1501874393194099,-10,-27,5,-17,-11,-6,1,-25
1501874393194099,7,21,6,34,18,-4,6,21
1501874393216136,-9,-9,16,-5,-3,-5,-16,-70
1501874393216136,-16,-27,-2,33,-14,0,-7,-17
1501874393216136,13,36,15,16,7,4,6,39
1501874393216136,-10,-23,-47,-7,18,1,-2,-18
1501874393231157,1,-5,34,9,-12,-1,7,28
1501874393231157,16,40,-8,-7,-9,-1,0,-15
1501874393232089,-1,-20,36,47,2,-1,3,25
1501874393232089,-8,-21,-10,8,-64,-11,-8,-12
1501874393253130,12,3,3,-21,79,19,18,72
1501874393253130,-14,3,-28,-3,-5,-6,-14,-79
1501874393254098,3,28,36,35,1,-5,-4,-2
1501874393254098,5,7,16,-35,-55,-6,2,-34
1501874393276162,-14,-25,-31,0,27,2,-6,-9
1501874393276162,-1,-21,-2,-1,8,1,5,20
1501874393276162,10,24,-3,11,17,4,13,48
1501874393276162,-4,-3,-4,-13,-7,-2,-6,-22
1501874393291157,-3,1,-4,-22,-34,-7,-6,-4
1501874393291157,0,1,11,13,37,8,3,21
1501874393291157,11,26,21,20,-1,4,12,57
1501874393291157,-9,-17,-3,-25,37,-10,-18,-53
1501874393313104,-1,16,-1,-20,-23,-3,-8,-24
1501874393313104,0,11,-5,21,-2,-1,2,3
1501874393314102,1,-22,-6,-11,-1,-4,4,28
1501874393314102,-1,7,-23,-17,1,3,4,13
1501874393336127,0,18,20,-5,-11,-11,1,-34
1501874393336127,6,-11,5,6,26,3,19,69
1501874393336127,-11,-6,1,21,-13,-5,-37,-93
1501874393336127,-8,-8,-12,-44,41,5,-6,-1
1501874393351166,-5,7,5,0,-31,-2,-7,-22
1501874393351166,3,7,4,-23,-43,-7,3,14
1501874393351166,9,17,-5,-14,22,4,7,21
1501874393351166,2,16,38,75,1,8,6,7
1501874393373110,-3,13,-30,-4,40,-1,-8,-14
1501874393373110,-3,-37,-7,-28,-21,-7,2,16
1501874393374108,-6,-5,23,15,-9,-2,-8,-61
1501874393374108,-5,-47,-11,-20,-45,-9,1,31
1501874393396130,11,16,18,15,80,16,9,-7
1501874393396130,-15,-5,-8,26,20,-6,-17,-61
1501874393396130,2,-12,0,-40,-18,-2,4,11
1501874393396130,1,-7,-24,22,18,4,5,46
1501874393411101,5,1,4,0,-37,-4,-1,-12
1501874393411101,1,2,18,2,-8,-2,-7,15
1501874393411101,-5,-1,-13,16,9,2,6,15
1501874393411101,-1,16,10,-1,2,-6,-10,-30
1501874393433142,5,-13,-6,4,-19,-3,9,61
1501874393433142,0,11,-13,-15,-16,4,-6,-52
1501874393434106,-6,-13,0,26,9,-7,-3,-19
1501874393434106,7,3,26,18,21,9,-2,-4
1501874393456142,-6,3,-23,-24,-28,-2,0,-7
1501874393456142,2,15,9,10,-4,2,-4,12
1501874393457102,-6,-39,-38,-49,40,-5,-1,-3
1501874393457102,0,9,9,-8,-13,1,4,2
1501874393471125,-8,-14,30,22,-2,-3,0,-20
1501874393471125,-3,2,-58,-31,-5,-2,-8,-24
1501874393471125,7,-22,13,29,-16,-4,2,38
1501874393471125,-3,-19,-25,-27,-5,4,6,13
1501874393493144,-11,11,-14,-8,18,-4,-15,-72
1501874393493144,-10,-8,25,-32,-11,-3,1,8
1501874393494106,-2,12,4,11,8,2,-9,-4
1501874393494106,5,28,-29,-7,-15,-4,-1,5
1501874393516117,-8,-27,13,12,-44,-4,3,19
1501874393516117,4,9,0,-19,24,2,4,7
1501874393516117,-4,16,-21,-9,-15,0,-2,-8
1501874393516117,1,-3,20,34,-21,-2,1,7
1501874393531129,-4,-3,-13,-12,34,1,0,6
1501874393531129,-1,-10,-11,-4,-8,-5,-2,8
1501874393531129,8,12,-1,-6,-7,4,9,39
1501874393531129,1,5,21,-5,1,-1,3,-4
1501874393553147,7,14,-12,7,6,2,4,3
1501874393553147,0,-25,8,-3,-10,0,-5,-29
1501874393554124,-14,7,4,4,-11,2,6,-14
1501874393554124,-10,-23,-27,-3,6,-6,-12,-22
1501874393576107,8,1,14,0,-6,-1,0,13
1501874393576107,6,13,0,13,-8,-2,6,24
1501874393577109,-4,4,15,-18,-8,-3,2,2
1501874393577109,5,11,-14,44,42,6,5,9
1501874393590150,-5,-5,5,-55,-32,-6,-8,19
1501874393590150,-1,2,3,-7,-35,-4,-1,-24
1501874393598120,8,9,0,0,33,7,4,20
1501874393598120,-2,21,20,-3,-6,-4,-3,-37
1501874393613144,-4,-24,-19,12,0,-4,-2,9
1501874393613144,5,8,21,12,0,0,0,26
1501874393614144,-2,-24,-6,-8,-31,-6,-5,-8
1501874393614144,1,14,25,5,40,7,5,8
1501874393636138,-3,-9,6,12,-25,-4,-10,-15
1501874393636138,-10,-4,-44,-17,7,-2,-3,5
1501874393636138,1,-5,-5,3,7,4,6,6
1501874393636138,1,-13,1,-12,-4,-5,-2,15
1501874393651179,-3,19,3,-11,-14,-2,-2,-3
1501874393651179,2,-12,20,41,13,0,1,35
1501874393651179,2,5,-8,-18,-11,-10,-7,-4
1501874393651179,2,7,-3,-29,-19,-1,2,-26
1501874393673181,-8,-8,-6,-2,-7,1,-2,6
1501874393673181,1,23,-9,-1,35,2,3,-5
1501874393674114,-12,-23,6,-7,-7,3,-9,-31
1501874393674114,1,-18,-5,-10,-8,-7,-6,18
1501874393696127,6,25,-12,-5,-5,-2,4,-2
1501874393696127,-2,7,8,-2,-30,-4,-1,-3
1501874393696127,5,7,4,17,-2,0,5,9
1501874393696127,1,1,-20,-3,33,4,1,26
1501874393711117,-19,-30,10,14,-4,-4,-12,-55
1501874393711117,7,-1,9,13,14,1,8,27
1501874393711117,0,5,1,-14,0,-6,-13,-20
1501874393711117,2,-9,17,12,-28,-6,2,14
1501874393733184,-4,4,-20,-35,15,6,-4,-25
1501874393733184,-4,-20,0,46,11,-8,0,9
1501874393734118,4,14,-3,-63,-8,4,-3,-3
1501874393734118,0,-7,-4,12,-4,1,-2,11
1501874393756123,-1,16,9,2,17,-4,0,10
1501874393756123,-4,-19,3,12,-25,-1,2,-13
1501874393756123,6,4,-7,-2,1,-6,3,14
1501874393756123,-14,-14,8,10,11,7,-3,-26
1501874393771118,4,4,6,12,-12,3,-2,19
1501874393771118,-2,4,-9,-25,-5,0,-5,-32
1501874393771118,15,8,0,23,0,2,12,53
1501874393771118,-11,-2,5,-32,-25,-4,-6,-49
1501874393793122,0,-7,-11,25,13,-3,9,25
1501874393793122,1,-2,2,-9,12,5,1,41
1501874393794123,-1,-6,-9,6,2,1,-12,-46
1501874393794123,3,-14,-10,-14,-6,-3,5,21
1501874393816124,-7,-11,-5,17,-26,-6,-4,-15
1501874393816124,0,13,21,-3,-2,-2,-13,-10
1501874393816124,-7,3,2,3,1,0,6,16
1501874393816124,-5,16,-24,2,-8,-2,-9,-15
1501874393830124,8,0,22,19,24,7,13,43
1501874393830124,-4,-9,1,-20,-47,-5,-4,-44
1501874393838153,1,-6,2,15,36,3,3,-5
1501874393838153,1,-3,-34,-28,5,-1,-2,17
1501874393853126,2,-11,-7,-2,3,-1,1,17
1501874393853126,-6,6,7,5,-8,1,4,-18
1501874393854126,-9,-1,-26,-58,-26,-8,-13,-13
1501874393854126,2,-5,-4,-14,-20,-6,4,23
1501874393876157,2,-1,0,20,21,8,-6,-51
1501874393876157,2,1,23,39,11,3,-2,9
1501874393876157,-5,-10,-7,-55,-11,-4,1,-4
1501874393876157,2,9,-16,7,6,-1,-5,8
1501874393890127,6,16,11,1,-20,-7,0,3
1501874393890127,-3,2,-27,-34,9,3,-5,6
1501874393898134,-6,-19,-8,31,20,-1,0,-12
1501874393898134,4,9,29,-19,5,-2,8,7
1501874393913146,8,17,-10,-9,-13,0,0,4
1501874393913146,-3,-24,13,8,35,4,-4,-10
1501874393914163,-1,3,21,47,-68,-6,-3,6
1501874393914163,-5,-14,-23,-41,25,-1,4,21
1501874393936139,-3,14,14,5,-25,-6,-7,-33
1501874393936139,1,-22,-43,-17,32,4,1,18
1501874393936139,2,-12,7,1,1,2,-1,-19
1501874393936139,-1,27,34,41,7,2,2,-19
1501874393950192,2,-5,-14,2,-22,-7,2,17
1501874393950192,-4,5,-1,-27,-18,-7,-10,0
1501874393958174,5,-1,-4,11,31,1,13,29
1501874393958174,2,15,18,14,-3,3,-13,-18
1501874393973172,-11,-44,-24,-24,14,1,-3,-16
1501874393973172,-2,10,7,8,-13,-7,-3,-19
1501874393974131,0,-4,0,6,-3,-1,4,26
1501874393974131,-8,4,7,18,-8,-6,2,-33
1501874393996156,0,2,0,9,10,0,-5,-1
1501874393996156,11,16,3,-2,22,6,3,15
1501874393996156,-6,15,18,-8,-1,-2,-2,-8
1501874393996156,-1,-31,-27,7,-56,-8,0,22
1501874394010146,1,-7,-11,-6,-7,-5,-1,0
1501874394010146,-10,-13,7,12,40,13,3,-8
1501874394018174,1,16,-9,-9,5,-6,1,4
1501874394018174,2,-7,8,18,-2,-2,-9,-1
1501874394033198,-10,-25,0,-15,-3,-1,-5,-13
1501874394033198,9,9,0,-7,-11,-1,5,5
1501874394034136,1,12,4,41,-6,0,-1,-6
1501874394034136,-3,5,-18,-77,8,-1,-4,-39
1501874394064206,-5,1,13,-21,-8,-2,-7,8
1501874394064206,-12,2,9,25,-11,-9,-6,-15
1501874394065137,11,-3,14,-3,-9,1,4,3
1501874394065137,-6,-11,-40,23,12,0,7,15
1501874394070181,-1,11,14,1,7,-2,-4,-9
1501874394070181,1,0,-8,1,8,-8,-6,-2
1501874394078195,3,-23,0,-3,20,9,0,4
1501874394078195,3,3,18,3,-2,0,-2,27
1501874394093185,-6,-18,-56,-9,5,1,-3,-14
1501874394093185,2,14,4,-36,-32,-10,4,18
1501874394094143,-1,-3,-3,6,5,3,0,-22
1501874394094143,-7,-7,15,8,-1,2,-8,-20
1501874394116149,6,33,29,24,5,2,6,20
1501874394116149,8,-8,-17,-18,-29,-1,3,-10
1501874394116149,-16,6,6,-5,-13,-7,-17,-22
1501874394116149,1,2,-12,10,11,2,0,18
1501874394130183,6,17,7,22,32,4,8,14
1501874394130183,-6,-11,-3,-2,-15,-4,-7,-8
1501874394138215,-6,-9,-15,-30,15,1,-2,-7
1501874394138215,-5,9,8,14,-10,-4,-1,-3
1501874394153181,5,5,11,-2,-2,-3,0,20
1501874394153181,1,-7,3,5,2,1,6,24
1501874394154178,-6,-6,2,34,-9,-3,-12,-54
1501874394154178,-5,-17,-30,-16,-54,-12,-9,-19
1501874394176153,8,1,-10,-20,64,13,6,16
1501874394176153,-3,15,8,-18,-6,0,-7,-6
1501874394176153,0,3,-4,23,6,0,2,2
1501874394176153,1,-5,27,6,28,7,5,8
1501874394199187,-12,-17,-19,-16,-46,-14,-6,-16
1501874394199187,4,-11,-9,8,7,0,2,5
1501874394200145,8,25,-14,-21,2,0,4,18
1501874394200145,1,2,30,11,-10,-6,-6,9
1501874394213187,-6,-31,-5,12,2,4,-1,-12
1501874394213187,-3,6,5,-4,5,-4,1,-7
1501874394214145,7,1,0,2,1,1,6,24
1501874394214145,1,27,4,0,-4,1,2,-2
1501874394236156,-10,-13,20,11,6,-3,-14,-12
1501874394236156,11,17,-17,-11,-15,5,4,16
1501874394236156,1,-4,-5,-29,-50,-8,-6,0
1501874394236156,3,-10,12,20,60,7,6,2
1501874394259187,2,5,12,-23,0,1,3,16
1501874394259187,-12,-17,-25,15,-24,-5,-5,-29
1501874394260148,2,1,-11,23,3,0,3,15
1501874394260148,0,3,9,-9,-15,-3,-4,2
1501874394273210,0,8,14,1,0,0,1,-11
1501874394273210,5,1,1,-13,15,-2,-1,-8
1501874394274150,-3,12,-5,9,-6,-1,2,-2
1501874394274150,-8,-19,15,7,5,-2,-4,5
1501874394296167,6,6,-10,-6,-5,-1,-2,29
1501874394296167,-1,20,14,5,-15,-3,2,0
1501874394296167,-2,-22,-19,-3,7,-6,4,15
1501874394296167,-4,-11,-2,-2,21,2,-20,-84
1501874394319219,3,-9,-33,-33,-29,-4,-1,17
1501874394319219,-5,0,2,-3,5,3,2,-2
1501874394320151,2,-8,28,-2,-3,0,0,1
1501874394320151,-1,13,-22,-2,-14,-8,-4,-2
1501874394333191,-2,10,13,17,24,4,3,-3
1501874394333191,-3,-8,-2,-18,-19,-2,-5,-2
1501874394334177,-7,-20,-3,18,48,-4,-2,3
1501874394334177,8,2,-2,-11,-25,5,10,-5
1501874394356201,-8,3,-1,3,-11,-6,-10,-30
1501874394356201,3,-9,11,23,7,2,9,8
1501874394357180,-2,1,-10,-37,2,-2,-14,-10
1501874394357180,-5,-14,-16,-26,-1,3,0,-31
1501874394379193,2,-3,-1,13,-7,-1,-1,20
1501874394379193,-4,9,-6,-17,-2,-5,-2,-13
1501874394380160,0,0,4,12,-9,1,3,12
1501874394380160,4,4,9,29,4,-2,6,37
1501874394393194,-1,9,-8,-15,-19,-3,-4,-30
1501874394393194,-3,-5,11,6,38,-2,-5,5
1501874394394166,-6,1,-5,-4,-19,-5,-5,-6
1501874394394166,9,27,14,1,7,6,13,24
1501874394416167,-1,-26,1,19,11,-1,11,21
1501874394416167,1,5,15,-1,-15,-7,-10,11
1501874394416167,-6,-7,-19,0,7,3,-3,-18
1501874394416167,4,17,-5,-12,3,-2,-2,3
1501874394439200,1,-4,3,2,8,-2,4,2
1501874394439200,-3,-26,-2,12,8,2,5,13
1501874394440159,-4,1,-5,-17,-14,-1,-8,15
1501874394440159,4,4,-8,-2,-6,-4,1,24
1501874394453202,2,4,3,0,-8,-4,-8,-14
1501874394453202,-7,1,-13,9,10,6,2,-6
1501874394454159,-1,-1,4,-21,-27,-2,5,3
1501874394454159,-3,10,0,8,30,2,-4,-39
1501874394476196,-1,1,4,0,3,0,5,24
1501874394476196,-3,-10,-4,2,-9,-4,-7,-46
1501874394476196,-1,-12,-11,1,-1,-1,0,-14
1501874394476196,-2,-7,-10,-19,-10,-1,-2,1
1501874394499202,5,18,10,3,-3,3,0,-6
1501874394499202,2,-3,3,4,1,-1,8,24
1501874394500165,6,19,6,-17,4,-2,-11,0
1501874394500165,-8,-34,-32,0,-5,1,-1,-8
1501874394513206,2,7,16,-1,4,-1,1,12
1501874394513206,0,-2,-23,-3,-12,-3,3,26
1501874394514162,7,26,-24,-34,-10,0,9,15
1501874394514162,-11,-17,27,17,-4,-2,-17,-38
1501874394536204,-6,-7,-2,26,10,-1,-7,-26
1501874394536204,-4,3,-4,-21,-19,-4,-6,-16
1501874394537175,-2,-9,20,33,-5,-1,0,-22
1501874394537175,6,11,-26,-44,25,5,11,33
1501874394559238,-2,12,5,-7,-7,-2,1,-12
1501874394559238,-2,-11,0,10,-1,-4,-1,12
1501874394560201,-3,-3,11,10,16,3,-9,-20
1501874394560201,-1,-13,-27,-5,-27,-5,1,15
1501874394573233,1,-3,21,10,2,-1,-3,15
1501874394573233,2,13,-23,-2,19,3,2,3
1501874394574167,-7,-2,7,0,10,-3,-3,-10
1501874394574167,4,10,28,16,-6,-2,-1,-16
1501874394596203,4,1,-25,-19,-14,0,-5,-5
1501874394596203,2,8,11,4,2,0,-1,6
1501874394596203,-3,-31,14,16,4,-3,4,12
1501874394596203,-6,-3,11,-16,-14,-10,-1,41
1501874394619214,1,29,-10,39,12,14,8,20
1501874394619214,-9,-23,19,19,-15,-3,-14,-32
1501874394620169,4,12,-35,-17,23,5,2,15
1501874394620169,0,-2,4,-4,-17,-2,5,24
1501874394641234,-10,-15,-15,-33,1,-10,-2,-3
1501874394641234,6,8,-15,8,17,6,-1,-25
1501874394642205,-7,-1,28,26,-12,-4,-3,-2
1501874394642205,5,16,-7,6,-6,-4,-8,-3
1501874394656182,6,-3,16,-14,-3,-1,0,-2
1501874394656182,-7,-11,1,-4,-5,-3,-3,0
1501874394656182,1,-20,-24,-22,-7,-2,6,6
1501874394656182,-7,15,17,6,4,2,1,-20
1501874394679191,-4,-9,7,37,-15,0,0,-18
1501874394679191,4,-4,-4,-49,18,-1,-7,2
1501874394680173,-2,21,-8,15,-5,1,-1,3
1501874394680173,3,-24,-9,-12,-16,-5,10,62
1501874394693233,-17,-14,-12,2,2,-5,-19,-48
1501874394693233,2,-3,23,-3,-30,-1,-5,-5
1501874394694189,3,24,4,21,14,-3,1,-10
1501874394694189,5,-4,-11,17,29,10,1,-3
1501874394716175,-1,-4,-6,1,-9,-1,3,35
1501874394716175,-8,0,-21,-33,3,-6,-4,-6
1501874394716175,2,2,12,-11,-9,2,-4,9
1501874394716175,-2,-2,4,9,-12,-5,-5,-45
1501874394739219,7,3,-2,-23,4,1,3,19
1501874394739219,3,-7,20,24,-13,-1,15,30
1501874394740175,-13,-1,-18,-8,5,-1,-14,-51
1501874394740175,2,19,13,-7,18,5,0,-10
1501874394753192,-2,-13,1,-17,-25,-7,-4,0
1501874394753192,-2,3,-36,14,22,1,2,16
1501874394754189,2,-16,2,-29,-30,-5,2,10
1501874394754189,-6,10,1,18,8,0,-5,-29
1501874394776196,6,6,29,48,-6,-4,-3,-9
1501874394776196,-2,5,-35,-21,-11,-4,-2,-25
1501874394776196,1,-19,20,32,21,5,10,35
1501874394776196,-6,-6,-20,-44,-22,0,-4,-4
1501874394799205,1,11,14,-22,9,-2,0,-32
1501874394799205,0,-3,20,67,-9,0,0,8
1501874394799205,4,-2,8,27,28,-1,-1,-12
1501874394799205,-2,-5,-5,-51,-9,1,2,12
1501874394812219,-5,-15,-32,-26,-12,-6,-6,-6
1501874394812219,-2,17,3,-32,-27,-4,-3,-12
1501874394821192,5,1,1,9,20,5,7,22
1501874394821192,1,-11,17,35,1,-3,0,13
1501874394836192,4,9,-13,-11,28,4,1,14
1501874394836192,-4,0,20,2,-14,-1,-6,-39
1501874394836192,-3,-11,11,-13,-1,-2,1,9
1501874394836192,-4,-7,-19,-4,-14,-6,-1,9
1501874394859227,-5,5,-2,6,10,-2,4,5
1501874394859227,2,-1,13,0,15,1,0,-7
1501874394859227,0,-2,-30,-26,-20,-1,-10,-6
1501874394859227,1,-9,-3,23,0,-3,-2,13
1501874394872226,-2,1,-10,-21,-12,-1,2,-28
1501874394872226,3,6,8,12,-4,-4,-4,12
1501874394881202,-4,-4,-3,-38,-21,-6,-7,-18
1501874394881202,-3,7,20,12,13,1,1,-9
1501874394896203,0,-13,-3,16,-10,1,4,32
1501874394896203,-1,8,1,-10,17,4,-1,-6
1501874394896203,-4,5,-19,3,-22,-5,-4,-35
1501874394896203,-8,-23,-2,-15,7,-6,-9,-17
1501874394919228,0,-8,14,2,-3,1,4,9
1501874394919228,-1,-3,-6,4,-3,-3,4,8
1501874394920198,2,19,7,9,3,-2,-5,19
1501874394920198,-2,15,0,16,0,-1,0,-25
1501874394932230,0,-10,-25,-22,-12,-4,3,6
1501874394932230,-1,-7,8,-11,21,2,-3,-3
1501874394941202,-3,20,9,13,-7,-1,3,-2
1501874394941202,5,-16,-10,3,14,5,-1,5
1501874394956204,-3,-14,7,-6,-2,-3,-6,0
1501874394956204,-7,-9,-11,-17,-6,1,0,10
1501874394956204,6,15,18,3,8,-7,5,-6
1501874394956204,4,11,-25,-19,1,5,2,13
1501874394986252,-5,-2,-6,12,4,2,-4,-29
1501874394986252,-2,-4,17,20,29,2,2,14
1501874394987226,-4,-8,-1,-34,-12,-1,3,9
1501874394987226,-1,9,1,38,-13,-3,0,9
1501874394992251,-11,-24,-9,-2,-24,-9,-4,-30
1501874394992251,3,7,-4,-13,12,3,-3,-2
1501874395001201,-3,-23,-10,2,7,0,2,-14
1501874395001201,-2,-3,15,8,5,0,-3,11
1501874395016203,5,15,21,14,-13,-2,5,14
1501874395016203,-8,-20,-27,-31,-18,-5,-2,20
1501874395016203,3,-6,-31,21,39,4,1,12
1501874395016203,-8,-10,4,-14,-16,-6,-3,-8
1501874395039257,9,39,-9,-13,18,4,-3,-2
1501874395039257,-3,3,21,7,-35,-9,0,-4
1501874395040201,-2,-3,-8,-11,-21,0,3,-7
1501874395040201,2,23,-2,-27,8,-4,-3,11
1501874395052250,4,-5,16,28,16,4,-5,-8
1501874395052250,-5,-39,-3,-1,-7,0,-1,-5
1501874395061195,-2,0,-14,-2,-19,-2,7,21
1501874395061195,1,-3,24,-13,5,2,-8,-27
1501874395076211,-2,-4,-21,-15,-14,-6,-1,7
1501874395076211,4,17,7,-1,-4,-4,-3,21
1501874395076211,2,0,10,13,4,2,1,0
1501874395076211,-3,-15,-18,7,-7,-4,0,4
1501874395099244,1,3,0,-2,16,8,-1,-4
1501874395099244,3,-5,-9,9,9,5,1,-6
1501874395099244,-5,1,20,-5,-2,-3,-4,-4
1501874395099244,3,0,-10,-1,-13,-4,0,15
1501874395112261,-3,-4,-3,10,6,1,-2,-11
1501874395112261,1,34,20,27,-22,1,5,-2
1501874395121198,2,-10,-14,-21,28,12,0,9
1501874395121198,-10,-27,-12,0,26,4,4,5
1501874395136211,-4,4,0,-26,-13,-7,-4,-1
1501874395136211,9,9,10,13,-26,-1,16,25
1501874395136211,-13,8,10,6,22,-7,-25,-54
1501874395136211,-3,0,-5,7,6,1,1,-9
1501874395159241,0,-2,-13,-20,-1,2,4,13
1501874395159241,-3,-10,-19,-26,3,-7,-6,-6
1501874395160200,5,1,15,21,-25,-5,4,17
1501874395160200,-6,10,-33,-6,-3,-5,-6,-25
1501874395181236,1,-5,16,0,-8,0,0,-2
1501874395181236,-2,-9,-26,-21,20,6,-5,-10
1501874395182202,4,-1,21,20,-7,-7,1,16
1501874395182202,-4,0,12,-8,-7,7,6,4
1501874395196222,3,-2,1,12,-25,0,-1,-20
1501874395196222,-3,7,1,6,29,0,-5,-24
1501874395196222,-7,-19,-15,-20,3,5,0,10
1501874395196222,12,28,20,22,-23,-2,3,29
1501874395219245,-4,14,31,5,24,-2,11,15
1501874395219245,-16,-43,-44,-41,-7,-8,-18,-52
1501874395220215,4,1,11,13,-5,2,2,10
1501874395220215,-2,-21,-31,-15,3,-5,-2,-12
1501874395241216,6,4,-4,3,-3,-2,1,19
1501874395241216,5,34,40,26,-3,1,3,20
1501874395242203,-2,-12,0,-5,6,-1,0,-4
1501874395242203,-7,-9,-1,9,-10,-4,-5,-15
1501874395256225,-2,-3,-12,-4,19,-2,-2,-1
1501874395256225,1,11,-7,-14,-9,-3,1,9
1501874395256225,0,-1,0,-4,-17,-1,3,5
1501874395256225,5,16,25,3,-27,1,1,-13
1501874395279247,-11,-16,-17,18,24,0,-9,-29
1501874395279247,6,1,-10,-8,2,-1,-1,11
1501874395279247,-5,2,-26,-1,2,-1,0,-10
1501874395279247,7,11,18,-29,-9,2,2,25
1501874395301252,1,-6,-14,-14,-25,-7,-3,10
1501874395301252,-1,-3,10,19,13,-3,-1,14
1501874395302220,-5,-18,-7,-23,1,1,7,20
1501874395302220,-3,18,30,-4,-8,-4,-9,-65
1501874395315254,-8,-26,-40,-24,0,-2,-7,-18
1501874395315254,0,0,-7,21,16,8,4,-10
1501874395316249,6,15,-1,-9,-27,-11,1,4
1501874395316249,-4,-10,-5,20,29,-1,1,18
1501874395338273,-4,2,21,0,14,3,-6,-7
1501874395338273,2,9,12,-19,-27,-3,-1,-17
1501874395339210,-4,-12,-25,22,18,3,-2,-20
1501874395339210,6,6,3,-4,8,7,7,30
1501874395361043,-1,-1,4,7,-18,-3,-1,-5
1501874395361043,-4,-4,-4,-8,-1,-1,1,18
1501874395362026,3,14,13,10,-10,-2,-1,-8
1501874395362026,2,-14,5,-22,-7,-5,-2,-4
1501874395376098,-5,-15,-5,6,11,1,2,22
1501874395376098,4,-3,1,12,-2,-2,0,13
1501874395376098,-1,3,4,-9,-4,2,-3,-15
1501874395376098,-12,-8,-2,18,8,-1,-7,-33
1501874395398069,8,4,7,0,-17,-1,5,28
1501874395398069,-4,0,-6,-10,-14,-5,-7,-2
1501874395399041,2,-12,-17,-6,2,0,2,4
1501874395399041,-1,-1,-9,7,-1,-5,0,6
1501874395421077,1,8,27,20,-4,1,-2,7
1501874395421077,-1,11,-5,-12,15,2,-1,-20
1501874395422071,-3,-9,-11,8,9,2,0,-7
1501874395422071,3,18,7,10,18,1,0,14
1501874395436044,0,-20,-5,-18,-10,5,2,0
1501874395436044,1,-5,-3,5,4,-3,-2,12
1501874395436044,0,8,1,-15,-28,-3,-5,-27
1501874395436044,-4,-26,-15,-15,13,-2,1,-9
1501874395458070,6,30,4,6,4,-1,-3,9
1501874395458070,-6,-22,-5,5,-1,1,0,4
1501874395459045,-2,-4,12,9,-8,-5,-8,-5
1501874395459045,-6,-11,-2,-6,4,-4,1,11
1501874395481075,-1,6,-7,-17,-37,-4,-2,-9
1501874395481075,4,3,5,17,42,7,4,5
1501874395482061,1,4,-5,-21,-2,0,3,19
1501874395482061,2,-10,-1,16,0,-2,-8,-32
1501874395496048,-7,-10,4,-6,-1,-3,0,-7
1501874395496048,-3,10,6,-1,-29,-4,-3,-13
1501874395496048,-2,-18,-3,12,8,1,3,40
1501874395496048,0,17,2,-11,2,5,8,-8
1501874395518077,5,3,4,14,19,0,-2,-33
1501874395518077,3,-6,9,7,11,6,1,-2
1501874395519045,-4,4,-11,-20,-3,-4,-9,-11
1501874395519045,-1,-12,-10,-4,-27,-3,0,16
1501874395541077,-2,1,4,1,7,-2,4,2
1501874395541077,-1,5,-1,4,-27,-9,-1,-4
1501874395542059,2,18,16,2,39,6,-2,-3
1501874395542059,4,-9,-16,-10,6,2,4,16
1501874395556060,-1,14,-2,-3,1,-2,-2,9
1501874395556060,-9,-29,-7,0,-9,-1,-7,-35
1501874395556060,-5,-6,6,-8,-34,-10,-9,-10
1501874395556060,-3,5,9,10,1,2,-1,-6
1501874395578072,2,26,-3,-1,2,1,2,11
1501874395578072,5,-2,3,-18,-7,0,4,25
1501874395579040,-2,-11,-8,4,4,-1,-4,-34
1501874395579040,-1,5,-3,4,7,1,-1,0
1501874395601111,2,-14,-9,-4,-6,-2,2,17
1501874395601111,1,19,7,-5,-13,-4,0,8
1501874395602041,1,-9,1,-6,4,3,7,16
1501874395602041,6,18,6,14,1,-2,-3,-1
1501874395615044,-3,-17,-17,-7,-3,0,-1,-6
1501874395615044,-3,1,2,1,1,1,1,-1
1501874395623085,2,7,9,6,-20,-1,-1,-5
1501874395623085,-14,-34,-7,-3,10,-2,-3,-1
1501874395646083,0,-1,12,-2,17,-1,-1,4
1501874395646083,-2,-3,-20,-2,24,0,-3,-15
1501874395647053,-3,-6,-2,-3,-17,0,0,23
1501874395647053,4,20,0,8,-15,-7,-2,-32
1501874395661049,-5,-13,7,-5,-17,2,5,8
1501874395661049,1,-1,14,13,15,0,-8,0
1501874395662046,-2,5,-15,-21,14,-1,-2,5
1501874395662046,-3,-7,1,-4,-26,-6,-5,2
1501874395676084,-1,-5,-8,-2,22,2,5,19
1501874395676084,0,10,1,-7,-15,-4,-7,-34
1501874395676084,-4,-2,10,9,-7,-1,-4,-48
1501874395676084,-2,-10,1,-6,13,2,-1,14
1501874395698086,-1,13,-6,0,-22,-2,1,-5
1501874395698086,0,-15,-9,22,12,-2,0,13
1501874395699047,-2,1,3,-19,12,1,-2,13
1501874395699047,4,3,-3,-3,-1,5,0,12
1501874395720116,2,8,2,13,9,-3,-5,-28
1501874395720116,-6,0,9,-1,-3,-1,0,-5
1501874395728065,4,1,-1,11,-7,-5,2,38
1501874395728065,-7,-4,-8,-8,4,1,-4,-37
1501874395735120,2,0,-1,1,-3,-3,-3,5
1501874395735120,-3,-16,-5,-3,3,5,5,-2
1501874395743115,-4,12,3,0,1,-3,1,-12
1501874395743115,7,10,14,2,-16,-5,1,18
1501874395758074,-8,-18,-15,-3,-1,-6,-10,-28
1501874395758074,0,0,-3,9,5,-4,3,18
1501874395759063,-3,-3,-12,-22,6,2,-5,0
1501874395759063,3,4,20,-4,-7,2,5,19
1501874395781112,-2,3,13,19,0,-1,-4,-5
1501874395781112,-2,0,2,-18,-50,-9,-7,-3
1501874395782051,3,3,15,2,27,7,3,-9
1501874395782051,-3,-13,-28,-5,6,0,-5,2
1501874395795054,-1,18,15,-6,-5,2,1,-17
1501874395795054,-1,0,-20,1,-6,-4,-5,-9
1501874395803102,0,-1,6,15,7,-1,-1,-4
1501874395803102,1,0,-1,-1,-2,-4,0,6
1501874395818052,5,15,2,-2,-6,-1,0,8
1501874395818052,-1,-22,-12,-7,3,-1,4,36
1501874395819069,-7,-8,-1,11,-32,-2,-3,-53
1501874395819069,4,-10,-6,-4,49,7,3,32
1501874395841095,-10,-6,-8,-1,4,-1,-4,-1
1501874395841095,5,24,18,3,3,2,2,-7
1501874395842056,-1,-2,-3,-10,-19,-1,5,20
1501874395842056,-7,-7,-12,-1,-12,-9,-9,-10
1501874395855101,4,-7,1,2,6,0,-2,-9
1501874395855101,-1,-3,5,-4,15,4,-2,-4
1501874395863068,3,-2,-11,-1,6,2,0,16
1501874395863068,-4,1,5,12,-7,-2,-1,-4
1501874395878064,-2,-3,-7,-11,-9,-4,0,6
1501874395878064,-2,2,-4,-21,-1,-1,0,-5
1501874395879058,1,-17,-3,5,-1,-6,-4,1
1501874395879058,2,21,6,7,-16,-3,-1,-23
1501874395901130,1,-17,-4,28,-2,-4,8,47
1501874395901130,-5,10,7,-11,42,8,-10,-29
1501874395902080,-1,5,-8,-10,-4,-2,-1,11
1501874395902080,-2,1,9,-8,-12,-1,-2,-36
1501874395924102,2,-1,-4,-9,-2,0,2,12
1501874395924102,5,24,-15,-1,-27,-5,7,18
1501874395925072,-3,-28,-3,13,29,3,-6,-27
1501874395925072,-2,-2,-9,-3,-23,-4,2,11
1501874395938077,-3,-6,-13,-23,7,-2,-8,-15
1501874395938077,2,4,-2,3,0,2,5,6
1501874395939096,-2,4,11,19,-5,-1,0,6
1501874395939096,1,7,-5,-21,-12,-2,-2,5
1501874395961062,-6,-18,-6,-31,-25,-2,-1,10
1501874395961062,-2,-7,8,12,14,3,-7,-42
1501874395962063,-1,10,2,12,-14,-6,1,11
1501874395962063,-5,-22,-23,-9,53,7,1,-2
1501874395975105,3,17,0,5,-11,-2,-3,-4
1501874395975105,1,-4,0,-3,-20,-6,2,13
1501874395983135,-3,5,11,-3,-14,-2,-1,8
1501874395983135,7,15,19,21,-2,0,-1,-18
1501874395998129,-10,-26,-13,0,5,-3,-2,9
1501874395998129,-5,-11,-14,9,-8,-1,-2,-22
1501874395999077,-6,-2,1,-36,4,-2,-2,-15
1501874395999077,4,5,0,1,10,3,-2,12
1501874396021096,6,17,34,27,14,0,2,-6
1501874396021096,-5,-20,-9,-14,-6,-1,-1,1
1501874396022064,-1,6,-21,-11,-4,-3,-3,4
1501874396022064,0,-19,5,6,-7,-2,7,39
1501874396035077,1,5,-9,-6,-4,1,-8,-70
1501874396035077,-5,-3,7,6,5,-3,-2,30
1501874396043135,4,4,14,6,4,1,1,5
1501874396043135,0,4,-11,5,-20,-6,-2,-1
1501874396058106,-1,3,-10,-2,12,7,0,-13
1501874396058106,-1,-10,2,-12,-7,-4,0,0
1501874396059068,-1,5,3,15,-30,-2,1,-7
1501874396059068,-5,3,3,-27,31,4,3,14
1501874396081113,5,-5,-1,3,-6,-2,0,19
1501874396081113,-3,-4,-4,-3,-6,-1,-2,-4
1501874396082070,-1,1,-5,-4,-27,-7,-3,-13
1501874396082070,-3,5,-10,15,26,3,-6,-7
1501874396104109,-4,1,-12,-11,-15,-4,-4,-4
1501874396104109,0,-5,8,-2,16,2,4,5
1501874396105072,4,-4,-1,6,0,-1,3,16
1501874396105072,-6,1,2,0,-32,-6,-8,-2
1501874396118142,4,0,-6,-9,4,0,-3,-19
1501874396118142,-4,-6,5,9,15,0,-4,-2
1501874396119072,-4,-13,-6,1,14,0,-2,-1
1501874396119072,2,-5,2,-6,-4,-1,1,-4
1501874396142090,-5,-4,-8,1,-4,-3,2,6
1501874396142090,2,4,-21,-6,-14,-6,-3,10
1501874396143073,-1,6,6,-3,9,0,-2,-8
1501874396143073,0,-10,-9,-1,-8,1,-1,-2
1501874396164116,1,6,11,6,-6,-1,2,12
1501874396164116,6,14,4,5,-11,-3,1,-7
1501874396165097,-7,-16,-5,-2,27,5,-4,2
1501874396165097,-3,-6,3,-2,-19,-3,-2,-8
1501874396178088,-4,-6,2,-3,4,-2,3,17
1501874396178088,-5,11,-9,-10,-11,-2,-9,-29
1501874396179075,7,4,0,5,12,-2,-1,16
1501874396179075,-6,-6,-3,-9,3,1,-3,-37
1501874396201113,1,-3,20,5,-14,-1,4,21
1501874396201113,0,3,-10,-16,18,0,4,26
1501874396202084,0,6,-8,2,-13,-4,-2,-4
1501874396202084,0,20,5,11,-17,0,1,-1
1501874396224117,-3,-4,-5,-13,17,4,-3,2
1501874396224117,0,-28,2,0,-19,1,2,8
1501874396225083,1,-1,-2,-5,-11,0,-1,-10
1501874396225083,3,13,-5,3,16,-1,4,20
1501874396238123,-6,-8,9,11,10,0,-7,-16
1501874396238123,3,12,-13,-6,-5,-3,-3,-5
1501874396239114,-2,3,-6,4,5,1,-1,-4
1501874396239114,0,-5,-2,-25,-10,0,-2,2
1501874396261082,2,-1,-1,10,-34,-5,-1,-10
1501874396261082,-7,-13,-2,-17,43,2,-4,-11
1501874396262081,0,5,5,1,0,1,0,-8
1501874396262081,-1,1,2,3,-4,1,0,-4
1501874396284126,-2,-7,-7,-4,-5,-3,0,5
1501874396284126,1,4,5,7,-16,-5,-2,-5
1501874396285081,-4,-1,-1,-5,3,2,4,11
1501874396285081,-2,-8,2,1,10,-1,-1,-7
1501874396298147,2,5,-1,-6,-2,-1,-2,-7
1501874396298147,10,26,8,12,-6,2,2,24
1501874396299090,-8,-16,-12,0,12,-3,-3,-33
1501874396299090,-3,-13,2,8,-2,-4,-4,5
1501874396321149,-3,2,-4,0,11,4,0,-8
1501874396321149,0,-2,-1,-4,-40,-7,6,-2
1501874396322082,5,8,4,-1,48,11,-2,16
1501874396322082,4,3,10,15,-8,-1,-8,-5
1501874396344086,-2,-5,-7,-9,1,-2,0,-3
1501874396344086,-2,2,-6,6,-10,-1,-3,-4
1501874396345087,-6,-12,-4,-13,6,-3,0,-1
1501874396345087,1,-2,0,1,-7,-3,2,-2
1501874396359096,-2,7,-6,-5,-4,-1,0,5
1501874396359096,2,-10,11,5,5,2,2,13
1501874396366134,-4,5,2,-4,-24,-10,-5,-48
1501874396366134,-6,-11,0,0,11,1,2,19
1501874396381152,-1,2,-10,-1,3,1,-2,-18
1501874396381152,-1,8,3,2,0,-2,0,-8
1501874396382095,-1,1,1,3,-3,0,-1,13
1501874396382095,-4,-10,-7,-2,3,-2,0,5
1501874396404159,-3,3,9,4,9,0,3,6
1501874396404159,0,2,3,-19,-10,0,-3,-28
1501874396405088,4,0,6,2,-7,3,5,7
1501874396405088,1,-4,-2,-3,8,-1,-5,-15
1501874396418155,-4,-12,1,4,8,-5,1,20
1501874396418155,-5,-5,-7,9,14,3,-5,-19
1501874396419089,1,16,4,-3,-16,-3,1,7
1501874396419089,0,-14,-4,-7,-12,3,4,1
1501874396441130,1,-6,1,-3,0,-5,-5,-9
1501874396441130,-1,-4,5,8,8,1,1,13
1501874396442099,-4,-15,-6,-8,-17,-5,-1,1
1501874396442099,0,7,9,0,-1,-4,-1,9
1501874396464136,0,8,-9,-6,4,1,-1,14
1501874396464136,1,-8,4,15,3,4,-1,-3
1501874396465091,0,2,1,0,-9,-3,-2,-8
1501874396465091,-3,5,0,-6,-8,-2,-3,-12
1501874396478095,1,-7,-4,-4,18,4,0,3
1501874396478095,-3,0,-8,-15,0,-3,-1,10
1501874396479106,6,-1,2,0,-1,1,6,24
1501874396479106,-6,9,-2,-9,-16,-6,-13,-51
1501874396501163,-2,3,-1,10,-6,-1,-3,0
1501874396501163,1,3,4,8,4,1,2,1
1501874396502111,3,-5,1,-2,15,1,0,7
1501874396502111,2,6,-7,-1,1,-6,0,20
1501874396524167,-3,-11,2,-6,-13,0,0,-20
1501874396524167,-5,-7,-1,0,9,-1,-2,-2
1501874396525097,-5,12,-1,9,-6,-2,-1,-11
1501874396525097,1,-16,-13,-4,1,3,5,-3
1501874396538162,0,-3,2,-3,-4,-2,-2,9
1501874396538162,2,-1,0,-1,-2,0,1,3
1501874396539100,0,4,3,4,-8,-3,-4,6
1501874396539100,-4,-5,2,-4,-2,0,2,-17
1501874396561098,2,5,-2,-1,24,-2,-1,1
1501874396561098,-3,3,-2,9,-12,-6,0,0
1501874396562096,1,-10,-8,-15,2,4,-3,2
1501874396562096,-2,8,0,4,9,-1,0,9
1501874396584164,0,8,12,-8,-18,0,2,-6
1501874396584164,-3,-15,-21,-1,1,0,1,7
1501874396585135,-2,4,-5,2,8,-3,-6,-12
1501874396585135,1,0,8,6,-26,-7,4,18
1501874396598159,-4,6,-1,1,-1,3,-7,-28
1501874396598159,4,5,6,-14,18,0,0,23
1501874396599115,-6,-10,5,-5,-10,-3,-4,-59
1501874396599115,4,6,-3,-3,-5,2,3,20
1501874396621140,-2,0,-2,7,-3,-3,-2,-8
1501874396621140,-5,-8,7,-7,-13,1,-5,-14
1501874396622101,0,0,-17,-4,14,0,2,10
1501874396622101,-3,-4,13,6,2,2,5,3
1501874396644103,1,4,-20,-13,-4,-6,-6,0
1501874396644103,2,-7,-4,-6,-5,2,-3,8
1501874396645102,-3,5,-21,-9,-9,-6,-4,-7
1501874396645102,-1,-9,0,8,21,3,0,9
1501874396658168,-3,-3,-1,3,-18,-4,1,10
1501874396658168,0,9,-2,-8,9,0,1,-14
1501874396659104,5,-8,11,7,-2,3,4,34
1501874396659104,-4,-7,-8,4,18,-1,-3,-32
1501874396680145,-1,4,2,-8,-1,-2,-2,0
1501874396680145,0,3,3,2,-16,-4,5,14
1501874396688169,1,2,7,4,10,-3,-6,-5
1501874396688169,-1,-2,-2,-6,6,0,-2,6
1501874396704147,-1,-7,-18,4,2,3,2,-2
1501874396704147,-1,-4,4,1,-8,-5,-1,-7
1501874396705106,0,6,3,1,-5,2,2,11
1501874396705106,1,-4,0,-6,-1,0,-1,7
1501874396717145,-2,-4,1,4,1,-2,-2,-1
1501874396717145,-1,2,-4,-18,-5,-3,0,-8
1501874396726149,-1,7,4,4,4,2,-1,-11
1501874396726149,3,-5,1,2,-5,-1,-1,10
1501874396741149,1,4,-4,0,-11,0,2,6
1501874396741149,-2,-15,1,10,-1,-1,-3,-10
1501874396743119,2,11,2,-13,9,3,2,14
1501874396743119,-3,-9,-7,-2,-1,-2,-4,2
1501874396764150,3,0,0,-8,-3,-1,2,15
1501874396764150,-2,4,6,-2,-1,-2,-2,-8
1501874396765109,0,-5,-20,-4,-8,-1,-1,-2
1501874396765109,-2,8,-4,-3,-8,0,-2,3
1501874396778110,-2,-1,2,5,-9,1,8,10
1501874396778110,3,7,6,7,20,2,-2,7
1501874396787109,-5,-10,3,-5,-4,-3,-6,-22
1501874396787109,1,7,4,1,-4,0,-2,0
1501874396801153,-5,-12,-12,1,0,-5,-1,11
1501874396801153,-5,-5,-3,-2,-1,2,1,-29
1501874396803113,0,5,-1,6,-2,-2,-1,-2
1501874396803113,1,-10,-6,-3,2,0,3,4
1501874396824152,2,1,8,1,12,-3,0,5
1501874396824152,-1,14,-8,-7,-15,-2,-3,6
1501874396825114,-6,-25,-1,4,11,0,0,4
1501874396825114,4,8,5,-3,-5,-1,-2,-7
1501874396837154,2,7,2,-4,1,0,-2,1
1501874396837154,-1,-7,1,2,6,0,-2,5
1501874396846136,-2,-2,-9,-7,-21,-4,-1,-15
1501874396846136,-2,2,-3,2,0,-2,2,7
1501874396861153,4,16,1,-11,-2,1,-6,-13
1501874396861153,-3,-15,3,4,8,-2,-1,4
1501874396863115,-3,-3,4,2,-3,1,-2,12
1501874396863115,-2,-5,0,-13,-11,-2,1,10
