timestamp,emg1,emg2,emg3,emg4,emg5,emg6,emg7,emg8
1499877261641454,-12,24,26,15,11,5,111,25
1499877261641454,14,4,13,-25,4,2,-26,-47
1499877261642492,8,-19,22,-18,-14,-4,-57,64
1499877261642492,0,-12,-15,-14,-2,-3,56,4
1499877261643473,-15,-2,11,7,-11,-11,-50,-14
1499877261643473,-11,1,11,23,8,-3,13,2
1499877261644464,0,15,-11,19,0,-9,-13,-52
1499877261644464,-16,8,39,-26,5,4,2,-20
1499877261654494,12,-19,-12,22,-2,-4,42,33
1499877261654494,-8,-5,34,-30,-20,13,35,-13
1499877261657474,2,0,-50,-38,16,5,-74,18
1499877261657474,-26,0,-9,6,-8,-7,37,-25
1499877261672496,0,5,12,27,24,18,19,-7
1499877261672496,2,-4,25,42,-4,-14,-20,26
1499877261681488,-10,-12,-6,-7,11,-2,19,43
1499877261681488,11,-5,-23,3,-25,-5,-67,-3
1499877261689476,13,-3,-34,-7,27,-9,-46,9
1499877261689476,11,0,3,7,-20,-5,3,14
1499877261711496,14,1,-24,15,2,-6,76,27
1499877261711496,30,-11,-9,4,15,19,13,23
1499877261751498,-2,8,1,-24,-23,-29,-16,-29
1499877261751498,13,-3,-55,12,-25,16,16,50
1499877261752461,0,4,5,-38,-21,21,10,-22
1499877261752461,-27,6,14,9,58,2,-25,-56
1499877261763518,10,2,-1,-2,11,-2,71,13
1499877261763518,7,-4,5,67,14,-9,-75,59
1499877261764465,-9,-8,-11,-56,-12,-4,72,29
1499877261764465,1,-2,8,-31,-48,-10,-22,-22
1499877261765461,-11,3,-15,5,-17,3,6,-15
1499877261765461,-10,27,23,27,33,11,-9,-42
1499877261771509,-1,11,-18,24,2,-8,-88,-28
1499877261771509,-3,-5,15,20,24,13,8,-12
1499877261777476,-28,-41,15,-24,-14,-24,-30,68
1499877261777476,-1,0,-16,-24,-32,-7,-25,-58
1499877261792505,9,0,-17,21,18,12,10,87
1499877261792505,52,0,-11,-12,-9,-23,-51,83
1499877261800509,6,11,2,38,16,11,-32,29
1499877261800509,4,-12,23,-29,4,3,72,20
1499877261823590,-2,0,7,-9,-7,-22,-80,-34
1499877261823590,3,-4,-47,59,-14,-10,-67,30
1499877261824531,15,12,-14,-12,-6,28,6,22
1499877261824531,-7,9,1,30,15,-4,5,-7
1499877261838563,-7,-7,16,-36,7,-2,-38,-25
1499877261838563,-16,-22,38,39,15,10,69,-73
1499877261839554,6,22,-16,1,-18,-5,-45,-36
1499877261839554,-12,1,19,-34,-5,-16,-13,-16
1499877261860560,18,5,-18,31,-27,-6,7,28
1499877261860560,-23,4,11,0,5,24,83,-45
1499877261861519,-8,3,7,-2,39,9,-32,-46
1499877261861519,-9,-9,5,-22,-15,-20,-7,-44
1499877261883585,3,-10,5,-14,12,19,122,1
1499877261883585,-26,32,26,2,-36,-6,-6,10
1499877261884524,4,-13,20,14,16,9,-3,-9
1499877261884524,6,-4,9,-39,9,-3,-72,-16
1499877261898533,2,-4,-1,33,5,5,77,21
1499877261898533,2,-23,-2,-53,-11,-7,-6,31
1499877261899524,4,-21,-7,13,-22,-10,-63,35
1499877261899524,-5,-21,2,18,-13,22,108,-5
1499877261920565,-27,10,4,12,36,-1,-10,-40
1499877261920565,-6,-21,-6,12,-4,8,16,22
1499877261921554,8,-9,-4,-24,-5,-3,27,-7
1499877261921554,5,3,-15,34,12,-8,-56,34
1499877261943526,9,-25,-8,-29,-31,-4,-3,2
1499877261943526,10,14,-8,-19,-2,-2,-1,55
1499877261944527,-11,-5,37,-7,15,-20,-91,-23
1499877261944527,0,8,-13,3,-2,16,52,19
1499877261958589,-3,9,-1,31,-2,-8,-16,-38
1499877261958589,6,27,-4,-18,5,-1,-28,10
1499877261959527,7,7,-8,-10,-16,-4,-47,-41
1499877261959527,5,17,17,24,4,2,-20,85
1499877261980569,5,1,-30,-44,-25,-6,34,-41
1499877261980569,-19,-7,20,-11,13,3,-46,-70
1499877261981537,0,4,-29,-1,-16,-3,65,-54
1499877261981537,-14,6,39,-27,1,-12,-85,-13
1499877262003595,-7,-1,46,37,17,9,55,15
1499877262003595,-14,-6,16,3,-10,-18,-24,-18
1499877262004531,-5,-15,-11,-17,-16,16,71,29
1499877262004531,2,-9,-34,3,0,6,24,-7
1499877262018604,5,22,29,-8,11,-8,-54,-5
1499877262018604,5,-15,14,12,-7,-12,31,-45
1499877262019531,3,22,27,-11,9,10,46,0
1499877262019531,-5,-40,-8,-27,-7,-7,-1,-14
1499877262040532,3,-3,10,-7,-22,5,-34,17
1499877262040532,-4,-5,16,-4,9,1,47,12
1499877262041533,-3,-13,0,30,8,-13,-46,2
1499877262041533,-2,6,2,-42,-25,-13,-67,-17
1499877262063572,-3,-4,-3,-25,-26,8,64,-22
1499877262063572,49,5,-28,16,25,9,-37,99
1499877262064532,-29,-25,36,24,16,11,63,3
1499877262064532,-8,1,19,-14,0,2,87,-42
1499877262078577,-8,-21,21,-8,-4,-9,0,12
1499877262078577,13,-7,-35,4,-10,-6,-70,8
1499877262079535,-9,-1,8,-48,-3,-3,50,51
1499877262079535,4,3,25,0,15,-17,-72,-35
1499877262100557,0,0,7,21,-26,-12,-11,-4
1499877262100557,37,23,-36,-5,-25,30,39,36
1499877262101535,10,10,-42,12,60,5,-45,43
1499877262101535,-5,11,26,-5,-11,-4,49,-3
1499877262123586,2,15,31,13,16,-15,-53,25
1499877262123586,-17,-13,-11,-10,-10,-8,-20,-30
1499877262124537,-3,4,-11,14,-9,-5,-58,-19
1499877262124537,12,-2,-49,-16,-3,3,-14,19
1499877262138585,7,1,-7,23,20,3,-22,19
1499877262138585,-10,8,14,1,1,-1,12,-25
1499877262139546,-4,-15,-5,-2,-13,-7,24,-5
1499877262139546,-12,-5,11,34,8,-2,15,-12
1499877262160565,-4,17,-14,14,-4,-2,-97,3
1499877262160565,-12,-6,-2,-2,1,1,29,-13
1499877262161568,16,9,17,10,-15,6,-28,31
1499877262161568,-10,5,6,-17,-4,12,79,-7
1499877262183574,9,-14,-28,10,34,-3,-69,-12
1499877262183574,-22,-19,39,8,-12,19,98,58
1499877262184540,-9,8,27,19,15,-9,-29,-13
1499877262184540,2,-7,2,9,-6,-6,-41,-4
1499877262198543,-4,5,-12,-18,1,-18,-80,-12
1499877262198543,-7,8,6,-52,-19,0,49,-73
1499877262199540,9,0,19,23,-9,11,72,-16
1499877262199540,-3,-18,8,-8,15,0,-14,19
1499877262220609,-15,-1,8,-2,1,-3,-41,-28
1499877262220609,8,-15,1,67,11,-1,48,-7
1499877262221571,-3,-2,-26,-87,-29,-10,-14,-21
1499877262221571,0,15,-10,5,-28,5,-8,-14
1499877262243592,2,1,14,14,44,18,70,-22
1499877262243592,1,-2,12,-49,-15,-18,-68,15
1499877262244577,11,2,-29,35,10,-1,-31,12
1499877262244577,0,19,-16,32,13,-4,19,-28
1499877262258585,-5,-9,6,-34,-27,7,100,-1
1499877262258585,-4,7,2,31,-14,-4,5,5
1499877262259577,-4,-11,20,-31,23,9,-24,21
1499877262259577,22,-9,5,-1,16,-1,-10,56
1499877262280592,-12,-7,14,10,-17,-20,-80,-33
1499877262280592,0,-12,4,-28,7,-6,13,-13
1499877262281549,-2,3,-7,12,-38,-4,21,-5
1499877262281549,2,15,5,-13,4,10,29,17
1499877262303559,-2,-15,-27,26,13,1,18,25
1499877262303559,-2,-10,23,-30,17,0,-11,-12
1499877262303559,-14,-6,17,7,-17,-18,-37,-27
1499877262303559,-3,-9,1,-41,-5,-2,43,23
1499877262317615,2,12,-15,25,-34,6,35,-4
1499877262317615,-3,3,-8,-6,50,5,-84,23
1499877262325613,-3,-7,12,46,21,11,50,-6
1499877262325613,-4,18,-1,10,-15,-16,-91,-40
1499877262340608,1,-3,-17,32,-23,3,78,-16
1499877262340608,11,-9,-19,-30,6,8,23,16
1499877262341564,17,2,-23,-7,4,1,24,51
1499877262341564,-10,-1,15,30,9,-12,-74,14
1499877262363596,7,7,18,-10,11,18,40,45
1499877262363596,4,51,-47,36,-16,-5,-40,22
1499877262363596,-30,-13,48,19,10,7,1,-74
1499877262363596,-2,-11,11,-36,-10,-8,-26,-20
1499877262377617,11,6,-4,3,11,7,38,-7
1499877262377617,-5,-3,18,-30,-3,-11,-21,-35
1499877262385618,22,5,3,-13,3,-14,-90,4
1499877262385618,5,7,25,19,-32,29,110,26
1499877262400593,-7,0,32,-27,25,-9,-47,-111
1499877262400593,2,-8,16,2,-12,-12,-4,26
1499877262401552,-2,4,-11,-7,-47,4,-1,-9
1499877262401552,-7,-17,8,18,-2,3,-36,-30
1499877262423586,3,1,15,2,29,-7,-68,5
1499877262423586,-8,-7,26,-9,2,5,77,10
1499877262424554,16,-21,16,12,-11,-1,53,58
1499877262424554,-5,5,-13,17,-1,-8,-16,36
1499877262437613,-2,-3,-13,-12,-35,-1,12,33
1499877262437613,32,5,-17,13,14,-9,-67,7
1499877262445619,-19,11,30,-22,5,8,14,-19
1499877262445619,7,2,-4,8,3,13,50,-42
1499877262460555,-12,13,16,-11,22,-7,-10,10
1499877262460555,26,-11,-9,9,-9,-11,-76,-33
1499877262461566,8,7,-3,31,8,9,80,20
1499877262461566,30,-15,24,-13,2,-11,-47,-57
1499877262483596,6,5,-7,-18,-33,-5,19,42
1499877262483596,6,5,-20,11,-3,3,12,4
1499877262483596,0,1,17,-14,10,-8,-53,-12
1499877262483596,-13,-2,-1,9,4,0,16,57
1499877262497629,-8,-18,-16,7,-11,3,3,-24
1499877262497629,-3,2,14,-4,-9,-9,14,14
1499877262505625,-3,8,-31,31,2,4,32,-18
1499877262505625,-2,-3,4,-54,-1,6,98,18
1499877262520625,20,-12,-9,2,21,2,-66,45
1499877262520625,-12,-5,-6,-8,-3,4,10,60
1499877262521558,-20,-2,20,-10,-4,-17,-35,-60
1499877262521558,-13,-6,4,3,5,-4,-23,-34
1499877262543624,1,5,-18,-23,-23,-11,-42,97
1499877262543624,-3,-2,21,26,9,7,7,-43
1499877262544562,-9,-7,-5,-13,-1,-1,-7,-3
1499877262544562,3,-2,-18,-2,6,-5,-19,12
1499877262557632,12,-7,4,27,-9,-10,-76,58
1499877262557632,-6,-10,-6,1,18,16,95,8
1499877262565635,12,-27,33,-11,-12,-5,-9,-9
1499877262565635,-20,9,3,1,-20,0,-8,-10
1499877262580612,2,-3,-9,20,43,-5,-31,-26
1499877262580612,-29,-5,6,-34,-46,-9,-46,-42
1499877262581563,3,5,6,-10,12,12,80,-51
1499877262581563,2,1,19,7,18,-6,-36,-36
1499877262603627,-6,6,11,-1,-5,11,60,-32
1499877262603627,-3,1,28,-3,-8,-16,-56,-58
1499877262604570,-10,-4,-30,8,16,-2,-89,-5
1499877262604570,-6,-4,-2,5,-43,-4,-11,-2
1499877262617635,-21,0,13,-25,-2,-4,46,-23
1499877262617635,-1,1,12,29,4,11,47,7
1499877262625633,5,5,-21,-58,-35,-3,-12,23
1499877262625633,15,-6,-3,13,50,3,-38,-3
1499877262640572,-33,-6,18,-3,-7,3,-8,-75
1499877262640572,-4,-2,26,-19,-5,-9,19,-20
1499877262641597,5,9,-6,22,-14,-11,-7,37
1499877262641597,-13,3,4,-6,-16,5,55,-23
1499877262663613,17,1,-8,-18,4,1,23,-12
1499877262663613,-30,-2,13,7,10,-6,-67,-7
1499877262664568,13,8,1,16,-17,2,75,19
1499877262664568,-4,0,12,-57,5,-5,40,59
1499877262677633,6,-2,-25,2,-23,2,1,56
1499877262677633,12,4,-24,3,14,12,3,21
1499877262685612,-14,-6,19,12,27,-9,-65,25
1499877262685612,12,-5,-19,3,-19,-12,-30,54
1499877262700639,-8,1,7,14,22,6,49,-16
1499877262700639,2,-6,-24,15,-18,1,9,14
1499877262701608,-10,4,-10,-13,20,6,-93,-60
1499877262701608,22,1,19,31,31,19,82,-3
1499877262723635,-12,8,19,-25,-11,-6,-34,3
1499877262723635,5,1,-32,2,-15,-12,-44,-22
1499877262723635,-12,9,-13,2,-17,7,32,45
1499877262723635,3,-9,14,0,4,3,47,23
1499877262746612,3,9,-8,22,-21,-7,-75,2
1499877262746612,-1,-4,31,-26,14,2,29,-3
1499877262747572,-11,-7,10,-4,-12,-14,-71,-70
1499877262747572,12,-7,-28,-7,-13,-7,-37,27
1499877262768648,0,-7,16,4,1,1,16,7
1499877262768648,-10,-2,16,9,29,-15,-71,-47
1499877262769576,3,1,31,-12,-17,9,81,15
1499877262769576,-9,-4,-21,32,8,-5,-94,27
1499877262783624,-6,-6,10,-51,9,1,53,-39
1499877262783624,11,3,-18,15,-31,-1,-36,5
1499877262784586,34,-10,-1,-9,15,0,43,127
1499877262784586,-19,0,-6,-14,-9,7,22,-86
1499877262806617,-6,-2,14,0,-1,-5,-9,-5
1499877262806617,-5,1,5,-3,27,1,18,8
1499877262807588,5,12,7,52,-23,-1,-22,2
1499877262807588,4,5,-28,-70,-28,2,6,-10
1499877262828623,3,0,-6,-1,40,-5,-32,10
1499877262828623,19,-1,-14,-14,-42,7,46,65
1499877262829583,2,2,6,0,19,3,-4,-82
1499877262829583,-6,1,39,14,3,-6,-55,-36
1499877262843617,15,-8,-29,3,-17,-1,90,34
1499877262843617,11,-7,28,-9,-4,-10,-51,44
1499877262844579,-15,0,-6,-9,-3,5,22,12
1499877262844579,12,6,13,20,19,7,-39,-18
1499877262866618,-3,-11,4,10,-8,3,24,-19
1499877262866618,-24,-4,-6,-21,20,0,-12,-1
1499877262867579,11,-7,0,-5,-11,-13,-61,-28
1499877262867579,-5,-3,6,18,-4,1,21,-29
1499877262889597,-1,5,29,8,-18,-3,-19,-8
1499877262889597,-5,12,13,4,12,-4,33,-38
1499877262889597,0,-7,12,9,-1,2,-11,-12
1499877262889597,-17,3,4,-17,18,-6,-36,-38
1499877262902627,51,13,-16,9,-3,4,53,33
1499877262902627,-46,-3,13,-13,-4,6,70,-50
1499877262910615,-5,13,-22,-15,-8,-7,5,30
1499877262910615,-5,-3,29,19,-1,-1,15,-12
1499877262926623,-6,-5,13,-8,3,-9,-58,-51
1499877262926623,13,-7,-8,3,9,7,15,6
1499877262927607,-6,-3,24,15,-1,-4,24,-11
1499877262927607,2,-20,-42,-3,4,-10,-50,60
1499877262949607,-13,-4,20,-8,-13,10,61,-30
1499877262949607,17,1,13,32,-11,2,14,1
1499877262949607,-10,-8,22,-37,8,-7,-35,-42
1499877262949607,6,9,-22,9,7,0,24,-13
1499877262962586,-3,-22,41,-13,15,-2,-38,4
1499877262962586,-7,-5,-3,12,-30,-4,-41,-1
1499877262970593,-10,0,47,-2,6,4,72,-42
1499877262970593,-17,11,3,-12,-25,3,24,-47
1499877262986626,-5,3,-44,18,24,3,-59,53
1499877262986626,-3,1,22,10,7,3,-14,-11
1499877262987585,-3,0,44,-37,6,-5,-15,-1
1499877262987585,-2,-11,-4,1,0,-7,-19,19
1499877263008637,-2,12,-12,10,-36,-5,-11,-15
1499877263008637,0,6,9,-10,6,-6,-14,31
1499877263009587,14,4,-28,1,-1,2,5,6
1499877263009587,-1,3,-20,13,-17,4,2,-32
1499877263022627,0,2,-9,7,17,6,-4,38
1499877263022627,3,-4,21,-3,16,-1,-3,-32
1499877263030631,-3,-8,4,4,0,-8,-5,41
1499877263030631,-7,0,6,-6,-3,-3,30,-16
1499877263046629,-35,1,-10,0,-4,-1,12,-45
1499877263046629,1,-7,-17,-5,-11,5,3,-12
1499877263047589,-10,-10,17,-2,27,0,-21,-16
1499877263047589,7,-5,11,-2,-13,-8,-5,38
1499877263068624,1,11,-24,-13,-20,-4,23,-2
1499877263068624,-4,10,4,27,-9,-10,0,-11
1499877263069589,-1,-11,-42,-53,0,6,24,-31
1499877263069589,10,-2,-23,12,-6,6,12,0
1499877263082645,-2,-6,3,-5,27,3,-5,-11
1499877263082645,-13,-9,16,-3,-3,-2,-2,-9
1499877263090641,9,4,0,27,-6,2,1,38
1499877263090641,-13,1,14,-5,2,-9,-14,0
1499877263106632,2,-6,-8,-11,-14,-8,-40,-7
1499877263106632,8,6,-22,20,-5,5,18,12
1499877263107628,-3,13,8,-28,7,4,-3,18
1499877263107628,7,1,-10,-15,-2,-4,-19,24
1499877263128637,1,0,-1,7,-15,-3,-37,-1
1499877263128637,-4,-12,5,-6,12,-7,-35,-12
1499877263129640,13,2,-8,20,12,-2,48,14
1499877263129640,-11,0,16,-5,-17,-1,14,-24
1499877263142634,-4,5,8,20,-39,1,-43,-55
1499877263142634,-3,0,1,-28,26,9,69,-23
1499877263150662,-4,-6,-13,-35,-5,-8,-17,-4
1499877263150662,1,-3,-20,5,3,-6,-46,-2
1499877263166642,5,1,40,12,20,1,29,2
1499877263166642,-2,11,-4,-9,-19,-8,-1,-18
1499877263167630,-13,2,2,13,-20,12,-6,-33
1499877263167630,11,1,23,7,45,6,16,-2
1499877263188641,2,3,15,2,-1,-13,-47,11
1499877263188641,21,9,-19,3,-6,2,7,53
1499877263189631,-4,-5,9,16,-4,-2,18,4
1499877263189631,2,-8,-10,-2,-24,0,19,27
1499877263202638,6,0,5,9,15,1,15,17
1499877263202638,-3,-11,36,-19,17,-1,-20,13
1499877263210641,2,-2,1,23,-6,-1,-31,14
1499877263210641,0,4,-7,-4,-8,5,-13,-4
1499877263226601,-10,-6,15,-2,4,3,68,4
1499877263226601,7,-3,-27,-3,-9,-2,-23,6
1499877263227600,4,-1,21,33,18,-2,-28,20
1499877263227600,-7,0,12,-53,-14,-6,22,-15
1499877263248602,-3,0,3,-11,13,5,3,3
1499877263248602,-6,-1,9,-7,-5,-14,-29,6
1499877263249600,-2,16,-13,0,-26,9,78,49
1499877263249600,-1,6,-25,20,4,4,-28,-11
1499877263271663,-3,0,27,-4,25,4,20,3
1499877263271663,24,-1,-6,-15,1,-4,-10,16
1499877263272641,-20,-7,9,9,-11,-9,3,-62
1499877263272641,0,2,14,11,-21,-5,-33,9
1499877263286643,1,-1,-10,-4,11,7,34,14
1499877263286643,8,-17,-5,9,6,0,-24,4
1499877263287604,22,-1,12,0,-3,-5,-27,52
1499877263287604,-8,-2,1,2,0,-13,-45,-3
1499877263308616,-2,-16,28,-7,-15,-2,43,-22
1499877263308616,-11,4,-11,3,-17,8,12,29
1499877263309646,0,-1,-5,11,16,1,-22,-21
1499877263309646,-1,-4,12,-31,30,-5,22,15
1499877263331626,0,1,-9,5,-20,-17,-71,-3
1499877263331626,-5,-7,6,17,-68,6,25,6
1499877263333607,-5,-4,-6,-29,35,11,-20,-16
1499877263333607,1,3,1,23,26,1,3,-1
1499877263346651,-5,0,12,-11,1,-6,-3,-27
1499877263346651,-6,7,5,0,-28,-4,8,-26
1499877263347606,-1,-2,5,20,16,-2,-40,-26
1499877263347606,-3,-9,-15,-9,-8,-1,-22,-2
1499877263368623,-3,-8,-4,-8,3,11,26,28
1499877263368623,-11,-4,24,7,12,-5,-51,-41
1499877263370628,12,1,6,-6,-1,8,82,23
1499877263370628,-4,1,0,9,10,-6,-6,31
1499877263391621,13,-2,-20,-16,-37,-6,2,38
1499877263391621,17,7,-16,-12,10,6,-6,22
1499877263392609,-19,1,4,5,15,-2,-15,-7
1499877263392609,-5,-12,5,-4,-29,-4,8,-19
1499877263405626,-3,5,7,9,16,-3,8,-26
1499877263405626,-1,4,-12,8,5,-4,19,4
1499877263414615,1,-3,-30,-15,-42,-1,-54,-12
1499877263414615,2,3,20,-40,23,14,92,3
1499877263428659,-2,-1,-6,-11,6,-11,-35,34
1499877263428659,-3,1,13,10,1,15,27,2
1499877263430611,-1,-10,-3,12,-49,-14,15,18
1499877263430611,-12,12,-15,27,22,6,-44,-47
1499877263451655,19,-5,-18,-21,-45,-3,5,100
1499877263451655,-18,-12,-8,-46,64,2,32,-10
1499877263453614,6,5,-13,4,-17,-13,-32,-45
1499877263453614,12,-10,26,5,-12,-13,-16,-4
1499877263465617,4,5,-7,31,13,12,10,-14
1499877263465617,7,2,-2,-1,0,-2,24,11
1499877263473655,-34,-9,22,-21,13,-9,22,17
1499877263473655,-6,0,-26,-28,-30,-13,3,-32
1499877263488644,0,-1,4,28,18,14,24,-14
1499877263488644,-7,-8,20,-12,-5,-31,-19,-37
1499877263494665,9,3,-13,26,4,18,-7,20
1499877263494665,-7,0,-8,20,-12,1,37,13
1499877263511684,-11,-5,9,1,-9,10,-75,-24
1499877263511684,4,4,-13,-76,37,34,43,-9
1499877263512618,12,-11,49,-16,-17,-48,-27,0
1499877263512618,-6,-1,-10,23,-9,20,20,-2
1499877263525635,-5,3,3,-30,-41,-6,0,13
1499877263525635,-4,0,26,32,38,-35,-47,-13
1499877263534619,-1,2,-48,-6,-23,15,6,-6
1499877263534619,6,3,13,20,10,25,-1,22
1499877263549642,2,0,26,-24,19,-7,-7,-11
1499877263549642,1,12,-7,16,-9,-19,-15,36
1499877263550620,-18,0,-8,11,-5,-16,-53,-56
1499877263550620,7,-14,10,7,18,22,90,32
1499877263571668,-12,4,-11,-3,-8,-12,-1,-77
1499877263571668,15,-5,12,9,-37,-12,-19,20
1499877263572653,-5,2,2,21,37,25,7,-8
1499877263572653,5,6,-9,0,5,29,27,15
1499877263585639,-6,-1,6,-19,13,-18,-12,-15
1499877263585639,-7,-2,-5,-10,-26,-8,-31,-65
1499877263594623,11,-7,-1,7,9,-16,6,23
1499877263594623,-9,-3,1,-5,-25,6,-58,-16
1499877263608670,-15,0,16,8,-5,-9,5,-31
1499877263608670,-8,2,-9,17,26,7,-7,-3
1499877263610655,2,-6,4,-4,-14,19,24,11
1499877263610655,5,-3,-8,-43,22,-12,-17,21
1499877263631655,3,5,9,9,-7,-9,-33,-17
1499877263631655,-5,1,-15,27,-1,17,-16,13
1499877263633624,-5,4,-13,-54,6,-5,12,-25
1499877263633624,-5,-5,13,8,7,-18,-18,6
1499877263645641,-2,-6,-7,7,-3,-1,19,25
1499877263645641,-1,0,-19,5,-19,-6,8,-1
1499877263653694,0,2,7,-37,-5,6,-8,-8
1499877263653694,-5,-1,8,-5,6,-26,4,-8
1499877263668695,5,-1,-2,-9,1,28,9,9
1499877263668695,-12,3,-1,18,13,-10,-61,-45
1499877263670635,0,0,2,21,-30,20,89,-28
1499877263670635,12,7,9,8,23,-13,-17,-3
1499877263691667,-5,-3,-17,-34,3,-7,-27,-17
1499877263691667,14,3,-10,3,-28,16,58,59
1499877263693638,-5,-7,12,0,10,-7,-14,4
1499877263693638,-1,-1,22,19,0,-10,-38,-26
1499877263704696,2,-5,-2,15,8,-6,7,15
1499877263704696,-5,-2,9,-12,-22,1,-28,43
1499877263714629,0,-2,-30,3,5,-3,12,19
1499877263714629,-5,5,9,9,-12,8,29,-6
1499877263728673,-3,-16,-4,40,10,5,-6,4
1499877263728673,-4,-4,-2,-70,10,3,10,-12
1499877263730630,0,0,30,5,-6,-22,-12,-11
1499877263730630,-7,-1,-14,-15,-5,-10,-31,-19
1499877263751669,1,6,-8,2,-20,12,-30,-5
1499877263751669,0,-6,1,28,3,17,49,94
1499877263753639,-7,3,11,10,27,3,-19,-31
1499877263753639,-7,-8,-16,-8,-19,-23,-52,-5
1499877263765633,2,1,3,10,7,4,48,47
1499877263765633,-2,-9,-10,-21,-22,-9,-21,-2
1499877263774639,3,6,-17,-3,7,11,-1,8
1499877263774639,-5,1,15,3,-1,-7,-5,18
1499877263788705,-2,-1,14,4,1,1,31,-10
1499877263788705,12,5,3,19,12,-2,-18,-42
1499877263790633,-8,-6,-8,-2,-3,-1,36,-42
1499877263790633,-3,0,-11,5,-7,6,8,21
1499877263811680,-1,-2,-8,9,9,-11,-24,2
1499877263811680,-6,-2,3,-41,-16,7,69,-26
1499877263812634,-2,-2,3,-7,7,-20,-52,-8
1499877263812634,12,3,-3,-2,-10,18,46,34
1499877263825652,0,6,1,15,-16,0,-5,-22
1499877263825652,-9,-3,2,14,22,-4,-35,-31
1499877263834636,2,0,-19,-8,9,5,-4,26
1499877263834636,-5,0,3,-4,-48,-11,-5,-14
1499877263848676,5,3,2,-30,1,1,18,6
1499877263848676,4,2,6,91,7,15,-3,-3
1499877263850647,2,-4,-32,-71,12,-36,13,16
1499877263850647,-3,-2,25,32,4,31,-6,-27
1499877263871713,7,-4,9,-28,1,11,-21,13
1499877263871713,-20,6,-2,16,-7,-13,-33,-41
1499877263872641,-6,-2,-1,12,-49,15,37,-3
1499877263872641,2,1,-5,-34,32,-15,14,-27
1499877263885655,-5,3,3,25,19,-15,7,-11
1499877263885655,-6,-11,-18,3,-19,-2,-21,23
1499877263894638,7,4,-12,8,-7,-6,-38,5
1499877263894638,-4,2,13,-17,-2,4,32,-43
1499877263908703,22,3,-2,6,17,-7,-13,66
1499877263908703,-2,-2,-15,27,14,-4,-2,-10
1499877263910644,8,-4,-7,3,-51,-11,1,15
1499877263910644,14,-7,-6,27,13,6,-8,45
1499877263931651,-7,6,-17,-61,18,38,-13,-39
1499877263931651,18,10,24,-5,6,-3,7,73
1499877263933640,-8,-2,44,64,40,-12,17,-24
1499877263933640,1,-5,3,-45,-44,8,-45,9
1499877263944687,-5,-2,-15,41,18,-24,-29,-49
1499877263944687,-7,-4,-10,-45,-16,5,32,-68
1499877263953693,-3,-7,6,-29,13,29,-20,-6
1499877263953693,-11,-11,17,31,13,-23,48,-11
1499877263968643,-7,5,3,-35,-12,-11,-9,2
1499877263968643,13,3,-10,5,-17,-3,-28,-16
1499877263970645,6,-1,7,11,4,4,36,56
1499877263970645,0,-8,-10,3,21,2,-21,39
1499877263991646,-11,-8,20,-29,-13,-27,10,-2
1499877263991646,-1,-1,18,12,25,-3,-13,-9
1499877263993645,-5,-3,-17,-12,-66,25,-38,-26
1499877263993645,2,12,-21,-2,13,7,19,-3
1499877264004673,10,1,3,-7,17,31,41,-1
1499877264004673,-17,-6,24,14,10,-24,-3,0
1499877264014645,-2,0,-30,-34,5,-17,-37,24
1499877264014645,9,1,1,-8,-42,-5,0,15
1499877264028646,-17,-14,3,33,7,-38,-50,-23
1499877264028646,5,-9,-5,-40,-10,41,43,31
1499877264030649,-2,-3,20,22,27,-1,14,22
1499877264030649,-4,8,-14,10,-2,-12,6,-23
1499877264051694,6,-2,20,-12,-20,-4,25,59
1499877264051694,-5,-2,-16,8,-15,-8,-40,-13
1499877264052652,4,8,-16,-10,14,12,10,-5
1499877264052652,-8,-8,8,7,19,-10,-22,-13
1499877264065660,-2,11,-12,-6,2,16,0,-20
1499877264065660,6,0,-13,-11,-6,-3,-1,20
1499877264074649,3,2,20,34,3,15,1,-42
1499877264074649,6,1,-11,-28,13,-11,27,48
1499877264088690,-4,1,-4,2,-11,-10,-27,-12
1499877264088690,2,2,-5,-17,-1,2,30,-20
1499877264095654,-14,1,5,2,-8,-10,-15,28
1499877264095654,1,1,10,50,4,12,11,6
1499877264111695,8,-2,-25,-55,-1,12,57,17
1499877264111695,4,-7,-6,-8,0,-7,-45,-15
1499877264113653,7,-1,4,5,6,-9,-25,-9
1499877264113653,-10,-7,6,10,6,-20,-6,17
1499877264125670,-5,-6,-7,7,-14,8,9,-28
1499877264125670,0,6,7,-1,-30,35,30,-34
1499877264134655,5,0,14,-10,21,11,6,-21
1499877264134655,9,-2,-4,7,11,3,-14,44
1499877264148693,-4,-2,-24,32,-10,-29,-20,5
1499877264148693,-3,7,21,-34,17,-22,1,46
1499877264150655,-5,-4,-7,10,-14,-17,-16,-8
1499877264150655,4,4,0,-24,-20,28,-15,16
1499877264171698,-3,-2,-4,28,-8,-2,-3,-3
1499877264171698,1,-4,-13,8,23,16,80,0
1499877264173656,1,-2,-3,-16,19,-23,-48,62
1499877264173656,-10,-2,5,5,-25,-20,14,-59
1499877264193717,2,-4,-2,-13,-61,9,28,11
1499877264193717,0,3,3,15,28,6,-23,-43
1499877264195656,4,-2,4,-1,35,3,-11,-14
1499877264195656,1,2,-17,14,20,2,8,16
1499877264208704,-3,0,-15,5,-9,12,-9,-9
1499877264208704,-6,-6,31,-4,-27,-31,-59,11
1499877264210657,-5,1,8,17,-1,14,62,-35
1499877264210657,-9,9,-7,3,-6,0,-11,-34
1499877264231668,-6,0,-4,5,17,-4,4,13
1499877264231668,-2,-5,11,-9,13,-16,5,3
1499877264233658,0,-4,-8,4,-36,13,-1,14
1499877264233658,3,4,-4,9,9,11,8,-1
1499877264253692,9,-6,-8,-10,23,2,19,51
1499877264253692,-6,-4,-11,45,26,-9,-22,5
1499877264255659,-4,-1,8,-36,-28,-12,10,-6
1499877264255659,-5,-7,11,-21,-28,-13,-48,-20
1499877264268698,2,3,-4,12,24,24,28,-21
1499877264268698,-18,8,19,27,-1,20,-2,-67
1499877264270661,6,5,41,11,14,-3,29,40
1499877264270661,-4,-11,34,-15,-13,1,-19,-36
1499877264291727,-1,1,-12,7,3,-21,-28,-14
1499877264291727,1,-2,6,-17,-15,-7,11,1
1499877264293662,1,0,-22,8,7,5,0,-44
1499877264293662,0,4,-8,-6,10,0,-22,-8
1499877264321697,-4,0,6,21,1,0,-11,-16
1499877264321697,-1,-5,-12,-18,-15,-15,15,13
1499877264323669,5,0,-22,-5,-4,2,-39,1
1499877264323669,4,-1,11,8,9,5,45,36
1499877264328728,0,-6,4,22,-12,2,-24,-7
1499877264328728,-3,-10,14,-40,-6,9,24,-7
1499877264330687,-4,-2,7,21,28,-6,6,3
1499877264330687,0,0,-12,-29,-4,0,-13,-9
1499877264351725,9,0,-8,1,-10,-6,6,77
1499877264351725,-5,0,-14,16,12,-12,-41,-10
1499877264352666,-7,-6,-3,-3,-20,-4,-1,-17
1499877264352666,3,0,-14,-31,-8,22,-12,-19
1499877264373712,1,4,0,-14,-4,-4,-6,-26
1499877264373712,6,-1,-5,35,11,8,0,18
1499877264375668,0,-2,21,-21,-19,5,-14,-5
1499877264375668,-4,10,-4,20,33,-11,-6,-20
1499877264388727,-13,-2,13,-25,-5,-15,0,-41
1499877264388727,-6,-1,-1,13,-25,2,-28,6
1499877264395684,-3,1,-21,-33,4,-4,9,0
1499877264395684,0,-5,-3,-2,1,5,34,28
1499877264411734,-2,-2,8,20,6,3,1,-16
1499877264411734,1,-1,-10,-17,-10,-8,10,18
1499877264412671,8,-2,-12,1,-11,3,-4,48
1499877264412671,-15,-7,19,1,15,-9,-12,-32
1499877264433717,2,-15,9,5,-2,2,-5,6
1499877264433717,3,-2,-18,-49,-9,10,81,15
1499877264435669,-1,0,3,6,24,-3,-28,0
1499877264435669,3,-1,-19,-3,-17,-9,4,5
1499877264448721,-2,4,11,-10,-9,4,-27,2
1499877264448721,-8,3,14,-3,-4,-3,-12,-31
1499877264455688,-5,-1,5,7,13,5,30,3
1499877264455688,0,1,13,13,8,-7,-11,-4
1499877264471712,-3,-1,-6,-12,0,-3,11,0
1499877264471712,10,2,3,-7,-21,-10,-3,2
1499877264472672,-7,1,8,34,12,6,-10,6
1499877264472672,-9,-5,7,-46,-20,-8,-13,-36
1499877264493736,2,6,-18,-11,-9,0,25,28
1499877264493736,9,-3,1,3,16,1,-33,13
1499877264495673,-1,-4,13,2,-6,7,37,-16
1499877264495673,-1,-3,0,15,16,-1,-16,4
1499877264508706,-2,-2,-10,-2,-1,-8,0,-4
1499877264508706,2,-7,2,-13,-4,4,-1,-18
1499877264514743,-7,12,2,13,-15,-12,-8,-10
1499877264514743,1,-8,-11,-45,-8,9,11,17
1499877264531689,-4,4,4,3,10,2,-12,-21
1499877264531689,2,3,-6,25,2,-4,7,5
1499877264532677,4,-6,3,-34,-3,-1,8,3
1499877264532677,-3,4,-4,10,-9,-11,-36,-9
1499877264553747,2,0,-1,7,-2,-6,3,18
1499877264553747,1,2,-3,4,6,2,1,11
1499877264555676,1,-19,12,-7,-22,-1,4,10
1499877264555676,1,0,-4,14,13,-3,17,-40
1499877264568734,-4,-8,-6,-12,12,0,-18,0
1499877264568734,-5,0,19,26,-14,0,31,-24
1499877264574754,-5,0,-15,-2,-2,-2,8,-4
1499877264574754,1,1,-9,-6,-2,-6,-46,13
1499877264591745,-6,-3,2,16,-1,7,32,-35
1499877264591745,-2,1,-3,-10,5,0,-28,14
1499877264592678,-1,2,3,18,12,-4,-42,-3
1499877264592678,-5,-8,-12,-37,0,-7,11,-37
1499877264613747,6,13,-15,-10,-14,5,35,28
1499877264613747,-4,-3,-4,-10,-11,0,-11,10
1499877264615713,2,1,-17,8,22,3,-4,-8
1499877264615713,3,0,-3,31,-13,-3,-8,16
1499877264628683,-3,-4,20,-3,18,-7,-21,-60
1499877264628683,0,-2,-2,31,-7,2,21,16
1499877264635705,1,1,12,-56,-20,-4,-4,5
1499877264635705,8,0,-6,7,6,9,13,17
1499877264651748,-2,-1,-1,-10,-9,-1,-16,43
1499877264651748,2,3,6,16,9,-3,-7,-13
1499877264652690,1,-3,11,1,3,-8,11,-31
1499877264652690,0,-4,-18,-3,-19,2,23,35
1499877264673733,-2,-4,6,1,-9,-2,-62,-9
1499877264673733,-3,-3,3,-12,11,-1,49,-7
1499877264675690,-3,1,-7,3,-16,-1,-2,-2
1499877264675690,1,1,8,16,7,-2,6,-6
1499877264687755,3,-3,-12,-7,9,12,19,3
1499877264687755,-5,-6,14,-12,-15,-13,-69,2
1499877264696685,3,1,-21,17,-10,0,12,5
1499877264696685,-1,2,-9,4,6,-3,22,20
1499877264711749,-1,-3,-17,14,5,0,-11,5
1499877264711749,1,-3,9,-19,-7,4,33,-30
1499877264712686,-6,-4,28,29,-6,-3,-15,15
1499877264712686,-1,2,3,-13,13,9,6,-5
1499877264733735,-5,-3,-6,0,6,-11,-5,7
1499877264733735,-3,-3,-3,-18,-13,1,19,-26
1499877264735689,1,-1,-3,1,2,1,-12,-2
1499877264735689,-2,1,5,19,-7,-1,-17,-8
1499877264747751,-2,1,-3,-4,0,-2,12,-14
1499877264747751,-14,-2,6,-7,6,-2,-12,11
1499877264756689,4,-3,17,-3,-3,-4,-3,27
1499877264756689,-4,-1,-4,-4,-4,-1,-6,-2
1499877264771732,1,-2,-6,3,-6,1,12,-8
1499877264771732,-3,5,0,12,9,3,-7,-15
1499877264773691,-2,-1,-11,-9,6,0,5,-8
1499877264773691,-15,-3,-59,1,-1,-7,-18,-52
1499877264793739,-10,-6,-7,-6,-12,-8,-7,-10
1499877264793739,-9,2,55,-1,-1,4,6,-21
1499877264795693,-9,4,59,-8,8,5,0,-44
1499877264795693,56,0,100,1,-11,3,6,115
1499877264807759,-32,6,64,2,-11,3,7,-47
1499877264807759,-12,0,2,-12,19,1,-23,-13
1499877264816692,-5,1,25,9,10,5,16,-52
1499877264816692,-18,-8,-11,2,-5,-13,-48,-9
1499877264831714,23,-1,-29,13,-38,0,26,63
1499877264831714,14,-2,-29,-47,3,-3,5,45
1499877264832694,-1,-1,-33,-2,16,2,2,30
1499877264832694,0,3,-10,-1,13,4,21,-33
1499877264853728,-2,0,6,-5,-6,-6,-14,-28
1499877264853728,4,2,10,14,-13,-8,-2,50
1499877264855694,0,-4,8,-8,-13,-3,-1,-31
1499877264855694,-8,-1,7,0,5,4,6,-10
1499877264867749,0,-3,6,7,7,-5,-9,13
1499877264867749,0,-4,-13,-20,6,-1,-21,5
1499877264876697,15,-1,-25,-6,-14,-5,0,82
1499877264876697,4,4,5,6,-16,10,7,-2
1499877264891736,-16,2,9,7,25,-3,-10,-12
1499877264891736,15,-2,0,3,6,-4,-5,-7
1499877264892698,-13,-2,0,21,4,-4,0,-5
1499877264892698,-11,-6,-2,-22,-15,-7,28,-22
1499877264913743,3,1,-6,-10,0,-4,11,-2
1499877264913743,3,2,-1,16,3,-2,-6,9
1499877264915697,5,0,-12,-1,-9,5,-11,4
1499877264915697,-2,0,-10,4,6,-4,-18,28
1499877264927744,10,-2,-6,-9,2,3,24,76
1499877264927744,-3,-3,8,2,4,-2,9,11
1499877264936698,0,1,-13,11,-12,-3,0,-19
1499877264936698,1,6,-8,2,-17,2,-16,10
1499877264951767,15,-5,-17,-13,-15,1,-14,-13
1499877264951767,-1,1,-4,9,15,1,3,13
1499877264952736,5,-2,-2,-13,8,-4,20,71
1499877264952736,-3,-1,6,17,-2,-2,2,-33
1499877264973773,-6,-1,-4,-40,-1,-2,-7,3
1499877264973773,0,-4,3,0,-14,5,5,-8
1499877264975701,-1,-4,-3,-17,-5,-6,-23,-7
1499877264975701,-3,-3,-1,8,6,11,39,7
1499877264987745,2,-3,3,16,11,-1,-19,-28
1499877264987745,-1,-1,-18,26,-5,-7,6,20
1499877264996701,0,-5,-3,-28,-6,-7,-53,23
1499877264996701,-9,0,10,-14,-8,6,64,-13
1499877265011776,2,-2,2,2,-1,-3,-10,-33
1499877265011776,-4,1,-8,-7,-1,-3,-11,-4
1499877265012712,4,0,-14,7,-17,0,6,-8
1499877265012712,2,0,1,10,6,-2,-15,1
1499877265033776,-3,-1,3,2,16,8,-5,-4
1499877265033776,-2,3,2,-3,0,0,-12,2
1499877265035704,-9,2,4,18,-3,2,80,-58
1499877265035704,0,-3,-6,-17,-5,-15,-56,25
1499877265047766,2,-3,-1,3,7,6,5,18
1499877265047766,1,-2,10,-6,-8,3,8,3
1499877265056739,-2,0,-2,-4,14,-1,-19,12
1499877265056739,-2,-2,4,-2,-16,-3,-8,-10
1499877265071786,2,0,0,23,1,-7,-14,-19
1499877265071786,4,-2,-11,-48,-4,-4,7,50
1499877265072716,-3,-2,0,-8,6,-2,-14,-4
1499877265072716,-2,0,-4,-3,-14,0,23,9
1499877265095709,4,6,-5,9,10,4,2,3
1499877265095709,-10,-4,17,8,7,-3,-10,-26
1499877265096709,-5,-2,-4,-3,3,1,24,-28
1499877265096709,6,-5,-4,1,11,-2,-24,39
1499877265116752,-7,-2,12,-10,-8,-6,-13,3
1499877265116752,-1,2,-8,5,-13,11,60,-8
1499877265117721,0,1,3,21,9,-4,-37,-16
1499877265117721,-7,-1,-6,-28,-8,-9,-7,-13
1499877265131731,-6,-4,13,-7,-2,10,17,-34
1499877265131731,18,-2,6,8,9,-7,-15,53
1499877265132711,-14,-2,10,-7,-3,0,-9,1
1499877265132711,-2,-1,-6,8,12,0,1,-8
1499877265153769,-1,-1,-3,-5,-17,-6,9,12
1499877265153769,-2,1,-3,-2,-4,2,-25,-18
1499877265155712,5,-1,-13,8,2,1,-2,-30
1499877265155712,-5,2,7,9,11,1,4,2
1499877265176753,0,-5,3,-3,-9,-10,4,15
1499877265176753,-8,0,6,-13,-7,-1,-4,-32
1499877265177714,7,3,-10,-5,-15,1,-7,13
1499877265177714,-3,-3,8,1,8,-1,-4,-25
1499877265191758,4,3,3,2,9,-3,-12,10
1499877265191758,-4,-4,1,16,3,-4,12,-4
1499877265192713,-2,-3,-4,-2,3,-1,-2,5
1499877265192713,5,-1,-3,-9,-11,-1,-9,11
1499877265213782,1,6,-105,29,0,3,11,-3
1499877265213782,0,0,21,-29,5,-6,-14,-9
1499877265215714,-3,-6,35,-19,-8,-1,-10,-7
1499877265215714,-6,-2,13,13,-1,9,22,-12
1499877265236767,2,0,54,-6,11,-1,-31,25
1499877265236767,-4,2,18,11,-11,2,13,-25
1499877265237717,4,-3,20,-3,2,-8,-16,31
1499877265237717,-6,-3,21,-5,4,1,6,-27
1499877265251782,-1,-3,23,3,-4,2,4,-50
1499877265251782,-5,-2,6,5,-6,-3,-7,-2
1499877265252720,3,1,6,-4,7,1,-3,10
1499877265252720,-5,-5,-8,3,-22,-7,-6,-10
1499877265273767,-5,-3,6,10,19,1,6,-3
1499877265273767,2,-2,-15,-14,5,5,-7,-34
1499877265275718,-2,2,-6,2,3,2,9,-2
1499877265275718,5,-2,1,-2,-3,-6,2,15
1499877265296768,0,-1,16,-14,-16,-4,-6,1
1499877265296768,2,0,-11,12,-1,1,7,19
1499877265297721,0,1,-32,7,8,10,15,-4
1499877265297721,1,-1,-5,-3,12,-5,-13,-6
1499877265310763,0,-1,16,0,-6,-4,9,3
1499877265310763,-3,-1,-10,23,6,2,-12,-9
1499877265317765,-2,0,-13,-19,-14,-2,3,-10
1499877265317765,1,-1,-35,1,-11,5,1,-10
1499877265333768,2,-2,31,-12,11,-3,4,3
1499877265333768,1,1,20,0,-5,1,-10,11
1499877265335723,-4,-4,37,13,11,-8,13,-7
1499877265335723,-5,-5,33,1,-3,-8,-21,1
1499877265356763,-6,-6,-25,-20,-26,-5,-4,14
1499877265356763,-9,-2,-15,-4,-13,4,3,1
1499877265357724,6,5,-16,10,22,7,21,10
1499877265357724,2,4,-2,6,14,2,3,8
1499877265370795,-3,-5,12,-8,-1,1,-1,-27
1499877265370795,-2,-5,-2,-1,-10,-4,2,-12
1499877265377771,-5,-3,-10,-4,-9,-3,-8,-10
1499877265377771,6,3,-4,-4,2,-5,-4,-2
1499877265393795,-5,2,14,2,-3,2,15,12
1499877265393795,-4,2,-12,0,2,-2,-2,-60
1499877265395736,0,-2,-15,-4,-1,0,-5,-2
1499877265395736,-2,-1,6,1,1,-2,-2,29
1499877265416768,2,1,3,25,-3,1,1,-2
1499877265416768,-3,-4,-10,-54,-1,-6,-6,9
1499877265417728,-3,-3,-18,4,-5,-5,0,11
1499877265417728,2,0,6,-4,-4,1,4,-10
1499877265430768,-1,0,-16,-7,3,1,-5,-5
1499877265430768,3,-1,4,13,4,-2,2,23
1499877265437812,-1,-4,2,2,-7,-2,-18,2
1499877265437812,6,0,-14,-7,-5,1,-7,17
1499877265453794,3,1,-7,6,6,2,27,4
1499877265453794,2,3,-5,12,3,-4,-10,-2
1499877265455729,-4,0,5,-2,3,5,14,-4
1499877265455729,-3,-4,8,5,6,-4,-4,-1
1499877265476783,-5,-1,0,-5,-5,0,0,-4
1499877265476783,1,-3,-9,-3,-1,-3,4,8
1499877265477732,2,-4,0,-8,-13,-6,-3,-11
1499877265477732,-4,-1,1,-1,-6,-1,-41,24
1499877265490771,1,-3,-3,0,12,8,42,-2
1499877265490771,1,-4,4,2,-4,-4,-2,43
1499877265497799,0,1,0,-4,-4,0,8,-3
1499877265497799,-1,-2,-5,-3,3,1,6,-15
1499877265513759,-2,-1,1,17,0,-1,-19,-4
1499877265513759,-1,1,1,-10,13,4,-9,-1
1499877265515752,0,-1,-7,-5,-12,-3,-4,7
1499877265515752,-2,-2,-29,-5,0,-3,1,0
1499877265536777,0,3,-30,-10,0,-3,-10,12
1499877265536777,3,2,-18,15,-10,-1,5,-5
1499877265537734,-1,1,-4,9,0,3,-16,-26
1499877265537734,-2,6,40,-3,11,1,11,-3
1499877265550776,-7,-5,25,-3,-3,-4,-21,-16
1499877265550776,1,-4,20,28,-5,-3,7,-17
1499877265557775,2,3,17,-45,5,1,30,15
1499877265557775,-1,-1,6,9,-3,-4,-11,-10
1499877265573774,-1,1,1,-11,-3,-1,7,-2
1499877265573774,3,3,1,-1,5,6,-9,7
1499877265575740,-6,-7,-6,30,15,-4,-8,-5
1499877265575740,2,-3,-12,3,-2,3,13,-18
1499877265596780,7,-3,5,-2,-13,-4,-4,52
1499877265596780,-10,-7,-9,-1,-2,-3,-20,-29
1499877265597738,0,2,-4,3,7,1,0,1
1499877265597738,-9,-3,6,0,2,-4,4,-6
1499877265609811,3,-1,7,-8,-8,-1,-5,7
1499877265609811,-1,0,-5,7,-9,-3,6,12
1499877265618756,2,1,-12,0,1,1,-11,-7
1499877265618756,-1,-3,7,-3,1,1,12,-16
1499877265633762,-3,0,-3,4,2,0,-38,-19
1499877265633762,-4,-6,2,-7,-1,-3,21,1
1499877265635739,0,-2,0,-6,-4,2,9,5
1499877265635739,2,8,-9,3,-10,5,-3,3
1499877265656785,-6,-2,-1,1,7,-2,-13,4
1499877265656785,-5,-1,-4,-5,9,0,2,-22
1499877265657741,-9,-2,-2,-4,-8,-7,-11,-18
1499877265657741,6,-1,-2,15,-7,-8,-33,18
1499877265669817,1,4,-2,-7,-7,3,34,-1
1499877265669817,-7,1,-1,-8,-1,-3,-4,44
1499877265678793,-6,-2,1,7,-1,5,2,-22
1499877265678793,-3,-2,-9,-7,11,1,1,-7
1499877265693779,-9,-6,19,5,-1,-5,2,-14
1499877265693779,10,1,0,2,-15,0,0,24
1499877265695744,2,1,4,1,1,1,-4,17
1499877265695744,-8,-2,-6,6,3,0,-4,-23
1499877265716787,5,-1,-15,-9,-1,0,-5,1
1499877265716787,-1,2,-6,-3,12,5,21,-14
1499877265717745,5,0,10,2,-5,-5,-22,23
1499877265717745,-1,-1,8,-10,-10,-7,2,-6
1499877265729813,2,1,-1,16,-2,4,1,-21
1499877265729813,-3,0,0,-16,8,-1,-2,0
1499877265738763,-1,-2,-7,-1,-2,-5,-10,2
1499877265738763,11,1,-3,-3,2,-1,9,25
1499877265753779,-2,-3,-3,-12,1,1,4,-23
1499877265753779,2,-1,-6,10,-11,-2,-22,31
1499877265755745,6,3,2,5,-2,-1,-11,-2
1499877265755745,-8,-7,10,-13,6,4,39,4
1499877265776816,-2,3,-6,6,1,-1,3,-11
1499877265776816,3,3,-2,1,8,5,4,4
1499877265777748,3,1,3,-5,-3,-6,-10,7
1499877265777748,1,-6,-1,-3,-10,-4,1,4
1499877265789817,3,3,-9,-4,-2,-3,3,13
1499877265789817,-7,-6,4,-2,-10,-4,-3,-17
1499877265798759,-2,2,-2,-6,4,3,15,1
1499877265798759,-5,-1,-7,7,8,2,-7,-10
1499877265813789,-3,-4,-10,-8,-4,-8,-16,2
1499877265813789,1,2,4,0,-10,0,-6,-11
1499877265815768,-7,-4,0,3,3,2,17,-21
1499877265815768,15,-2,-6,-2,2,-1,-4,41
1499877265836751,-4,-2,1,-6,-15,-4,-14,-12
1499877265836751,-2,-2,9,7,20,3,2,-5
1499877265837752,-5,-4,-2,-2,-14,-5,-21,-1
1499877265837752,0,3,-8,0,12,10,25,-5
1499877265849820,-1,1,-1,-4,1,-1,7,5
1499877265849820,3,-6,-4,-7,-7,-6,-7,0
1499877265858769,-3,-3,-1,-2,-4,2,12,11
1499877265858769,-7,-2,-2,-3,-4,-4,-8,-26
1499877265873792,2,2,-4,3,-6,2,-9,-9
1499877265873792,2,3,-6,1,13,4,7,14
1499877265875791,-4,-7,7,-1,4,-3,3,-8
1499877265875791,-2,-1,0,-6,-10,-3,-5,51
1499877265896797,1,-5,-1,-6,-2,-6,0,-5
1499877265896797,7,0,2,0,-8,-1,-8,1
1499877265897755,-3,2,-2,-2,6,-2,5,0
1499877265897755,-4,0,-1,-2,-8,1,-8,-12
1499877265909754,1,0,4,2,6,-1,-2,20
1499877265909754,-1,2,-7,-1,4,0,-5,-1
1499877265918773,0,-4,1,-2,1,-5,-8,6
1499877265918773,-6,-2,9,-2,-19,-5,-7,-41
1499877265933797,-1,2,-1,1,13,4,15,16
1499877265933797,-6,-2,2,-8,-15,-2,-11,-48
1499877265935756,-2,-1,5,24,8,7,23,0
1499877265935756,-6,-3,-4,-38,5,-5,-3,-19
1499877265956800,1,0,-6,-2,-1,0,11,7
1499877265956800,-4,0,-1,3,-3,-1,-14,-7
1499877265957759,2,-2,-6,-11,-4,0,23,24
1499877265957759,7,4,4,13,0,0,-1,10
1499877265969832,-4,-4,2,-1,-8,-3,-3,4
1499877265969832,-3,-4,0,-3,-1,-4,-4,-13
1499877265978828,-3,-2,0,0,-7,-7,-18,-13
1499877265978828,0,-1,0,9,-3,5,9,-1
1499877265994803,-1,-1,-8,-5,5,-1,-9,-16
1499877265994803,1,2,0,4,0,-1,15,13
1499877265995759,0,-3,0,-7,-3,-3,-5,-9
1499877265995759,-2,2,0,3,0,-1,-5,-3
1499877266016803,-2,-2,3,1,2,-2,-8,-5
1499877266016803,-1,-4,7,-6,-8,-6,3,3
1499877266017770,-3,-1,0,-4,-1,-1,-6,-5
1499877266017770,-6,-5,0,-4,-3,0,1,-8
1499877266029833,1,2,0,9,3,3,-6,3
1499877266029833,-5,-2,-13,-3,-2,-8,4,-4
1499877266038773,2,1,-10,-5,10,3,-3,5
1499877266038773,-3,1,0,5,-7,-6,-7,2
1499877266053785,-5,-6,8,-4,-11,-4,3,-8
1499877266053785,10,0,4,-1,-2,0,-3,24
1499877266055767,1,0,1,-6,1,1,-9,-8
1499877266055767,4,-1,-28,2,2,-3,2,-6
1499877266076805,-1,1,-5,-3,2,-2,-6,4
1499877266076805,-4,-1,3,-2,-6,2,7,-4
1499877266077765,-5,-1,3,1,-5,-1,-4,-2
1499877266077765,7,-2,14,5,3,3,10,16
1499877266098805,-4,1,9,-1,-5,-2,-16,-37
1499877266098805,-5,-5,-15,-3,5,-4,6,-8
1499877266100767,2,2,1,4,-8,-6,-12,1
1499877266100767,-5,-2,-6,19,1,2,0,-10
1499877266113813,-3,-2,-8,-43,-2,-3,-9,-3
1499877266113813,-2,-3,4,4,-3,0,5,-4
1499877266115768,-1,0,4,-7,2,4,-2,20
1499877266115768,-2,-3,-1,2,6,-4,-11,3
1499877266136811,-2,-4,2,12,-2,1,30,32
1499877266136811,0,-2,-3,-4,-3,-4,-15,9
1499877266137770,-3,-3,-5,-3,-7,-1,1,-2
1499877266137770,-2,3,6,-2,-2,1,0,-7
1499877266158841,1,1,-4,-5,-2,-4,-16,-2
1499877266158841,-2,-1,0,-2,5,-2,-4,-2
1499877266160769,-1,-2,3,4,-7,0,1,1
1499877266160769,1,-1,-6,-11,-5,1,0,-6
1499877266173820,-1,2,-6,5,5,0,-12,-1
1499877266173820,-4,-2,16,5,6,2,24,-7
1499877266175770,-2,3,5,4,-2,-2,-3,-16
1499877266175770,5,0,-2,-6,-1,-5,-1,33
1499877266196813,-2,-2,-8,0,0,-2,3,1
1499877266196813,4,3,-6,5,-4,2,0,-3
1499877266197773,-1,-4,-1,-2,-6,4,7,-3
1499877266197773,-3,0,-3,-3,9,0,-2,-11
1499877266218839,-2,-2,0,9,5,-4,-18,3
1499877266218839,-2,-1,-5,-4,3,3,12,-22
1499877266220773,-5,-8,-4,-4,-5,-4,1,7
1499877266220773,-3,-3,2,1,-4,-1,0,-5
1499877266233795,-2,-4,-3,6,2,1,15,0
1499877266233795,-3,-1,-4,-12,-13,-7,-18,-8
1499877266239818,4,0,-5,-6,-8,-3,-4,-3
1499877266239818,-5,-3,2,-7,-7,-3,-4,-9
1499877266256812,2,2,-1,0,6,3,4,8
1499877266256812,-6,-3,-1,1,6,-3,-11,-16
1499877266257776,0,-2,-7,2,6,-1,13,-6
1499877266257776,7,0,9,-3,-1,-4,-11,43
1499877266278820,-1,2,6,0,-16,-1,9,-8
1499877266278820,2,3,-2,3,7,4,0,13
1499877266280776,1,0,-6,-1,5,-1,-11,1
1499877266280776,-4,-2,6,4,-3,0,-7,-21
1499877266293800,2,-2,-8,0,2,2,24,3
1499877266293800,-4,0,-4,-8,-4,-1,-14,-5
1499877266299780,-4,-2,12,-2,-3,-3,-10,-8
1499877266299780,0,0,-3,0,-3,2,12,-6
1499877266316822,5,1,-2,2,-3,-2,-10,1
1499877266316822,0,-2,-7,1,-4,-1,-4,11
1499877266317779,2,2,5,-1,7,5,10,5
1499877266317779,-4,-2,-4,-5,2,-1,-5,-6
1499877266338851,-1,-3,-5,-2,-1,0,-7,-20
1499877266338851,-1,-2,-2,4,-5,-5,-12,27
1499877266340779,-4,-1,0,-5,-1,-2,7,-6
1499877266340779,-4,1,0,3,4,0,3,-10
1499877266353802,-5,0,6,-4,-11,0,-11,-10
1499877266353802,2,-1,4,-6,-3,3,11,14
1499877266359851,-1,-2,-46,0,-1,-1,10,12
1499877266359851,-1,0,-7,1,4,0,-3,-5
1499877266376812,-3,-4,11,-6,3,-4,-6,-3
1499877266376812,-2,-2,20,2,-6,-1,-2,-7
1499877266377783,2,1,24,-4,-9,-3,-8,18
1499877266377783,-2,1,0,2,2,1,0,-26
1499877266398823,-7,-1,-14,0,3,-4,13,4
1499877266398823,-5,-5,17,-5,-6,-5,-1,-28
1499877266400784,3,0,1,0,0,1,-3,-4
1499877266400784,4,-2,-13,-4,-5,-3,-8,14
1499877266413796,1,2,-7,3,3,-1,-11,-7
1499877266413796,1,1,-17,1,1,6,31,5
1499877266419848,-4,0,-6,-1,6,3,-8,-16
1499877266419848,-4,-3,-3,-2,-5,1,13,5
1499877266436812,0,-2,-1,-3,-4,-4,0,0
1499877266436812,-1,-1,-2,1,0,-3,-4,0
1499877266437816,-3,0,2,2,-5,2,-5,-10
1499877266437816,0,-4,-3,1,7,0,-6,4
1499877266458826,-2,1,-5,-5,1,-1,2,0
1499877266458826,-5,-4,4,-3,-9,-2,-9,-4
1499877266460820,-1,-4,8,7,1,-1,1,-2
1499877266460820,-1,-1,8,2,6,4,4,-6
1499877266473810,-1,-2,10,-2,-4,-3,-1,4
1499877266473810,2,1,0,-3,0,-5,-16,3
1499877266479830,0,3,7,3,-1,2,15,-2
1499877266479830,-5,-4,-8,-9,-8,-2,20,-3
1499877266496811,1,-2,1,1,-2,1,-19,18
1499877266496811,-1,4,-6,3,1,0,-15,-2
1499877266497788,2,-3,-12,-10,0,-5,-11,16
1499877266497788,2,-2,-6,3,1,5,28,13
1499877266518853,5,0,0,1,-5,-1,7,-1
1499877266518853,-5,-2,-7,-1,1,2,9,-8
1499877266520790,3,-2,-6,-4,-1,-6,-15,18
1499877266520790,-4,1,-13,-2,-2,-4,-25,-23
1499877266533816,-3,-4,8,0,5,1,12,-13
1499877266533816,1,-5,-10,2,-1,-2,-7,7
1499877266539793,-3,-3,1,-2,0,-1,12,-9
1499877266539793,-1,-2,-12,-4,-6,-2,-20,6
1499877266556812,-4,4,-8,0,2,3,0,-6
1499877266556812,-2,-1,6,1,6,0,3,-4
1499877266557800,-3,0,12,-1,-2,-3,13,-11
1499877266557800,-2,6,19,7,3,1,-26,-9
1499877266578835,-1,-6,-1,-8,-10,0,16,5
1499877266578835,2,1,-2,-2,-6,2,5,7
1499877266580793,-4,-1,3,-4,-1,-3,-1,-1
1499877266580793,1,-3,7,-2,-1,-3,-3,-1
1499877266592834,-1,1,-4,1,-2,-2,-6,1
1499877266592834,-1,3,6,1,5,-1,-2,4
1499877266601796,1,-4,-10,-1,-1,-2,-3,-2
1499877266601796,-1,0,-9,-1,-7,-5,15,3
1499877266616847,-2,1,3,1,2,-1,-12,-2
1499877266616847,3,5,-2,3,3,5,6,1
1499877266617797,-6,-4,5,1,-4,-5,-21,-21
1499877266617797,4,-2,1,-3,4,-3,-1,35
1499877266638859,-3,0,-10,0,-5,0,-14,-18
1499877266638859,2,2,0,-2,-2,-2,-9,-16
1499877266640813,2,-1,-3,-2,-2,-1,19,17
1499877266640813,-1,-1,-2,-2,0,2,-8,-17
1499877266652811,-3,-1,-1,-1,3,-2,2,-5
1499877266652811,-3,-1,-5,-2,-5,-1,-2,-2
1499877266661799,-5,1,-6,1,-3,2,-9,2
1499877266661799,0,2,-1,-2,-2,-1,-10,-5
1499877266676819,2,-4,-4,-7,-2,-3,-1,29
1499877266676819,0,-2,4,-4,-7,-2,5,7
1499877266677800,1,2,6,6,13,2,-3,-28
1499877266677800,-2,0,-7,-3,-3,-3,-6,-3
1499877266698839,-1,0,-3,0,4,-3,1,-3
1499877266698839,-1,-2,0,0,-1,-6,-1,2
1499877266700811,1,0,9,-1,-8,0,11,12
1499877266700811,-3,-2,0,-3,-5,-1,-3,-7
1499877266712843,1,2,14,3,11,0,6,1
1499877266712843,-1,-2,1,0,-1,-3,-11,-13
1499877266721804,2,2,-1,1,-7,-1,-4,7
1499877266721804,-2,-4,2,-7,-7,0,-1,-11
1499877266736814,1,1,1,1,2,5,0,10
1499877266736814,-2,-1,-4,1,6,1,22,2
1499877266737827,-3,-1,-8,-2,-8,-1,-16,-7
1499877266737827,-5,0,8,1,9,0,-7,-17
1499877266758848,9,-2,-9,-2,-10,-3,-7,44
1499877266758848,-2,-5,-3,-5,3,-2,-2,10
1499877266760804,-5,-5,-3,-6,-1,-5,16,-19
1499877266760804,3,2,8,5,-4,1,6,13
1499877266772844,0,-2,-5,-4,-2,-4,-9,-24
1499877266772844,0,-1,-1,0,4,0,-1,7
1499877266781808,2,-5,-7,-5,-4,-3,-5,21
1499877266781808,-3,-3,-3,-2,-5,0,6,2
1499877266796817,-4,0,-5,-1,-2,1,8,-7
1499877266796817,-3,-4,-4,-2,-4,-2,-2,-1
1499877266797812,-1,0,-2,-4,-5,-4,-2,-11
1499877266797812,-1,-1,2,-4,-13,-2,-2,0
1499877266818877,-1,-2,-2,1,7,4,1,-3
1499877266818877,-2,-3,-4,-6,3,0,-1,-3
1499877266820808,3,2,7,0,4,2,2,-11
1499877266820808,-5,-4,-5,1,3,-4,-2,17
1499877266832848,0,1,-1,1,-12,-4,9,-4
1499877266832848,-9,-2,8,2,2,0,-12,-4
1499877266841823,-4,-1,-11,-4,-1,0,-8,-6
1499877266841823,1,1,-8,0,1,2,5,-3
1499877266856820,-5,-5,9,-1,1,-1,-7,-16
1499877266856820,3,3,0,-1,2,1,7,2
1499877266857846,1,0,-4,-4,-5,-4,-14,11
1499877266857846,-3,0,0,2,1,-1,-17,1
1499877266878875,-2,-1,-8,-2,3,2,14,0
1499877266878875,3,-1,2,1,-3,-2,0,3
1499877266880844,-2,0,0,-1,1,-2,0,-2
1499877266880844,6,-2,3,-1,-9,-3,0,19
1499877266892852,2,-2,4,4,6,-2,-11,-1
1499877266892852,1,3,-2,2,0,3,13,-3
1499877266901814,2,0,-1,1,-1,1,-11,15
1499877266901814,-1,-3,4,1,11,-2,12,3
1499877266916824,-5,-1,-2,-5,-9,-4,2,-14
1499877266916824,1,4,-3,1,-8,-1,-10,-5
1499877266917814,1,1,-1,0,-1,2,18,-6
1499877266917814,-7,-1,9,0,-8,-6,-3,-7
1499877266938873,-1,-4,0,-3,2,0,-6,2
1499877266938873,-1,-3,-6,-2,-1,-3,-5,-9
1499877266940847,-1,2,4,-4,-6,1,-2,4
1499877266940847,2,1,-2,1,0,2,-3,-10
1499877266952854,-4,2,3,4,-1,0,4,0
1499877266952854,-6,-2,0,0,1,-5,-4,-15
1499877266961816,-2,-2,-4,1,5,-4,-5,-11
1499877266961816,0,-3,-4,-9,-2,-3,1,-9
1499877266983863,-3,3,0,1,-10,1,-15,-8
1499877266983863,4,0,-4,-5,1,-1,24,6
1499877266985817,-3,-2,5,5,2,2,-9,-7
1499877266985817,3,2,-1,3,9,0,-9,3
1499877266998859,-2,-3,0,-5,1,-1,0,-2
1499877266998859,-5,-5,-5,-2,-6,-1,-1,9
1499877267000821,2,0,-10,-3,-5,-3,-11,7
1499877267000821,-9,-2,-1,2,7,4,10,-43
1499877267021859,0,-1,3,2,-5,-6,2,2
1499877267021859,-2,1,1,2,-3,0,-8,5
1499877267022821,-3,-2,-1,0,8,3,8,1
1499877267022821,3,1,-7,-6,-6,-3,-6,3
1499877267036831,0,-4,-2,-1,6,3,1,3
1499877267036831,-1,-5,1,-2,-4,-2,-13,-9
1499877267037821,3,2,-4,-1,-3,1,11,-1
1499877267037821,1,-3,7,0,-2,2,11,7
1499877267058865,-4,-7,-2,-3,2,-5,-30,-7
1499877267058865,-1,1,0,-1,-1,-6,-2,0
1499877267060822,-2,-1,-3,1,0,2,19,4
1499877267060822,0,0,-3,1,4,0,-7,1
1499877267081822,0,-4,-1,-3,-8,-1,16,3
1499877267081822,1,-1,1,0,4,-1,-28,9
1499877267082824,0,-3,2,0,4,-1,3,13
1499877267082824,-1,-1,-3,1,-6,3,21,-7
1499877267096824,-1,-1,-2,-2,-5,-5,-13,-4
1499877267096824,-2,1,-6,-4,0,0,18,-7
1499877267097834,0,1,0,-3,-6,-4,-7,4
1499877267097834,0,1,-6,-3,-5,-6,-11,22
1499877267118837,1,2,4,3,-3,6,16,-3
1499877267118837,0,-4,7,-2,2,3,4,-5
1499877267120825,-2,-2,3,1,4,-3,15,0
1499877267120825,3,-1,-3,-4,-11,-7,-7,-6
1499877267141836,1,3,-1,0,4,0,2,14
1499877267141836,-3,-1,-1,0,-1,-1,0,-6
1499877267142827,0,1,0,1,0,-5,-31,-14
1499877267142827,-2,-1,1,6,1,2,14,7
1499877267156838,-1,2,-8,-3,-1,-6,-11,-2
1499877267156838,1,3,-2,2,1,-1,3,3
1499877267157826,1,-3,-1,-4,-4,1,11,4
1499877267157826,-6,-4,-3,-3,0,-7,-9,-16
1499877267178870,3,3,0,3,-6,3,1,-1
1499877267178870,-2,-8,-2,-6,-4,1,11,12
1499877267180828,-3,-1,-4,-2,2,-1,-3,-8
1499877267180828,3,3,4,0,2,-2,-3,5
1499877267201861,4,1,2,-1,0,-3,6,-19
1499877267201861,-1,0,-9,-2,-11,-2,-21,-7
1499877267202830,-1,-2,4,2,2,-1,-10,-1
1499877267202830,-1,-4,-2,0,7,7,54,26
1499877267215872,-5,-5,1,-1,-6,-4,-29,1
1499877267215872,2,-1,0,0,-5,-2,13,-14
1499877267222873,-3,3,-1,1,3,1,-5,-9
1499877267222873,-4,-3,-3,-2,2,-3,-5,-12
1499877267238875,-2,-2,6,-1,4,1,11,3
1499877267238875,3,1,2,6,-1,-1,-4,14
1499877267240865,-7,1,-2,-3,-12,-2,-1,-13
1499877267240865,-1,1,4,1,-1,-1,-19,-5
1499877267261853,-2,-4,-4,-2,3,3,15,8
1499877267261853,-2,-3,-2,3,9,-1,-9,-14
1499877267262836,2,-6,-10,-4,-3,-1,-3,14
1499877267262836,2,0,9,-4,-13,-1,-13,0
1499877267275835,0,2,-1,-1,0,-5,-15,-4
1499877267275835,3,0,-6,-1,4,-2,14,32
1499877267289925,-2,-3,4,-1,2,2,-3,1
1499877267289925,-3,-4,-3,-2,0,0,17,-14
1499877267298873,-4,-5,4,3,5,-1,-7,6
1499877267298873,1,-1,-4,-6,-7,-7,-39,-4
1499877267300846,-1,-1,-5,-4,-7,-6,16,1
1499877267300846,-2,-1,-4,2,1,6,-17,1
1499877267321874,4,5,-1,0,4,-4,11,1
1499877267321874,-5,-3,-6,-4,-1,2,-22,-15
1499877267322837,-6,-3,1,-3,4,5,21,-11
1499877267322837,2,-1,-2,-3,-13,-4,-5,17
