timestamp,emg1,emg2,emg3,emg4,emg5,emg6,emg7,emg8
1499877200358931,22,2,-36,-12,-4,-1,-20,29
1499877200358931,-17,6,6,5,3,-7,-71,-60
1499877200362921,13,0,-18,-3,-6,-4,23,34
1499877200362921,0,-8,7,-6,0,10,61,-11
1499877200364911,16,46,19,20,7,5,-43,23
1499877200364911,19,-52,44,-14,-5,9,91,2
1499877200365910,-43,0,-3,2,6,-1,-61,1
1499877200365910,8,9,-1,6,3,-5,-91,-78
1499877200368920,-45,-45,-15,-32,-16,-25,18,-72
1499877200368920,11,17,-13,-10,-5,9,69,-34
1499877200379911,-72,3,17,10,-2,-2,-32,27
1499877200379911,6,-27,-15,-15,-5,-7,24,31
1499877200391959,18,13,-12,0,-1,4,-84,119
1499877200391959,44,-25,-23,-14,-9,-47,-128,-42
1499877200399932,8,3,1,3,-9,15,127,39
1499877200399932,-28,-24,-56,-29,-21,1,43,127
1499877200406932,-31,15,4,4,10,14,12,-46
1499877200406932,19,2,-15,4,9,-5,19,-19
1499877200428956,14,11,49,-1,5,3,23,-4
1499877200428956,-37,-33,-17,16,0,-20,-35,-88
1499877200429917,36,21,3,3,-2,1,35,6
1499877200429917,-36,22,-3,-6,-4,-8,-76,27
1499877200475915,-12,4,34,-64,-16,-13,-96,16
1499877200475915,-3,-18,-42,-47,-53,20,92,48
1499877200476936,-23,-22,-12,-4,2,0,-99,-25
1499877200476936,-12,7,8,25,25,-3,-12,-95
1499877200477915,2,-14,-37,87,37,0,112,107
1499877200477915,-43,-17,1,-87,-51,-30,-8,-7
1499877200480921,-4,-8,53,9,19,22,-4,36
1499877200480921,-21,-12,-18,-16,7,3,-34,-66
1499877200487916,-29,-9,-18,3,-8,-11,-38,39
1499877200487916,-64,8,32,22,32,6,53,-118
1499877200496922,-21,-13,-6,19,-13,-50,-68,38
1499877200496922,-33,-11,-7,-46,-21,9,61,67
1499877200502938,22,0,8,-49,-15,20,59,-4
1499877200502938,-84,-23,-25,-9,-7,0,12,-48
1499877200519919,6,36,8,57,16,31,124,75
1499877200519919,-28,2,10,13,23,-22,-114,-70
1499877200525966,-46,-4,2,-47,-62,-5,-26,-48
1499877200525966,67,19,27,39,38,9,-15,-3
1499877200548979,33,6,45,49,13,-6,-49,-34
1499877200548979,-16,37,-4,31,-37,-16,42,-5
1499877200549926,10,-11,-34,-92,19,11,13,-16
1499877200549926,29,0,2,60,17,0,-40,67
1499877200563960,2,13,3,-77,9,11,2,-39
1499877200563960,26,-6,-33,49,2,0,-28,23
1499877200564923,41,22,27,-29,5,-21,-115,9
1499877200564923,24,-8,28,-15,-8,-10,-3,67
1499877200586932,-84,-6,-20,-28,-24,-1,80,-116
1499877200586932,25,0,-13,-21,2,9,-42,127
1499877200586932,11,-1,-24,59,6,2,-46,1
1499877200586932,12,11,-4,-27,22,2,-40,-9
1499877200608967,13,-5,-25,12,-1,11,94,107
1499877200608967,60,-6,5,-24,-17,3,-20,72
1499877200609938,-49,-31,-31,17,-18,-8,-40,-33
1499877200609938,24,16,-19,12,19,-2,-49,5
1499877200631935,26,-5,-11,3,-4,-19,-128,80
1499877200631935,21,5,11,5,13,29,127,-57
1499877200631935,12,11,11,24,-4,-8,-17,-36
1499877200631935,1,2,-5,6,-6,1,-42,-14
1499877200646929,13,13,-26,-12,3,-5,17,-5
1499877200646929,-11,-13,20,-76,-8,0,12,-35
1499877200646929,12,16,15,9,2,-7,-4,-11
1499877200646929,-2,-2,25,65,0,7,-15,-45
1499877200669001,17,2,-28,16,2,-6,-4,-34
1499877200669001,-18,-12,9,-53,-9,-7,-3,-36
1499877200669938,-3,6,12,24,2,3,43,-22
1499877200669938,12,6,-30,-3,5,3,-33,-11
1499877200684940,23,-7,1,0,-27,-5,84,56
1499877200684940,-1,14,7,0,0,-5,11,20
1499877200685931,3,-8,8,31,0,6,17,62
1499877200685931,6,6,-4,-37,4,2,17,-34
1499877200706942,2,-16,9,4,5,4,-52,-20
1499877200706942,10,-33,0,13,-9,-15,-83,18
1499877200706942,2,3,6,-28,6,3,30,-8
1499877200706942,13,11,-18,15,-11,0,61,93
1499877200728946,-20,-5,2,-10,-9,-7,36,-52
1499877200728946,6,4,13,-23,-2,1,-12,7
1499877200729934,-1,-7,35,13,5,9,-33,-41
1499877200729934,-11,-16,5,-6,-7,-6,-63,18
1499877200743973,-12,-3,-11,-28,3,2,13,-2
1499877200743973,8,15,-22,35,17,5,-4,17
1499877200744964,10,-7,7,19,-3,4,39,30
1499877200744964,8,6,21,-30,-16,-7,-23,40
1499877200766946,-17,1,3,-38,1,-3,1,-21
1499877200766946,-31,0,-4,18,0,-7,-23,-80
1499877200766946,2,13,5,20,20,9,40,-3
1499877200766946,8,-17,0,14,2,3,-31,-16
1499877200788999,7,-2,-10,8,-13,-3,-30,-7
1499877200788999,-14,-8,-5,-24,-7,0,31,13
1499877200789938,4,22,-13,-10,7,-3,-59,12
1499877200789938,2,0,-8,4,11,3,55,-28
1499877200803987,1,8,6,1,0,-4,-87,-77
1499877200803987,-5,16,21,45,2,6,90,2
1499877200804971,-10,-3,-19,-8,-3,-7,-14,-13
1499877200804971,1,-3,0,2,-12,-15,-19,18
1499877200826944,1,12,-6,-2,-2,5,3,12
1499877200826944,7,3,-12,-1,0,-5,-53,37
1499877200826944,12,2,-3,3,9,5,4,-28
1499877200826944,-29,-8,6,-18,6,0,41,-27
1499877200848979,-5,-8,-1,49,-5,-3,-17,4
1499877200848979,-4,-24,-8,-57,2,-2,-16,-13
1499877200849939,0,-12,3,-42,-24,-8,-2,-28
1499877200849939,7,-13,1,-5,-4,0,29,4
1499877200863972,32,4,0,-19,5,7,-40,65
1499877200863972,-34,-8,17,52,-1,2,45,-12
1499877200864941,-3,-2,-11,-35,8,0,-10,15
1499877200864941,1,1,-10,-1,-6,-8,-15,5
1499877200886016,6,-18,6,15,5,4,-11,-15
1499877200886016,10,4,-17,-12,-5,0,-20,-12
1499877200886977,-9,0,32,23,6,6,45,10
1499877200886977,-9,4,2,6,4,-2,-21,-4
1499877200908985,4,13,-14,-19,-22,3,17,8
1499877200908985,7,0,0,12,16,4,8,8
1499877200909958,-7,1,2,13,-5,-6,-21,-25
1499877200909958,8,23,-7,-25,-5,6,3,5
1499877200924016,-12,-15,-3,-11,1,-8,7,-16
1499877200924016,8,37,12,11,-8,-6,-26,-5
1499877200924945,0,0,33,29,2,0,8,-3
1499877200924945,-9,-7,-17,-30,-13,-7,-13,-10
1499877200946001,0,-3,-32,-18,-6,-8,-35,-11
1499877200946001,16,1,1,5,-4,0,33,95
1499877200946956,-11,-19,-5,1,6,0,3,13
1499877200946956,2,12,18,25,7,6,-5,-63
1499877200968989,-26,-1,-4,-14,-3,3,5,-24
1499877200968989,1,-1,-6,-13,1,-8,-19,-17
1499877200969947,-2,6,4,13,-2,2,30,-33
1499877200969947,9,-5,-15,6,-1,5,-28,1
1499877200983997,-30,-1,22,-8,3,3,87,-20
1499877200983997,-4,-7,15,6,-7,-10,-36,-44
1499877200984949,-7,10,-33,-20,1,-8,-12,-12
1499877200984949,-6,3,6,7,5,0,-22,-47
1499877201006960,14,4,-2,37,1,-5,-8,7
1499877201006960,19,-23,14,-26,-13,-2,-38,38
1499877201006960,-6,2,-16,-15,-4,0,25,11
1499877201006960,1,-13,35,8,14,8,-11,36
1499877201029029,3,-8,2,-19,-6,-9,-16,51
1499877201029029,-13,7,-1,25,1,-1,-12,-61
1499877201029986,26,-7,5,-6,-9,-8,-37,12
1499877201029986,-32,-6,-25,-25,-6,-1,48,18
1499877201042995,-8,5,-2,-9,3,-3,21,-16
1499877201042995,-4,-5,7,3,1,4,10,20
1499877201050995,8,-7,-3,-25,-1,3,-5,39
1499877201050995,0,3,-28,10,-3,-4,-7,-24
1499877201065995,0,0,19,-3,0,-9,-43,-55
1499877201065995,5,24,9,38,11,5,6,30
1499877201066988,-5,-4,-10,-21,-9,1,17,30
1499877201066988,37,2,13,-14,-7,-7,-7,22
1499877201088996,-49,6,15,1,11,6,1,-17
1499877201088996,-1,-5,4,-5,2,4,-18,22
1499877201089982,-15,-6,22,29,-5,-6,-22,-59
1499877201089982,5,-3,6,-3,-1,0,-6,27
1499877201102960,17,-2,0,4,4,4,42,-1
1499877201102960,16,-6,10,6,-7,-8,-42,-29
1499877201110970,-7,-13,-31,-11,4,12,51,-19
1499877201110970,-6,-12,5,10,-5,-8,13,-14
1499877201126967,9,-8,13,19,4,2,-11,-5
1499877201126967,-31,-16,8,-23,-1,-7,-28,-25
1499877201126967,8,1,-2,-9,-6,-5,-20,11
1499877201126967,-6,11,-10,95,6,-6,-18,12
1499877201148958,12,1,7,1,-9,9,29,112
1499877201148958,13,-1,-7,-42,-5,-9,-13,4
1499877201149957,3,6,-15,13,3,4,40,-45
1499877201149957,46,21,20,29,4,3,-15,23
1499877201162986,21,9,-26,13,2,-2,-46,25
1499877201162986,-5,-2,20,-70,-15,-1,10,-24
1499877201171024,-6,2,-7,9,21,0,16,10
1499877201171024,-4,-10,8,2,2,6,27,28
1499877201186970,11,-8,5,-39,-5,-8,-9,-33
1499877201186970,11,4,-2,28,-11,4,44,30
1499877201186970,-15,2,-1,-42,-3,0,-37,-39
1499877201186970,-17,2,17,-10,5,3,5,-32
1499877201209003,-10,0,16,-22,-4,-3,9,-32
1499877201209003,-28,0,-7,38,12,-1,11,-28
1499877201209978,-2,0,1,20,-16,-9,-31,6
1499877201209978,20,6,-25,-20,-11,-5,12,89
1499877201223988,-6,7,-40,-34,3,1,-19,32
1499877201223988,10,-6,-7,-4,-8,5,39,48
1499877201230989,5,-15,13,65,7,4,-4,0
1499877201230989,-16,-11,9,-80,-9,-6,-15,20
1499877201246964,6,6,6,62,4,-6,-18,-5
1499877201246964,20,0,-7,-29,-3,0,16,-53
1499877201246964,-16,-6,-3,-12,-4,-1,15,-26
1499877201246964,-11,1,-16,13,9,6,-2,-41
1499877201269031,-5,-4,11,7,-5,1,-22,-11
1499877201269031,-10,-11,0,6,9,-4,-2,-17
1499877201269991,13,0,3,-5,-21,-11,-38,78
1499877201269991,-17,-5,14,-16,-3,7,3,-39
1499877201283003,23,4,0,13,-3,-1,-15,-20
1499877201283003,14,-1,-9,7,9,2,1,56
1499877201291008,7,6,0,-32,-4,-4,-9,32
1499877201291008,-11,-3,-11,-9,1,-4,-3,21
1499877201306978,9,-4,8,28,1,-2,47,43
1499877201306978,-12,-1,3,-21,-13,-6,-22,-20
1499877201306978,-10,-10,6,44,6,-1,0,-49
1499877201306978,-1,-7,1,-19,-1,3,43,-71
1499877201329011,-15,6,59,25,2,4,-3,-46
1499877201329011,-27,7,-3,-14,1,-9,-26,-91
1499877201329969,-1,-16,-16,3,4,5,12,10
1499877201329969,-1,8,-12,-11,-9,-5,-12,0
1499877201343003,-9,-2,-6,15,2,-3,10,56
1499877201343003,-9,1,-6,-22,-4,6,13,-16
1499877201351031,8,19,1,-7,7,7,2,-10
1499877201351031,-6,-12,-5,15,1,-10,-29,-11
1499877201366038,5,-5,-10,-22,-10,-8,3,9
1499877201366038,0,-4,-8,-12,-10,2,10,52
1499877201367005,-16,-3,23,-41,-1,-7,-7,31
1499877201367005,5,-5,1,32,-6,-6,-29,19
1499877201389015,31,2,1,-73,-1,2,19,38
1499877201389015,-8,-6,16,46,12,5,-4,-1
1499877201389973,13,6,-2,34,5,1,0,-21
1499877201389973,5,1,-17,-21,-5,-7,2,42
1499877201403011,-8,-6,6,-26,-9,-5,-23,-11
1499877201403011,-7,3,-16,32,7,6,27,-51
1499877201411036,18,11,-5,-18,-7,-7,-47,29
1499877201411036,-11,-3,10,9,9,8,40,-5
1499877201426984,-9,-4,-8,-1,2,5,12,-28
1499877201426984,4,-4,11,10,-7,-2,-16,-5
1499877201426984,-14,-1,-10,22,2,-2,-5,-22
1499877201426984,-4,-1,-3,2,1,1,-6,-13
1499877201449025,-9,-5,7,-37,2,-2,-8,-49
1499877201449025,23,8,3,1,-14,-2,1,75
1499877201449976,-18,-7,14,0,2,5,10,-47
1499877201449976,-5,-2,16,8,0,-4,-14,-44
1499877201471022,-12,11,-5,22,7,-1,3,-2
1499877201471022,29,5,-19,8,11,1,4,71
1499877201472018,-8,-4,12,-28,-19,-1,21,-1
1499877201472018,0,-4,-19,15,-1,-1,10,11
1499877201495018,7,2,-1,-8,-2,1,0,36
1499877201495018,-29,-4,5,8,0,-5,-17,11
1499877201495978,0,-3,14,-19,1,-1,-11,16
1499877201495978,21,4,-22,-40,-18,-6,18,49
1499877201509040,-16,-4,7,8,5,2,4,-40
1499877201509040,-16,-4,5,-7,-1,-7,-32,44
1499877201509979,21,10,-12,38,4,8,34,29
1499877201509979,-6,0,-13,15,17,4,-23,-27
1499877201531995,-7,-12,19,-3,-14,-2,-7,-27
1499877201531995,-7,-4,-4,-41,-21,-12,-6,-25
1499877201531995,-1,5,-1,13,11,0,16,60
1499877201531995,2,6,-5,-8,-1,1,14,-14
1499877201555023,-42,-1,5,15,2,-4,9,-51
1499877201555023,26,5,10,80,19,7,-6,-78
1499877201555997,8,5,-19,-43,-6,-3,-5,37
1499877201555997,-13,-1,8,-22,-11,1,12,-30
1499877201569025,7,-6,22,-53,-9,-2,-28,8
1499877201569025,5,-1,7,29,2,0,17,25
1499877201569981,-4,-2,-17,-17,9,-5,-19,-17
1499877201569981,-2,-2,-3,4,-4,3,6,-27
1499877201591023,26,0,8,1,-11,-4,-26,59
1499877201591023,-22,-1,-10,-11,4,-1,14,-51
1499877201591991,10,3,-1,-7,-4,2,-2,-20
1499877201591991,-7,-14,12,37,5,0,-16,64
1499877201615016,6,5,-18,7,-1,0,-1,-39
1499877201615016,-1,0,1,-45,-18,-6,10,6
1499877201615985,-7,-2,5,25,6,-3,3,-7
1499877201615985,0,3,-6,-7,-5,-8,-39,-76
1499877201628051,-8,-8,-11,16,2,0,38,-21
1499877201628051,21,-3,-3,0,13,5,-30,0
1499877201636997,6,-3,-3,20,-2,6,-1,20
1499877201636997,14,-1,1,-69,-14,-2,-30,30
1499877201652008,5,-2,6,21,5,-1,4,16
1499877201652008,3,-4,-13,-7,2,-3,5,52
1499877201652008,-16,-8,15,-37,-18,-10,-7,-40
1499877201652008,0,0,-4,29,1,-2,-15,-30
1499877201674988,-9,-5,-17,-30,-6,3,12,56
1499877201674988,-10,-11,-5,40,23,2,17,3
1499877201674988,4,3,-3,-35,-22,-2,-7,-17
1499877201674988,-1,1,21,6,-4,-5,21,26
1499877201688016,-20,6,12,2,-3,0,9,-24
1499877201688016,3,-2,-27,-1,4,2,-3,-10
1499877201696988,-13,-6,9,26,13,-8,-13,-21
1499877201696988,0,6,12,8,14,5,0,-1
1499877201711001,16,0,0,-6,-9,-3,-2,-50
1499877201711001,0,-3,10,-2,-9,-6,-22,9
1499877201712000,-1,3,-6,26,5,7,32,-53
1499877201712000,-9,-2,-7,-31,-11,2,11,-8
1499877201735018,3,-4,-16,39,10,-7,-49,-29
1499877201735018,-12,2,3,-28,-5,5,14,-47
1499877201735993,1,0,-3,9,0,-6,-7,-5
1499877201735993,-2,4,8,13,3,-2,8,-21
1499877201748059,-10,-4,-11,-2,-1,4,-8,-19
1499877201748059,-2,-5,-16,-12,1,-3,1,2
1499877201757001,3,-5,3,0,-8,-1,-7,25
1499877201757001,14,0,-1,-39,0,-3,18,21
1499877201771994,0,1,2,-1,3,-3,-7,-24
1499877201771994,-9,3,1,-2,-9,-2,-2,-18
1499877201771994,5,-2,-8,-9,-4,4,9,21
1499877201771994,-14,-6,3,9,-10,-8,-19,-11
1499877201795051,8,-1,4,-6,-2,4,10,13
1499877201795051,-18,-1,1,-7,4,1,-3,-49
1499877201795051,6,4,-4,-2,0,-6,13,12
1499877201795051,0,3,9,38,-3,0,15,-32
1499877201808063,-4,-2,-15,-55,-8,-2,2,-13
1499877201808063,5,3,1,2,1,5,-8,0
1499877201817007,-8,-9,-3,2,5,1,-8,-11
1499877201817007,-6,-2,10,4,3,0,-10,9
1499877201831999,7,5,-4,26,3,2,13,13
1499877201831999,5,-1,0,-6,1,-1,-5,10
1499877201831999,-4,1,8,-22,-8,0,2,-44
1499877201831999,-3,-7,-12,3,1,-2,15,47
1499877201855052,0,0,-4,10,2,3,6,54
1499877201855052,4,2,21,15,-3,0,3,21
1499877201856006,-7,-1,0,27,16,-3,-8,17
1499877201856006,-7,-5,-9,2,-10,-3,-11,-18
1499877201868039,8,5,2,-24,-7,-4,-1,-21
1499877201868039,-1,-1,0,1,-3,-2,-1,-11
1499877201877013,-1,3,8,16,7,4,1,12
1499877201877013,3,5,-8,23,0,1,-4,-5
1499877201892005,-17,-8,-3,13,4,1,1,17
1499877201892005,27,3,-16,-30,-9,-4,-1,-6
1499877201892005,2,-5,8,9,1,-4,-12,1
1499877201892005,1,5,14,-12,0,1,-7,8
1499877201915052,3,-4,-7,17,-5,0,9,-6
1499877201915052,-8,1,7,-23,1,0,-9,64
1499877201915052,-2,0,13,16,2,6,8,3
1499877201915052,-1,-4,-15,-14,-1,-2,2,5
1499877201937042,8,3,10,23,5,-2,-29,-14
1499877201937042,0,-5,-6,-4,-11,-12,-15,11
1499877201938003,5,-7,-16,-20,-8,-2,18,-54
1499877201938003,5,3,22,-5,2,4,12,-15
1499877201951031,0,4,-8,11,7,3,-4,11
1499877201951031,-19,-4,-3,25,7,7,8,-35
1499877201952004,-6,-6,-15,-28,-14,-10,-24,-17
1499877201952004,5,1,11,7,-2,4,4,13
1499877201975019,-4,-9,1,-37,-5,-7,5,12
1499877201975019,6,0,9,3,0,0,-12,36
1499877201976006,8,1,-6,31,15,8,5,31
1499877201976006,-6,0,-2,-2,-7,-5,-4,-21
1499877201997045,6,-3,-11,5,-4,-5,-5,12
1499877201997045,7,-7,-19,7,-4,3,24,11
1499877201998006,-3,-2,-19,-28,4,2,-13,-42
1499877201998006,-4,-4,-2,-1,4,0,4,20
1499877202011052,2,7,9,34,7,3,7,14
1499877202011052,-1,-6,-14,-23,-8,0,7,-36
1499877202012009,-9,-4,16,-8,-9,-5,-6,-20
1499877202012009,-2,-9,-17,-7,-7,-3,-12,-24
1499877202035072,-2,2,2,-11,2,1,12,-31
1499877202035072,1,10,19,11,1,2,-12,11
1499877202036009,-4,-5,-13,-18,-5,-6,7,17
1499877202036009,-15,-3,-1,12,3,-5,-9,-24
1499877202057074,-8,-3,3,-13,-7,-4,-6,19
1499877202057074,-3,4,4,9,-1,-3,2,-2
1499877202058009,-4,1,2,-5,-2,-2,-7,-14
1499877202058009,-2,7,6,7,6,4,1,-6
1499877202072025,2,-3,-10,-5,-6,-2,-4,-31
1499877202072025,-10,-6,1,-9,0,-4,-5,-13
1499877202072025,-1,-6,-7,3,-6,-4,6,-2
1499877202072025,0,-4,-5,-20,-7,-6,-5,3
1499877202095031,-2,0,4,-1,3,6,7,1
1499877202095031,-2,1,6,-1,0,1,3,32
1499877202095031,2,1,-1,6,7,-1,-2,12
1499877202095031,-5,-1,-7,12,4,-1,6,4
1499877202117054,0,4,9,-11,-1,-5,-16,-43
1499877202117054,-9,-4,1,4,-3,-3,-5,-50
1499877202118014,4,-1,-6,3,-3,-2,7,23
1499877202118014,5,1,9,-6,2,0,2,7
1499877202132038,6,5,-2,33,3,-1,-6,-1
1499877202132038,8,-3,-5,-23,-3,-2,8,46
1499877202132038,-5,2,2,-3,-6,1,-7,-11
1499877202132038,1,-3,-6,6,4,-1,-10,-34
1499877202155035,-5,-2,-8,-2,4,2,6,25
1499877202155035,1,1,11,14,5,-2,-6,-6
1499877202155035,-2,3,5,-18,2,3,8,10
1499877202155035,-3,-1,0,-10,-11,-3,-16,2
1499877202177056,2,0,-6,6,0,-1,15,4
1499877202177056,-8,2,-6,23,-4,1,-9,-31
1499877202178051,-4,4,15,-33,0,-2,-6,-50
1499877202178051,-5,0,13,11,7,-1,7,4
1499877202191089,0,-4,-3,-21,-4,-2,-7,-1
1499877202191089,-8,-5,-12,3,-1,-2,0,-12
1499877202192018,4,3,3,17,-5,-3,-8,20
1499877202192018,9,-1,-4,-29,-7,-4,-5,51
1499877202215030,-13,-5,-6,-6,-4,0,-1,-7
1499877202215030,-7,-2,14,-10,-2,-2,1,-25
1499877202215030,4,2,3,19,4,-1,-5,14
1499877202215030,-8,-2,2,4,1,-1,0,-46
1499877202237059,4,-7,-15,3,-1,1,16,-26
1499877202237059,-1,3,-3,0,1,1,2,30
1499877202238020,-6,-3,-7,-1,-5,-4,-5,-12
1499877202238020,6,2,10,3,0,-1,4,16
1499877202251070,3,-1,0,-9,-5,-2,-10,11
1499877202251070,9,3,0,8,13,2,2,-6
1499877202252030,8,-4,-10,28,-3,-1,8,19
1499877202252030,3,4,9,-69,-23,-1,-4,14
1499877202275033,3,-1,6,-1,2,-3,-9,28
1499877202275033,0,-4,-23,-19,-6,-4,8,-22
1499877202275033,0,0,12,7,5,-1,3,48
1499877202275033,-3,-6,-22,20,5,2,19,2
1499877202297066,4,-3,2,-2,-7,-4,-10,-8
1499877202297066,-1,2,10,1,-2,3,20,65
1499877202298047,-9,-5,-13,-7,-6,-5,-20,-25
1499877202298047,7,-6,-7,12,-1,-3,-6,31
1499877202311087,-2,-2,-7,-15,1,1,8,-22
1499877202311087,0,4,1,15,2,0,-16,-32
1499877202312064,-3,-2,3,-4,0,0,21,1
1499877202312064,-2,-6,0,2,1,2,-2,-4
1499877202335045,-3,-1,12,13,1,-2,-3,7
1499877202335045,0,-2,-5,-16,-1,0,-1,-9
1499877202335045,-2,-3,-3,-9,-7,-3,-3,4
1499877202335045,11,2,-7,3,4,1,-6,18
1499877202357066,-1,5,-9,23,3,2,1,13
1499877202357066,-10,-3,15,-11,1,-1,2,-11
1499877202358060,-6,-5,-15,5,-12,-3,-17,-33
1499877202358060,-4,-2,-4,-29,6,-1,-3,2
1499877202372050,-5,0,1,4,2,1,-5,1
1499877202372050,11,3,1,-1,-3,-2,-2,64
1499877202372050,-4,-5,0,4,0,-3,7,8
1499877202372050,1,5,13,34,5,1,-2,0
1499877202395040,4,6,0,-6,2,3,2,2
1499877202395040,1,0,-2,6,0,2,3,-4
1499877202395040,12,7,11,-10,1,1,-14,-28
1499877202395040,-7,-6,-5,4,-2,3,20,-5
1499877202417070,5,-6,-2,-12,-4,-4,-6,18
1499877202417070,-10,4,3,5,1,2,-2,-18
1499877202418064,1,-2,14,21,-1,-1,1,18
1499877202418064,-2,0,-18,-23,-1,-4,-11,-31
1499877202432056,0,-6,13,9,-1,0,-3,12
1499877202432056,-5,-7,-12,-9,-4,-3,4,16
1499877202432056,4,0,-5,-16,-3,4,6,15
1499877202432056,-7,3,8,12,-4,0,-5,-6
1499877202455070,-4,0,-10,-7,-1,-1,2,-20
1499877202455070,-7,-6,-3,-9,-12,-4,-14,-28
1499877202455070,2,-3,0,0,3,4,13,14
1499877202455070,-1,0,0,14,2,1,12,7
1499877202477074,-1,0,-4,-18,-2,-3,0,-3
1499877202477074,4,-2,2,31,-1,-2,-4,-5
1499877202478069,-5,-2,-4,-54,-3,-4,2,-20
1499877202478069,-1,-4,3,11,-1,-1,-9,-13
1499877202491073,-10,-5,-11,-10,-1,-2,-7,-2
1499877202491073,-1,-3,-16,-10,-4,-1,21,9
1499877202492033,-10,2,-1,13,5,3,-9,-9
1499877202492033,-11,-2,-1,-2,-5,-7,-2,-17
1499877202515054,-5,-3,-19,-10,1,0,-3,16
1499877202515054,-2,-2,5,-1,-2,1,2,-4
1499877202515054,-1,2,9,3,3,0,8,0
1499877202515054,1,-5,-5,-9,-5,-6,-11,4
1499877202537078,3,4,3,30,5,1,3,-6
1499877202537078,-4,0,-1,-19,2,1,-6,-24
1499877202538072,6,0,4,2,3,1,-1,12
1499877202538072,0,1,-5,13,4,2,0,0
1499877202551059,4,-3,-5,-14,-5,-4,-3,5
1499877202551059,6,-3,-8,10,-1,-2,-12,5
1499877202559081,-7,0,6,-4,-2,-2,-3,-23
1499877202559081,-2,2,14,6,5,2,-2,-49
1499877202575050,-1,-2,-6,4,-2,2,-3,4
1499877202575050,1,4,-1,2,8,3,0,-14
1499877202575050,-3,-6,6,-9,-6,-2,-4,-1
1499877202575050,6,-1,-2,39,2,0,2,47
1499877202597082,-1,3,7,-54,-2,-2,-5,-24
1499877202597082,-11,0,2,10,2,-3,1,-69
1499877202598052,2,5,20,29,3,3,3,0
1499877202598052,-3,-3,-30,-43,-4,-3,-2,-11
1499877202611069,0,0,-6,47,-8,-5,-10,-9
1499877202611069,-6,-3,-13,-55,-9,-2,-1,-1
1499877202619082,6,0,0,18,2,-3,-1,38
1499877202619082,0,7,19,9,2,3,-1,-10
1499877202635044,13,1,11,27,4,2,-9,69
1499877202635044,1,-1,17,-4,-4,-4,-4,-7
1499877202636044,-8,-6,-17,7,-6,-2,4,-12
1499877202636044,19,-6,-4,-30,-8,-8,-12,76
1499877202657087,-12,0,-7,-17,1,0,9,49
1499877202657087,-3,-2,-5,11,-4,-3,-4,-11
1499877202658079,-5,-7,2,-19,-2,-1,-1,-2
1499877202658079,2,0,-7,10,2,-2,-5,-3
1499877202671054,-2,0,11,-7,-3,-3,-7,-45
1499877202671054,2,-2,-4,-5,0,-2,-3,37
1499877202679079,-1,1,-6,56,2,-2,-4,-7
1499877202679079,-3,-5,-13,-80,-5,0,7,3
1499877202695049,1,-4,0,-15,2,-1,16,18
1499877202695049,-4,-1,1,12,-3,-4,-10,-23
1499877202695049,0,1,-7,-19,-3,-1,-7,-6
1499877202695049,-4,1,18,20,3,-1,0,-8
1499877202717047,-7,2,11,43,3,3,4,-24
1499877202717047,22,-5,-27,-62,-6,-4,-6,6
1499877202718049,1,0,-7,-12,0,2,29,5
1499877202718049,-20,-1,8,9,0,0,-8,-57
1499877202731058,-4,-1,4,-15,-3,-3,1,-39
1499877202731058,6,4,11,31,4,2,-6,8
1499877202739080,-1,-4,-8,12,-1,-7,-5,17
1499877202739080,0,0,-8,-22,-3,0,0,-20
1499877202755053,2,0,-3,1,-2,1,0,-17
1499877202755053,-12,-3,13,24,-1,1,10,-9
1499877202755053,14,6,5,-25,-1,1,-1,-4
1499877202755053,-24,-2,3,28,-3,-4,-5,-28
1499877202777092,-4,1,-9,-1,-2,-1,-3,-11
1499877202777092,-1,-3,4,-21,-3,-1,-1,15
1499877202778052,-4,0,-4,22,7,4,3,-4
1499877202778052,24,-1,-4,24,1,-1,-16,24
1499877202791087,-1,-6,-6,-23,-6,-4,7,-18
1499877202791087,1,3,3,12,-1,0,4,10
1499877202799071,-3,4,4,-13,0,-1,-4,-8
1499877202799071,-9,0,-1,11,-1,-3,16,26
1499877202815064,1,6,-2,17,2,5,14,7
1499877202815064,-17,-4,1,0,-2,-7,-13,9
1499877202815064,-39,-1,1,-1,-2,1,-1,-88
1499877202815064,-33,-8,-4,-15,-6,-4,-17,-47
1499877202837134,14,3,3,15,1,0,14,41
1499877202837134,-7,-2,3,14,-1,-2,4,52
1499877202838056,4,-5,-8,-9,-4,-1,-10,-1
1499877202838056,18,-4,-14,3,0,4,13,75
1499877202851100,-6,-4,-8,-8,1,4,3,-66
1499877202851100,-13,8,9,6,-1,-1,-14,-89
1499877202859098,12,-7,-4,-21,-2,-5,-5,49
1499877202859098,-8,4,2,13,5,7,10,-54
1499877202882100,13,-7,0,11,-6,-7,-12,52
1499877202882100,8,-7,-9,-34,-4,-1,12,19
1499877202883059,-8,5,2,17,0,1,-3,-24
1499877202883059,5,1,-12,-9,-2,-1,0,36
1499877202897086,-9,-1,19,-7,-1,-5,-18,-68
1499877202897086,6,-1,-2,19,1,2,1,-15
1499877202898088,11,6,4,0,0,-2,-2,47
1499877202898088,0,-8,-12,-6,-5,-3,-5,-31
1499877202920071,-1,1,-7,5,-3,-3,6,33
1499877202920071,2,-1,-8,-37,-6,-4,-19,-1
1499877202920071,27,4,1,-3,4,5,5,13
1499877202920071,1,-3,4,-1,-3,-6,-10,47
1499877202935074,0,-8,-12,-6,-2,-7,-17,3
1499877202935074,5,1,9,23,0,0,6,13
1499877202935074,-10,-9,-12,13,-6,-3,0,-12
1499877202935074,-6,-3,1,-13,-2,-4,-4,-5
1499877202957101,-11,-1,-12,-4,-1,-2,-6,-37
1499877202957101,-4,-3,3,-4,3,1,9,2
1499877202958061,-8,-8,-5,6,-4,-4,-15,-22
1499877202958061,6,4,8,-8,-1,4,9,28
1499877202980101,-12,0,-1,-14,-3,0,0,-4
1499877202980101,2,-3,-6,16,-2,-4,-14,-50
1499877202980101,19,0,8,-13,2,0,3,-2
1499877202980101,-16,2,-9,12,6,7,11,-31
1499877202994064,1,-4,3,-5,-3,-1,-1,9
1499877202994064,7,5,0,1,1,-1,10,41
1499877202995063,15,0,1,3,2,-1,-10,45
1499877202995063,14,3,-2,-8,1,2,9,7
1499877203017103,1,3,11,-7,-1,0,-4,13
1499877203017103,-2,-1,3,18,-2,5,12,29
1499877203018096,0,0,-14,-17,-1,-4,-1,10
1499877203018096,5,-3,9,8,-1,-2,-3,-4
1499877203040078,2,-1,-12,-10,1,1,-2,21
1499877203040078,-2,1,8,7,-2,-3,-4,-19
1499877203040078,-9,2,5,2,2,3,2,-11
1499877203040078,-4,-4,-5,2,-4,-5,-9,-50
1499877203054075,-2,0,-1,0,1,1,-3,-7
1499877203054075,1,-3,-10,6,2,-1,-2,-15
1499877203055069,-9,5,3,23,-4,0,4,-45
1499877203055069,18,-2,1,-40,-8,-3,-6,8
1499877203077108,-4,-5,-11,-5,-1,0,-1,1
1499877203077108,-9,-3,3,-1,-2,-2,-9,-45
1499877203078074,-26,-2,-9,-2,-3,-4,-10,-19
1499877203078074,-5,-2,-3,7,0,2,18,9
1499877203100089,-5,-1,7,0,-2,-1,-2,-17
1499877203100089,22,2,2,-5,0,0,1,22
1499877203100089,-6,-8,-1,-16,-5,-1,-1,25
1499877203100089,7,3,-4,18,2,-1,-4,-12
1499877203114116,7,-2,0,-5,-2,-2,1,48
1499877203114116,-7,-5,5,-16,-5,-2,-5,-9
1499877203115072,5,1,2,19,-1,1,2,1
1499877203115072,0,1,-2,-30,-1,-4,-4,5
1499877203137111,22,2,-7,5,1,2,3,22
1499877203137111,32,-2,1,0,1,-1,1,102
1499877203139072,-8,0,1,-11,-2,-4,-2,-11
1499877203139072,-21,-4,0,10,-4,-5,-7,25
1499877203160072,1,2,3,7,1,1,0,-19
1499877203160072,-34,3,-8,-1,-1,-2,1,-61
1499877203161075,-9,-6,-12,-12,-1,1,17,-1
1499877203161075,3,-2,5,17,-1,-4,-9,-20
1499877203173087,-1,-2,2,-6,-3,-2,7,-28
1499877203173087,-9,8,5,7,4,3,1,-65
1499877203190113,25,1,3,-5,-3,-5,5,28
1499877203190113,-39,-4,-1,1,0,0,-3,-91
1499877203197115,-5,1,3,-1,0,1,7,-28
1499877203197115,-27,-4,-1,-1,-2,-1,0,-30
1499877203199111,-6,2,4,-6,1,-1,-7,-15
1499877203199111,22,5,3,-3,-1,1,4,57
1499877203220087,-8,0,13,28,1,-3,-4,-9
1499877203220087,-2,-4,-15,-27,-7,-2,6,24
1499877203221087,-14,-5,-6,-13,-2,-2,-2,-58
1499877203221087,-1,0,1,4,0,-2,-5,-50
1499877203233118,4,-5,-4,2,-3,-4,-14,50
1499877203233118,14,-1,-9,-7,0,-2,0,39
1499877203242094,18,-2,7,-14,-1,0,3,25
1499877203242094,0,2,0,7,5,3,6,-14
1499877203257119,23,3,3,70,3,0,6,41
1499877203257119,-13,-3,12,-45,-1,1,-7,-78
1499877203259079,6,-5,2,-6,-5,-2,6,3
1499877203259079,-11,1,6,-2,0,-2,-9,-26
1499877203280082,21,-6,-6,-23,-3,-8,-18,78
1499877203280082,0,0,-5,12,1,3,8,11
1499877203281083,21,7,-10,11,2,0,-7,3
1499877203281083,-28,-3,6,-16,-3,-1,-10,-19
1499877203293121,-24,-6,-2,-23,-5,-4,1,-12
1499877203293121,17,0,-2,2,-4,-3,-1,52
1499877203302117,-10,1,0,-28,-3,0,-5,43
1499877203302117,4,-5,-17,35,-2,0,8,-8
1499877203317084,-9,4,4,-7,3,3,2,-94
1499877203317084,-7,-3,-4,1,-1,-4,-2,8
1499877203319083,-23,-2,5,16,-1,-4,-10,-16
1499877203319083,1,-7,7,6,1,-2,-3,-1
1499877203340083,13,0,4,-30,-5,1,13,88
1499877203340083,-14,1,6,16,2,2,-7,-31
1499877203341084,5,-5,-14,9,-1,2,1,-37
1499877203341084,-5,-2,-14,-9,0,-2,-6,-33
1499877203353122,-5,4,5,7,0,-1,-4,-47
1499877203353122,10,-6,-16,-12,-3,-2,7,17
1499877203362096,-13,2,3,5,1,-2,-12,-6
1499877203362096,8,-2,-4,-13,-2,-1,7,47
1499877203377131,-16,0,3,7,0,0,-2,-30
1499877203377131,11,-3,-2,25,1,-3,-3,-2
1499877203379096,-16,0,4,-7,0,0,-2,-27
1499877203379096,15,3,-2,53,1,-3,-2,1
1499877203400087,-6,-3,-15,-72,-7,-3,-3,19
1499877203400087,22,-8,16,14,-5,-7,-15,75
1499877203401098,-11,-4,-7,-34,-4,-2,4,-33
1499877203401098,-11,1,1,51,0,0,-20,-8
1499877203413088,-22,-3,-9,-14,-4,0,1,-114
1499877203413088,12,3,-8,16,2,-2,-9,-21
1499877203422125,1,1,4,6,2,-2,1,25
1499877203422125,44,-7,-4,40,-1,-2,5,88
1499877203437133,-3,-2,2,-70,-8,-2,3,-46
1499877203437133,-10,0,-2,-28,2,5,9,20
1499877203439125,5,0,-6,26,1,-1,-4,24
1499877203439125,-14,7,8,-3,0,0,3,-72
1499877203460102,4,-1,6,19,4,-2,-3,60
1499877203460102,-6,0,11,8,-1,-1,5,-20
1499877203461090,2,-2,-5,18,0,0,1,29
1499877203461090,4,3,-6,-60,-5,-4,-3,-7
1499877203473133,-10,-4,-13,47,-1,0,-3,28
1499877203473133,-8,-5,1,-20,-3,0,2,-21
1499877203482134,-13,-1,2,44,3,3,-1,-26
1499877203482134,-8,-1,-2,-14,-1,-3,-4,6
1499877203497133,-6,0,17,30,1,0,4,-21
1499877203497133,15,-3,-16,-32,-4,-2,4,65
1499877203499094,-4,-2,2,-15,-3,-3,-10,52
1499877203499094,-3,-5,-1,-10,-1,2,10,28
1499877203520109,-1,4,-5,-6,0,0,-3,-60
1499877203520109,-15,5,7,29,1,1,1,-64
1499877203521113,4,-3,2,-16,-3,-4,-12,9
1499877203521113,2,1,3,-16,-1,-1,-1,-1
1499877203533135,-5,6,7,39,5,3,-1,11
1499877203533135,-9,-3,-9,-3,-1,-1,4,-11
1499877203542133,0,-6,10,-21,-3,-2,1,-33
1499877203542133,7,5,8,-1,6,7,11,26
1499877203557136,7,-3,1,5,1,1,4,10
1499877203557136,-7,0,-5,26,0,-5,-10,-73
1499877203559100,-25,1,-11,-25,-2,-2,-4,-34
1499877203559100,-4,-3,-2,-14,1,0,10,19
1499877203580108,15,-2,4,5,-4,-6,-8,35
1499877203580108,-3,0,3,27,0,-1,0,1
1499877203581098,8,-8,-11,-41,-6,-5,2,-24
1499877203581098,-8,-2,14,-7,1,-2,-9,-33
1499877203593138,3,1,-11,31,1,1,26,69
1499877203593138,-10,-8,-9,-61,-6,-3,-11,-12
1499877203602141,7,-2,-4,-5,0,-1,-3,0
1499877203602141,7,2,-3,-12,1,5,12,23
1499877203617139,1,0,5,-9,5,-2,-3,-4
1499877203617139,2,6,12,31,7,6,5,25
1499877203619101,13,3,-6,6,2,4,12,6
1499877203619101,-19,-2,0,-6,-4,-2,-12,-33
1499877203640119,-11,-7,-10,-20,-3,-1,-8,12
1499877203640119,-7,5,2,19,2,-1,-4,-1
1499877203641113,-2,-1,-5,2,2,-1,-1,2
1499877203641113,-3,-1,2,1,-2,2,11,-10
1499877203653141,-2,0,3,-12,0,0,-9,-84
1499877203653141,-3,-2,-1,-13,0,-1,-4,-1
1499877203662138,6,4,-2,52,0,0,-1,-11
1499877203662138,8,-3,-7,-4,-4,-5,0,22
1499877203677142,-3,4,3,-8,1,6,4,5
1499877203677142,2,-4,-6,15,-2,-1,2,1
1499877203679105,3,-4,10,2,-3,-2,-3,-8
1499877203679105,-14,-3,-10,-32,-7,-6,-6,-20
1499877203700116,-9,-2,-6,-6,-5,-7,-5,-5
1499877203700116,-11,3,14,-15,1,-1,-8,-9
1499877203701140,-2,-3,-2,-1,-1,1,14,14
1499877203701140,6,-3,-5,2,1,1,4,19
1499877203713144,0,-1,-6,-16,-6,-3,-8,-21
1499877203713144,5,3,-3,20,-4,-3,4,-31
1499877203722127,4,-1,0,-55,-7,-4,-6,3
1499877203722127,12,2,5,27,1,0,-2,57
1499877203737146,-1,-3,-5,-25,-1,3,3,-17
1499877203737146,8,-5,-4,4,-5,-3,-3,109
1499877203739115,-13,0,4,3,-4,-4,-4,-13
1499877203739115,-1,0,-4,4,-1,-5,-7,19
1499877203760120,-3,-6,6,2,-4,-2,-4,1
1499877203760120,6,1,-2,-14,0,-1,10,-8
1499877203761137,-10,0,-4,35,0,-2,-8,-18
1499877203761137,31,-3,-5,-66,-3,1,-3,11
1499877203773151,-4,4,3,39,1,1,-1,9
1499877203773151,-6,-7,-6,-44,-1,-2,2,-6
1499877203782146,0,-2,-5,0,-3,-4,1,3
1499877203782146,8,0,-1,14,-3,-2,0,-15
1499877203797155,-7,-2,0,12,1,0,-1,-2
1499877203797155,2,2,-10,6,-4,0,0,-8
1499877203799144,8,-1,-8,-19,-1,-1,-2,6
1499877203799144,-12,-5,9,5,-2,-2,-3,11
1499877203820136,-3,-2,3,-16,-1,-2,0,-34
1499877203820136,-28,-3,-3,21,1,2,-7,28
1499877203821114,-6,2,-4,1,2,0,7,13
1499877203821114,-11,-1,-5,28,4,1,-7,-13
1499877203842155,-6,1,-1,-37,-1,-2,-1,-14
1499877203842155,19,-5,-1,0,0,-1,0,50
1499877203844118,0,1,3,-3,-2,0,-1,-26
1499877203844118,-12,-6,-3,8,-4,-5,1,-21
1499877203857155,9,1,2,16,3,0,-5,12
1499877203857155,1,4,-3,-2,6,6,3,-27
1499877203859116,8,-4,12,-8,1,0,0,61
1499877203859116,6,4,5,43,-1,-1,-2,-31
1499877203880124,2,-5,-16,-16,-4,-4,-1,5
1499877203880124,-7,-3,-3,-7,-5,-3,-5,-6
1499877203881116,-7,-1,-2,7,-1,-1,-4,-34
1499877203881116,1,6,3,10,2,-1,4,-24
1499877203902184,12,-2,0,4,2,2,1,20
1499877203902184,9,-6,0,-4,-3,-5,-10,37
1499877203904150,15,5,-2,-3,2,2,4,38
1499877203904150,-11,-1,3,-16,-5,-7,-7,40
1499877203917157,1,0,7,34,0,0,-3,-14
1499877203917157,3,-2,-7,-53,-1,0,3,-32
1499877203919144,2,-2,-11,18,-2,-4,-17,-12
1499877203919144,11,-5,-9,-43,-6,-1,-2,84
1499877203940133,-14,-2,3,-4,-1,-4,-14,-55
1499877203940133,-6,-2,10,23,-4,2,3,-39
1499877203941141,-13,-1,-7,-8,1,0,-1,-44
1499877203941141,13,-1,-10,-7,-2,-6,-10,-22
1499877203962163,5,-2,-5,6,4,4,6,28
1499877203962163,2,0,1,23,1,-4,-4,-8
1499877203964120,-10,-3,0,-16,0,5,13,-43
1499877203964120,13,-6,-12,-2,-2,-2,-4,-7
1499877203977163,-1,6,5,2,1,-1,5,9
1499877203977163,-6,-5,15,-13,-2,-4,-3,-14
1499877203979121,4,0,1,37,2,0,2,9
1499877203979121,-16,-1,-2,-27,-2,0,-1,-80
1499877204000133,-5,1,-6,-1,-3,-5,-7,4
1499877204000133,-6,2,6,-9,0,3,11,-27
1499877204001123,42,1,1,45,1,2,5,94
1499877204001123,-49,1,15,-10,-1,-3,-2,-53
1499877204022167,-18,-3,-13,65,-3,-2,8,-24
1499877204022167,-4,2,-10,-62,-3,-3,-8,-14
1499877204024157,-5,-3,4,-27,-6,-3,-2,-1
1499877204024157,14,4,-3,19,3,2,3,66
1499877204036165,-4,-3,-4,-4,-4,0,-3,17
1499877204036165,8,-7,-10,0,1,0,3,60
1499877204043163,-12,0,1,-10,0,-3,-9,-28
1499877204043163,2,4,-2,0,1,2,-5,-18
1499877204060136,6,1,4,3,-1,-3,-7,8
1499877204060136,-9,-4,-7,3,-6,-2,3,-72
1499877204061125,-20,-2,-6,-28,-5,-3,-4,-43
1499877204061125,-19,-8,5,16,-3,-2,-2,4
1499877204082167,-6,-1,-10,-20,1,3,6,-1
1499877204082167,-1,6,-3,17,-1,0,0,8
1499877204084127,-3,-2,11,12,0,-2,-3,0
1499877204084127,-1,-7,-7,19,-1,2,11,-9
1499877204096168,3,-2,-5,-47,-2,-1,-3,-9
1499877204096168,2,1,-1,33,1,3,3,4
1499877204103167,-12,3,7,-8,1,0,7,-60
1499877204103167,20,0,1,-3,0,1,0,36
1499877204120155,4,0,10,-1,-1,1,-1,-15
1499877204120155,0,4,-2,7,2,-4,-5,25
1499877204121131,4,-1,-11,1,-2,-1,-3,48
1499877204121131,16,-1,0,-1,1,-2,-1,7
1499877204142173,-20,-5,-4,21,-2,-3,-4,-25
1499877204142173,3,1,-1,-24,0,0,0,-16
1499877204144163,-45,-1,0,2,-2,-3,-7,-67
1499877204144163,-7,0,-10,-5,-1,2,5,-12
1499877204156173,7,-9,12,-10,-5,-3,-7,35
1499877204156173,-1,0,0,21,0,-2,6,71
1499877204163170,10,-8,-11,-5,-5,-6,-19,16
1499877204163170,5,6,0,11,1,1,0,-42
1499877204180134,-4,1,-11,-10,-4,-2,0,-18
1499877204180134,-1,-4,-6,-18,-3,-4,-10,-19
1499877204181134,11,3,5,4,5,7,12,12
1499877204181134,-5,0,7,-6,1,-3,-4,10
1499877204202177,3,0,-2,-1,0,-2,0,-6
1499877204202177,-7,0,2,-32,-1,2,2,-50
1499877204204167,9,2,-1,-6,-2,-1,0,14
1499877204204167,0,-1,9,-1,1,3,5,26
1499877204216202,7,-5,-5,-1,1,0,5,23
1499877204216202,-5,-7,-14,13,-3,-2,0,-17
1499877204223175,-11,1,5,-3,0,-2,-8,-37
1499877204223175,-7,-3,-3,11,0,-1,-4,-16
1499877204240161,4,3,-7,-20,-3,2,5,-12
1499877204240161,2,3,14,12,1,-1,-5,-12
1499877204241171,22,-6,-7,19,-1,-3,2,79
1499877204241171,-9,-3,2,-18,-3,-3,-6,8
1499877204262206,-1,4,3,4,3,-1,-6,-8
1499877204262206,3,1,3,4,2,-1,-1,0
1499877204264139,14,2,-7,20,1,3,9,52
1499877204264139,-7,-1,2,-29,-4,-3,-1,-2
1499877204276180,5,0,3,-2,-1,-3,-6,34
1499877204276180,-5,-2,-5,9,0,1,1,-28
1499877204283178,-4,2,5,-9,-4,-1,3,-10
1499877204283178,0,1,-8,18,1,2,3,-31
1499877204300164,-11,0,4,-15,0,-4,-6,-25
1499877204300164,1,-6,-2,14,0,1,-1,16
1499877204301141,-5,-5,-5,-18,-3,-2,-6,-24
1499877204301141,2,2,3,-11,0,-2,-2,4
1499877204322210,7,-7,6,28,0,1,3,3
1499877204322210,2,1,-3,-42,-1,-1,-5,3
1499877204324141,-5,-3,-1,-11,-2,2,-1,-20
1499877204324141,-4,-4,-6,1,-2,-5,-4,-18
1499877204336178,4,1,-7,-8,-3,-5,-6,0
1499877204336178,-5,4,3,26,4,1,4,-25
1499877204345143,-12,-8,-5,-22,-7,-6,-3,19
1499877204345143,-1,0,-4,-2,-3,-1,-1,-45
1499877204360163,-1,2,7,1,1,-1,-2,-7
1499877204360163,4,-6,-7,6,-1,0,0,32
1499877204361145,3,3,-2,-12,1,-1,-1,-16
1499877204361145,7,-1,11,25,2,1,5,44
1499877204382188,-9,-4,-12,-1,0,0,-5,-17
1499877204382188,0,0,6,-10,-4,-2,0,-9
1499877204384179,2,0,3,4,1,-3,-1,0
1499877204384179,1,-2,-3,-3,-1,1,0,15
1499877204396164,3,1,-3,6,0,1,5,5
1499877204396164,1,-5,-8,2,-7,-6,-6,7
1499877204405146,3,-3,-3,-2,0,1,0,5
1499877204405146,1,4,-1,3,1,3,2,-10
1499877204420172,3,-2,-1,8,-3,-4,-5,28
1499877204420172,-10,0,-1,-3,-1,-3,-3,-13
1499877204421148,-1,-2,2,-8,-3,-2,-1,-4
1499877204421148,-4,-5,-6,-1,-3,-3,1,-13
1499877204442215,4,3,0,2,2,5,-3,-4
1499877204442215,1,3,-2,3,1,2,-4,7
1499877204444183,-4,-3,3,-7,0,0,0,-4
1499877204444183,-6,-11,-13,-11,-5,-5,-6,-4
1499877204456180,0,-7,-5,-7,-6,-5,-1,28
1499877204456180,3,5,4,11,-1,2,6,-34
1499877204465149,5,3,-3,-8,1,1,7,9
1499877204465149,-2,1,1,20,1,-3,-11,-2
1499877204479152,-2,0,-3,-20,-2,-4,1,20
1499877204479152,-4,-8,4,19,-5,-5,-5,-12
1499877204481151,13,-2,-8,-31,-1,1,3,35
1499877204481151,-5,-2,4,-10,-1,-1,3,-11
1499877204502218,-14,-2,-1,1,4,1,0,-18
1499877204502218,11,3,5,6,1,-1,-1,33
1499877204504187,-5,0,2,26,-1,-4,-1,-11
1499877204504187,-2,-1,-12,-10,-3,0,-5,7
1499877204516179,1,-3,-3,-16,-1,-2,1,-2
1499877204516179,-7,-2,-5,2,-2,-4,1,-3
1499877204525154,-5,-1,9,17,0,-2,-3,6
1499877204525154,4,-2,-3,-16,0,2,3,8
1499877204540179,3,0,-4,-1,-4,4,8,-7
1499877204540179,-3,-3,-11,-7,0,-1,-4,-19
1499877204541154,-5,1,15,8,3,-2,-2,15
1499877204541154,-7,-5,-3,-6,-4,-3,-1,-14
1499877204562218,-5,-4,-5,15,-3,-1,-4,-50
1499877204562218,13,6,0,-29,-1,1,2,59
1499877204564190,-1,3,1,1,-2,0,-2,-20
1499877204564190,0,2,6,23,1,0,1,13
1499877204576177,-2,-1,-2,4,3,2,0,14
1499877204576177,-1,-2,10,4,-1,-2,-3,-3
1499877204585157,0,-3,-2,-8,-2,1,0,-17
1499877204585157,8,-1,0,3,3,2,4,8
1499877204600180,18,-1,5,-3,1,-2,-8,68
1499877204600180,-18,-4,-7,-1,-1,-2,0,-21
1499877204601166,-11,-1,-2,17,-1,0,-1,-5
1499877204601166,-1,2,-5,-20,-1,1,-1,-6
1499877204622230,-4,-3,1,7,1,-4,0,-13
1499877204622230,2,-2,-6,-6,2,4,1,12
1499877204624159,-2,-2,0,8,1,-3,-5,-44
1499877204624159,-1,-1,-8,3,-3,-2,0,9
1499877204636178,-3,4,3,-1,1,0,-1,-9
1499877204636178,3,-6,8,-1,-2,2,3,-12
1499877204645160,-6,3,-5,0,-2,1,-1,-12
1499877204645160,2,5,9,6,2,-1,-5,0
1499877204660178,-2,-5,-7,-5,-3,-2,1,-1
1499877204660178,-6,1,-7,0,-3,-4,-4,-48
1499877204661170,9,-3,-1,-1,-2,-4,-5,41
1499877204661170,-5,-1,6,-3,0,-1,-7,-22
1499877204682206,-4,1,1,-8,-3,-3,2,9
1499877204682206,8,2,1,8,3,2,4,6
1499877204684162,7,-2,-7,-2,-1,0,3,50
1499877204684162,0,3,5,-4,-3,0,3,12
1499877204696180,-1,-4,-12,-6,-6,-3,-1,-5
1499877204696180,-1,6,0,7,1,0,-2,3
1499877204705163,-2,2,1,-2,1,2,0,-7
1499877204705163,1,-3,-3,-2,-1,-3,-4,26
1499877204720179,-1,2,0,-4,0,-1,2,-22
1499877204720179,-2,0,11,-2,-3,-3,-7,9
1499877204721164,-4,2,2,-6,-1,2,4,-26
1499877204721164,-4,-4,-3,6,0,-3,-5,14
1499877204742178,-5,-2,4,-10,2,1,1,-1
1499877204742178,-4,-5,-3,-6,-4,-4,0,-4
1499877204744166,3,-3,-13,25,0,0,-2,-53
1499877204744166,-1,0,-9,-38,-3,-1,-1,-6
1499877204756180,3,4,3,1,-2,1,0,2
1499877204756180,-4,-5,-3,1,-3,-6,-5,2
1499877204765169,-2,-2,-1,1,-4,0,1,1
1499877204765169,-4,1,2,11,1,-1,-2,-8
1499877204780168,2,3,7,0,0,-1,-3,-8
1499877204780168,-2,-2,-6,3,-2,2,0,1
1499877204781167,-4,0,-4,-8,-1,-2,-3,4
1499877204781167,2,0,-5,-1,0,-1,1,-5
1499877204802211,-4,-6,4,-21,-8,-7,-8,4
1499877204802211,-1,-4,-5,3,3,0,-1,-11
1499877204804170,6,0,-1,-12,-2,-2,-1,13
1499877204804170,7,-2,-4,5,1,1,3,24
1499877204824242,-7,-1,-6,4,-3,-3,-9,-7
1499877204824242,-1,-2,-8,-2,-3,-2,2,14
1499877204826170,5,1,4,-3,0,-5,-2,24
1499877204826170,-11,-5,15,23,-7,-2,0,-10
1499877204840200,-3,0,-6,-19,-1,0,1,-34
1499877204840200,5,1,1,3,2,3,2,14
1499877204841173,-5,-2,-2,-6,0,1,2,-17
1499877204841173,2,-2,-8,7,-1,-1,2,-4
1499877204862215,-1,-2,-5,2,-2,1,4,-6
1499877204862215,-3,2,1,-6,-3,-1,-1,1
1499877204864209,-2,2,2,4,2,1,3,-6
1499877204864209,2,0,-7,-4,-1,-1,-1,-7
1499877204884184,-2,-3,4,2,-1,-1,-4,7
1499877204884184,-3,-7,3,0,-1,-4,-7,-9
1499877204886183,-8,-4,-2,-3,-2,-3,0,-13
1499877204886183,5,1,-5,-4,1,1,1,-4
1499877204899214,2,3,-8,5,2,1,2,11
1499877204899214,11,3,10,7,2,2,2,11
1499877204906191,-13,-9,-6,-13,-5,-5,-7,-1
1499877204906191,5,0,2,-5,-1,-3,-5,2
1499877204922242,12,-1,-9,3,0,6,13,34
1499877204922242,-7,-2,-6,-3,1,-1,-8,-33
1499877204924176,-1,0,2,-4,-1,-1,-3,-18
1499877204924176,-3,2,5,2,2,-2,-3,13
1499877204946217,4,-1,6,2,1,3,2,12
1499877204946217,1,2,0,2,-3,-4,5,21
1499877204948213,3,-1,-3,-3,-2,0,-11,-10
1499877204948213,-3,0,11,2,0,0,0,-16
1499877204959178,-4,0,3,6,0,0,-2,-9
1499877204959178,4,-1,-8,-8,-4,-2,1,5
1499877204966199,0,-2,2,5,-1,-2,2,15
1499877204966199,2,-3,-8,-6,-2,0,1,-10
1499877204982221,-8,-3,1,2,0,-5,-4,-27
1499877204982221,9,-2,1,-2,2,3,1,12
1499877204984189,-2,-7,-11,-1,-6,-6,-2,2
1499877204984189,2,-3,-8,-6,-2,0,-2,-9
1499877205004250,-6,-2,-2,-2,0,-1,-2,7
1499877205004250,-6,1,-2,1,-1,-3,-4,-33
1499877205006180,3,4,8,6,0,-1,2,5
1499877205006180,-8,-3,-1,-3,-2,-1,-2,-4
1499877205019224,0,0,-2,-2,-1,-2,-3,-18
1499877205019224,0,0,2,0,-3,-5,0,28
1499877205026202,2,1,2,-4,1,3,-1,-9
1499877205026202,-5,1,1,-3,-2,-2,-2,-8
1499877205042225,3,-2,-3,-3,0,-2,-7,7
1499877205042225,-5,4,6,11,-2,1,3,11
1499877205044182,8,3,1,-1,2,-2,-6,24
1499877205044182,-5,-3,-5,-3,-2,-1,0,0
1499877205065206,-2,0,2,0,1,0,0,-1
1499877205065206,-4,-2,0,0,0,-2,1,-5
1499877205066184,-3,0,-7,-3,-2,-2,-7,-22
1499877205066184,-2,-1,-1,-2,1,-1,-1,-1
1499877205079255,7,3,9,6,-3,-2,-2,6
1499877205079255,-3,-7,3,-5,-2,-1,2,-7
1499877205086184,-2,-3,-6,-3,1,4,2,8
1499877205086184,-1,0,-3,-3,-4,-3,-3,3
1499877205102230,-3,-1,-6,-6,-4,-3,0,-5
1499877205102230,6,5,10,10,1,-1,-2,32
1499877205104206,-1,-7,-9,-13,-4,1,-3,18
1499877205104206,-2,2,6,5,3,1,5,-5
1499877205125208,3,-4,-4,0,-3,-2,-3,10
1499877205125208,-4,-1,-5,-6,-3,0,1,-9
1499877205126188,-3,-3,2,5,0,-4,-2,-13
1499877205126188,-1,-1,-5,-1,0,0,-3,1
1499877205139192,-1,-1,-1,1,0,0,2,5
1499877205139192,-7,-2,2,-3,-2,-2,-2,-21
1499877205146190,-5,3,1,1,-1,-2,2,5
1499877205146190,-4,-5,0,7,1,3,3,-10
1499877205162189,-4,-5,-6,-5,-2,-2,-5,-20
1499877205162189,6,-2,-9,-5,-1,-3,-12,11
1499877205164189,19,2,3,5,1,-2,2,65
1499877205164189,-6,-2,1,-1,-3,-4,-6,-3
1499877205184255,-3,1,4,-2,-3,-2,0,-3
1499877205184255,-6,-4,-10,-3,-2,0,2,-12
1499877205186191,-1,-2,2,5,-1,2,0,-7
1499877205186191,3,-1,-3,-4,1,-1,-2,8
1499877205199232,0,-1,2,1,-1,0,3,7
1499877205199232,2,1,7,-4,2,0,0,2
1499877205206210,-4,5,5,0,0,0,0,-22
1499877205206210,-10,-9,-7,-8,-5,-5,-1,0
1499877205222236,-5,0,0,-5,-4,0,0,-11
1499877205222236,-7,-1,-1,4,1,0,0,-17
1499877205224193,-3,-3,0,-4,-2,-4,-4,-25
1499877205224193,2,1,0,-4,-3,0,-3,-4
1499877205245233,-1,-1,-1,0,5,0,-2,1
1499877205245233,-4,-5,-9,-12,-6,-1,0,-3
1499877205246227,-6,-2,-6,1,1,2,3,-15
1499877205246227,8,-1,-5,1,-1,2,5,20
1499877205259228,-3,-3,1,1,0,-3,0,-3
1499877205259228,-1,1,-4,-1,-3,1,-1,2
1499877205266201,-4,-2,-2,5,1,-3,-5,-10
1499877205266201,0,2,2,1,1,1,1,-15
1499877205282261,-2,0,0,-3,1,-1,3,4
1499877205282261,-1,-4,-1,-4,-1,-3,0,-3
1499877205284198,10,4,2,3,0,2,0,13
1499877205284198,-5,-1,0,4,1,-2,-6,-13
1499877205305235,3,-1,-2,-4,-5,-3,0,-5
1499877205305235,-2,0,-4,-2,0,0,-2,-4
1499877205306197,-2,-3,-5,-8,-2,0,3,-7
1499877205306197,8,-1,-4,-3,-1,-2,-5,10
1499877205318231,-4,1,6,1,0,0,-1,-6
1499877205318231,0,0,3,-2,-1,-2,-1,0
1499877205327198,-3,3,4,3,1,1,3,-15
1499877205327198,-2,-2,0,-7,-3,-2,-4,2
1499877205342244,-1,0,-4,-4,-1,-1,-2,5
1499877205342244,0,2,5,2,1,0,0,-1
1499877205344200,-2,-2,-2,3,-1,-1,-1,1
1499877205344200,4,-3,-2,3,-3,-1,-1,-8
1499877205365213,-4,-2,-1,3,-1,-4,-3,-6
1499877205365213,1,0,-1,5,2,0,0,-1
1499877205366203,-4,0,-3,0,1,1,1,1
1499877205366203,-3,-1,-1,-5,-1,0,2,4
1499877205378246,0,-2,-1,-7,-4,-1,-5,9
1499877205378246,1,-3,-1,-1,-2,0,3,-1
1499877205387203,-1,-2,0,-1,-3,-4,-1,7
1499877205387203,-2,0,3,-1,-2,-3,-2,3
1499877205402270,-1,0,-2,0,-1,2,2,-18
1499877205402270,-2,-2,-4,0,2,-1,-3,2
1499877205404214,3,-2,-4,-7,-3,0,0,9
1499877205404214,-4,-3,2,-3,-1,0,-1,-6
1499877205424269,-4,-3,-5,3,-1,-4,-1,-12
1499877205424269,3,3,6,5,2,0,-3,20
1499877205426237,-4,-1,-1,-7,-1,0,-4,5
1499877205426237,-1,3,-3,2,1,-1,2,-3
1499877205438269,-1,-2,-3,1,-2,0,-1,13
1499877205438269,1,-1,-5,-7,-4,3,2,-3
1499877205447208,-2,-3,2,0,-1,-3,-2,7
1499877205447208,-4,2,4,1,1,1,-1,5
1499877205462277,8,0,0,1,0,0,0,3
1499877205462277,-8,-4,-7,-1,-1,-2,1,2
1499877205464207,-4,-3,-3,-3,-1,-3,-4,-16
1499877205464207,-1,-2,2,-1,-1,-1,-2,-8
1499877205484258,-6,-3,-3,-2,0,-1,1,-19
1499877205484258,3,3,0,2,-1,-1,-2,-2
1499877205486208,-1,-4,-7,-10,-4,1,-1,-1
1499877205486208,-4,2,1,6,-2,-1,0,-5
1499877205498256,-4,-2,-3,0,-1,-2,0,2
1499877205498256,-1,-2,-4,-3,0,-2,-5,3
1499877205507214,-3,-2,-3,0,-3,-4,-2,-3
1499877205507214,4,-1,-6,-6,-3,-2,-3,-3
1499877205522253,-2,-4,-2,-3,-3,-1,2,16
1499877205522253,3,-2,-2,-6,-3,-5,-5,17
1499877205524211,3,1,-5,0,-2,-4,-1,1
1499877205524211,0,-5,-5,-7,-1,-2,-2,3
1499877205544261,-10,-1,1,2,-1,-1,-2,14
1499877205544261,-4,-3,-3,-4,-1,-2,-5,-11
1499877205546244,0,1,-1,1,3,3,4,-2
1499877205546244,-2,-1,-4,1,-1,-3,-1,-9
1499877205558256,3,0,-1,-1,2,3,2,2
1499877205558256,-4,-3,-1,-2,-3,-3,-1,-14
1499877205567212,-2,-1,4,5,-1,-1,-6,2
1499877205567212,0,0,-1,-1,-1,-1,3,-4
1499877205582256,3,3,7,5,2,-1,-2,-2
1499877205582256,-4,-4,-2,-5,-2,0,-3,1
1499877205584213,15,-1,-2,-5,-1,-3,-3,6
1499877205584213,0,1,-2,-1,-2,1,-4,5
1499877205604260,0,-2,-4,0,0,-4,-6,-2
1499877205604260,-1,1,5,5,-2,-2,-2,1
1499877205606247,-3,-2,-5,0,-1,-1,3,1
1499877205606247,0,0,4,3,0,2,2,0
1499877205618281,-2,-6,-11,-5,-6,-2,-3,-4
1499877205618281,-1,-2,-5,-3,-1,0,2,-10
1499877205627215,-3,0,3,4,1,1,0,-5
1499877205627215,-5,-2,-2,-6,-3,-2,0,-2
1499877205642250,-1,0,-2,-7,-2,-1,-4,12
1499877205642250,-2,0,-1,2,0,1,0,-2
1499877205644218,-3,0,7,0,0,-2,-2,-3
1499877205644218,-11,-6,-2,2,1,3,4,-10
1499877205664255,-1,0,2,1,0,1,-3,4
1499877205664255,-1,-3,-7,-4,-2,-3,2,-3
1499877205666218,-4,4,2,2,0,-2,-3,-7
1499877205666218,0,3,3,1,-1,0,-5,1
1499877205678281,0,1,0,0,1,1,4,-9
1499877205678281,0,-1,2,-1,0,1,2,-3
1499877205687218,-3,-2,0,-2,0,-1,-1,-1
1499877205687218,3,0,2,-3,-4,-2,0,4
1499877205702224,-1,-1,-5,-4,-2,-1,-1,-5
1499877205702224,4,-2,2,-2,-1,-1,-1,15
1499877205704221,0,-5,-12,-7,-6,-2,-2,0
1499877205704221,-4,0,4,2,2,0,-1,-1
1499877205724222,3,1,5,4,0,0,-2,8
1499877205724222,-4,1,-1,3,2,1,1,6
1499877205726227,2,0,3,2,-1,-2,-2,-3
1499877205726227,-1,-2,-3,2,0,-2,0,2
1499877205747236,-2,-3,-11,-11,-3,-1,0,-4
1499877205747236,0,1,2,3,0,-2,2,-10
1499877205749224,-4,-3,-4,-2,-1,1,-1,1
1499877205749224,8,0,-4,-4,-2,-5,-9,9
1499877205762256,-3,0,0,2,-2,0,6,-5
1499877205762256,-1,-2,0,-6,-2,-2,-1,-1
1499877205764227,-6,-3,-3,-2,0,-1,-2,-14
1499877205764227,0,0,-4,1,-3,-1,-1,2
1499877205784293,-2,1,4,0,4,0,-1,-32
1499877205784293,-3,-1,-5,-1,-2,2,2,-7
1499877205786225,2,-2,-2,-3,-4,-5,0,22
1499877205786225,-1,1,2,5,2,1,2,-5
1499877205807267,2,-1,-4,-2,-2,-2,-1,1
1499877205807267,-2,2,1,4,2,0,-1,-2
1499877205809227,0,2,9,9,0,0,-1,-2
1499877205809227,-3,-7,-11,-4,-3,-1,1,3
1499877205822288,-2,-3,0,-1,-3,-4,-3,2
1499877205822288,-4,-3,-4,-4,0,-1,-1,8
1499877205824235,1,2,3,1,0,0,-1,3
1499877205824235,-2,0,-1,-1,-1,-2,2,-2
1499877205852269,1,2,3,4,0,0,-2,6
1499877205852269,0,-2,-4,-4,-2,-1,-3,-7
1499877205854230,-3,1,-1,-2,0,-1,1,-7
1499877205854230,-2,3,6,1,0,0,-2,-18
1499877205867269,1,-9,-10,-10,-5,0,6,12
1499877205867269,2,1,0,-1,0,-2,-1,0
1499877205869231,4,-3,-5,-4,-2,-2,-3,4
1499877205869231,-2,4,1,-1,1,1,0,-3
1499877205882270,0,1,3,3,0,-1,-3,2
1499877205882270,-5,-2,0,3,-1,1,3,-20
1499877205884250,-6,-2,-2,-3,-1,-1,1,-3
1499877205884250,1,-3,-3,-10,-2,-1,-4,2
1499877205904265,-3,-5,-8,-10,-2,-1,-4,-1
1499877205904265,-1,2,-3,-2,-1,-1,-1,0
1499877205906234,-3,-2,-3,-2,-2,-3,-2,-25
1499877205906234,-9,0,-4,-2,-2,-2,-1,16
1499877205927278,-3,2,1,6,2,-1,-4,-3
1499877205927278,1,-2,3,-5,-3,-1,-1,-2
1499877205929234,-4,-3,-1,3,0,0,2,-6
1499877205929234,4,2,4,8,-1,-2,-1,7
1499877205941277,1,1,4,-1,0,-3,-1,-11
1499877205941277,4,1,-3,3,2,-1,-5,15
1499877205948234,6,3,5,7,2,0,1,26
1499877205948234,-2,2,5,-3,-4,0,-1,7
1499877205965236,-3,-7,-9,-2,0,0,-6,-3
1499877205965236,-2,1,2,1,0,-1,-2,-13
1499877205966235,-5,0,2,-1,0,2,2,-4
1499877205966235,0,-3,-4,-7,-3,0,-2,-3
1499877205987271,0,2,4,4,2,0,3,-11
1499877205987271,-3,2,4,3,-1,-3,-3,1
1499877205989252,0,-4,-5,-5,-3,0,-1,-1
1499877205989252,0,-3,0,-1,1,2,0,0
1499877206001281,1,2,1,2,2,0,-2,-2
1499877206001281,-1,-2,3,0,-2,-1,3,-5
1499877206008304,-2,-1,-3,-1,-3,-3,-3,3
1499877206008304,-1,-4,-8,-5,-1,-1,0,-4
1499877206024302,-1,-1,-3,-3,-1,0,0,3
1499877206024302,1,-4,-13,-5,0,-1,-5,0
1499877206026239,0,-3,-6,-3,-3,-1,0,-5
1499877206026239,2,-2,-7,-9,-3,-3,-5,-16
1499877206046267,-3,-1,0,1,0,2,5,2
1499877206046267,0,0,0,1,-1,0,2,8
1499877206055244,-7,-7,-3,-5,-3,-5,-14,-28
1499877206055244,-1,0,1,7,2,-1,1,-6
1499877206061249,0,2,1,0,-1,1,-5,1
1499877206061249,-1,0,2,-2,-1,-1,7,2
1499877206068275,-3,-4,-3,-6,-1,-1,1,10
1499877206068275,-1,1,6,3,2,0,0,-7
1499877206084285,-1,-1,-5,-3,-2,-3,-7,-2
1499877206084285,-2,0,-2,-1,0,0,-1,-3
1499877206086244,-2,2,7,-2,-2,-2,2,-2
1499877206086244,0,-2,-5,-2,-2,-1,-1,-3
1499877206108261,3,0,4,1,-2,-2,-1,30
1499877206108261,-1,-3,-5,4,-2,-2,-5,-9
1499877206109249,-2,1,-7,-5,0,1,1,-1
1499877206109249,0,0,4,6,-1,0,0,5
1499877206121256,-3,1,3,-3,-2,-1,2,-5
1499877206121256,1,-3,1,-1,0,-1,-4,17
1499877206128305,0,-4,-5,-6,-7,-4,-9,7
1499877206128305,-1,-5,-7,-9,-2,5,13,10
1499877206144286,-1,0,1,-2,-3,-1,-1,-6
1499877206144286,-2,-1,0,-2,-2,-2,-7,-12
1499877206146247,0,4,6,2,2,3,6,-5
1499877206146247,0,-4,1,-5,-2,-5,-3,4
1499877206167288,-7,-1,-7,-2,-1,-2,2,-11
1499877206167288,-6,-1,1,1,0,1,-5,-15
1499877206169248,2,3,2,-3,-1,-2,-1,2
1499877206169248,-1,2,0,1,1,-2,-3,-6
1499877206181249,0,-2,6,1,1,0,0,6
1499877206181249,-1,-1,2,2,0,-1,0,1
1499877206190251,-2,-4,-3,0,0,-1,0,-4
1499877206190251,1,0,0,-1,0,0,0,3
1499877206204250,-2,-1,-6,-3,-4,-2,1,-10
1499877206204250,-3,0,-3,-2,-2,-1,-2,-4
