timestamp,emg1,emg2,emg3,emg4,emg5,emg6,emg7,emg8
1499878376159134,-4,-8,-2,101,-2,-7,-2,-3
1499878376159134,0,2,3,-41,3,3,-1,-1
1499878376160089,1,0,-54,54,-1,6,8,2
1499878376160089,-2,3,84,-35,-4,-6,-8,-4
1499878376161060,-6,-13,-54,-77,-29,-12,0,-1
1499878376161060,4,3,-6,36,16,3,-15,-3
1499878376164098,-9,-14,16,-7,-27,-17,-4,-5
1499878376164098,7,14,-40,74,23,17,13,9
1499878376172106,-3,-2,53,13,-6,-1,-4,3
1499878376172106,1,4,-27,36,11,2,7,0
1499878376180100,11,15,50,-124,7,12,-8,7
1499878376180100,-4,-14,-7,41,0,-12,8,-8
1499878376186111,-3,-11,-13,-88,-21,-20,-14,-24
1499878376186111,-9,-3,-56,-96,-15,8,-14,31
1499878376201082,-4,2,28,-23,24,1,14,-3
1499878376201082,-3,-5,-35,44,2,0,0,22
1499878376210063,11,24,-12,127,32,19,4,-12
1499878376210063,-17,-13,36,-127,-52,-19,0,-15
1499878376225065,16,8,-44,119,20,6,-9,-2
1499878376225065,2,-4,7,103,4,-3,-5,19
1499878376232106,-1,-3,-6,-72,-33,3,8,-13
1499878376232106,3,14,57,43,6,-10,-4,-14
1499878376246106,-18,-18,-58,124,8,-7,-4,-17
1499878376246106,-6,-18,-53,-108,-65,-18,-15,-30
1499878376288068,3,-10,29,11,-2,4,-2,4
1499878376288068,-16,14,62,-104,-13,-3,-2,-7
1499878376289093,5,8,41,73,12,6,4,-15
1499878376289093,-3,-18,-94,97,-1,-2,2,20
1499878376292107,-8,-1,42,34,6,-11,-44,14
1499878376292107,-4,-28,-16,21,-11,-10,41,7
1499878376293087,5,3,9,36,-5,-1,-7,-12
1499878376293087,22,22,28,-18,12,11,13,-1
1499878376298088,12,8,-2,77,17,-10,-10,-11
1499878376298088,-10,-10,-84,-34,-24,-12,-17,-24
1499878376306088,-11,-14,-31,-21,-12,3,7,12
1499878376306088,11,12,22,49,-8,2,13,-10
1499878376315075,-13,6,28,-54,-8,4,-4,0
1499878376315075,25,19,85,82,9,1,-9,9
1499878376328113,4,18,55,-4,-12,-1,10,4
1499878376328113,-4,-32,-81,-79,-55,0,-9,-15
1499878376337115,-20,-20,2,-67,-11,-14,3,-9
1499878376337115,6,30,127,127,40,15,1,9
1499878376360108,-15,-28,-80,-23,-6,2,-1,-3
1499878376360108,-4,-5,52,68,11,-14,-21,1
1499878376362076,7,18,1,-10,-7,1,14,4
1499878376362076,-9,-50,-128,-128,-42,-5,-3,17
1499878376374095,-5,2,20,58,5,-11,-10,-14
1499878376374095,17,0,-19,26,45,6,2,8
1499878376383077,7,7,12,-38,-39,-3,6,-33
1499878376383077,-4,28,-49,-85,25,7,4,-3
1499878376397123,-1,-28,-30,-11,-32,-13,-13,-12
1499878376397123,-15,12,37,-63,16,7,2,-1
1499878376399078,16,25,-50,-53,17,19,17,20
1499878376399078,-2,-9,79,117,35,4,-3,-6
1499878376420100,12,-2,62,-88,-26,0,5,39
1499878376420100,-22,-26,-15,-15,-38,-22,-18,-24
1499878376421099,-12,-44,-96,-7,-29,-15,-12,-8
1499878376421099,4,30,60,109,19,10,3,-19
1499878376434084,1,6,28,91,23,0,1,37
1499878376434084,-4,13,55,42,5,-4,0,1
1499878376443081,1,14,25,-93,-11,2,1,4
1499878376443081,-13,-42,-47,26,-45,-27,-20,-4
1499878376457119,-6,31,36,60,36,20,3,-51
1499878376457119,37,42,74,73,31,0,9,90
1499878376459117,-32,-4,14,43,-26,-1,4,-67
1499878376459117,10,-12,-41,54,-3,17,1,-75
1499878376480127,25,-18,-95,-83,-18,-6,-1,110
1499878376480127,-36,25,94,-11,23,3,-8,-104
1499878376482082,0,-36,-45,70,15,0,0,2
1499878376482082,20,12,-2,-123,-31,-5,-6,29
1499878376495117,-24,26,-50,-65,-22,-11,0,-68
1499878376495117,2,-19,-14,60,26,12,-7,10
1499878376509094,-1,-14,-55,-5,-9,-14,-2,31
1499878376509094,-13,-33,-95,-63,-22,-4,-4,-17
1499878376517147,13,56,127,110,39,8,2,2
1499878376517147,20,-13,-65,-128,-16,2,11,52
1499878376519084,-31,-6,19,1,33,-4,-15,-51
1499878376519084,11,32,51,71,25,4,10,40
1499878376540154,-9,-15,-22,26,1,-8,-8,-16
1499878376540154,0,5,-8,-77,1,10,6,-21
1499878376542095,33,11,1,122,43,25,16,45
1499878376542095,-10,3,49,31,33,6,2,-5
1499878376554126,-18,-27,57,15,-22,-34,-20,-22
1499878376554126,-26,-28,-49,-12,-21,-9,-8,-22
1499878376561126,34,46,65,71,39,25,20,36
1499878376561126,-25,-22,81,104,-4,-39,-22,-3
1499878376578105,4,-36,-108,74,11,18,4,26
1499878376578105,17,45,124,17,24,15,14,17
1499878376579127,-17,-31,4,-60,-19,-10,-11,-12
1499878376579127,-5,-17,-73,-4,-21,-6,-6,-9
1499878376600127,17,35,80,98,98,45,25,24
1499878376600127,0,-34,-128,-112,-82,-15,-12,-7
1499878376602090,-8,-19,-13,93,-42,-25,-7,2
1499878376602090,21,54,62,-32,60,36,21,11
1499878376614098,-24,-49,-117,-124,-44,-27,-14,-16
1499878376614098,3,4,-21,127,29,10,8,10
1499878376621143,33,73,127,-122,43,43,24,13
1499878376621143,-13,-19,-32,-10,-23,-22,-15,4
1499878376637133,7,33,99,76,21,0,2,-8
1499878376637133,-2,-10,3,73,-12,-1,-1,-4
1499878376639101,15,33,73,-3,-23,0,2,11
1499878376639101,-21,-58,-83,61,-5,-8,-6,-1
1499878376660124,19,3,39,-128,-18,16,10,70
1499878376660124,-7,8,117,-41,-6,-6,-5,-55
1499878376662093,-6,-26,-88,37,-8,-23,-12,11
1499878376662093,12,47,118,100,71,37,21,-1
1499878376674093,-28,-59,-77,19,-90,-43,-25,-37
1499878376674093,-1,-11,-2,-76,-6,2,4,18
1499878376682093,-9,9,82,118,42,2,-3,-13
1499878376682093,20,30,-14,-85,-1,17,9,11
1499878376697123,4,32,66,73,33,9,1,-19
1499878376697123,0,21,26,-44,-18,-11,-2,-2
1499878376699095,-2,-11,38,56,50,13,7,-1
1499878376699095,8,-11,-68,41,-30,-6,-5,22
1499878376720096,-8,4,104,68,-7,-7,-3,-45
1499878376720096,-18,-32,-81,-41,-49,-28,-14,52
1499878376722097,-1,12,27,42,14,7,1,-35
1499878376722097,0,7,10,35,5,4,4,17
1499878376733124,4,-25,-57,48,-8,4,1,-29
1499878376733124,4,14,-6,-42,-13,-5,0,10
1499878376742097,-13,-38,-114,96,-28,-13,-9,-5
1499878376742097,-21,-13,67,3,-18,-18,-11,-35
1499878376757135,-6,1,2,-37,-35,-16,-13,1
1499878376757135,11,-9,1,118,50,16,7,44
1499878376759100,-3,-14,-64,-128,-12,-8,-5,-7
1499878376759100,-12,-10,80,53,-67,-26,-16,-16
1499878376780173,4,-2,-63,-52,13,1,4,2
1499878376780173,-18,3,47,21,-1,3,3,48
1499878376782099,10,15,62,59,3,2,0,-10
1499878376782099,14,-19,-33,-48,-2,-15,-15,1
1499878376794136,-11,-1,-31,-57,9,8,5,-2
1499878376794136,-4,-6,-31,103,2,-3,-2,-27
1499878376802147,-2,10,13,-106,-23,5,3,7
1499878376802147,-15,-33,-109,-4,-35,-27,-16,-17
1499878376817163,4,9,35,-90,-8,-3,-2,11
1499878376817163,1,5,17,-31,4,-2,-1,-41
1499878376819104,-9,3,51,-18,1,-10,-2,6
1499878376819104,3,12,76,28,21,11,-3,8
1499878376840173,-1,-1,-50,10,-3,1,1,-64
1499878376840173,-4,15,87,2,11,5,-1,-19
1499878376842102,2,-11,-46,-87,-17,-4,-2,6
1499878376842102,-1,12,10,38,6,10,3,17
1499878376854125,4,10,-12,-68,8,6,7,-37
1499878376854125,1,8,59,115,35,6,3,-27
1499878376862143,2,-37,-74,-47,-74,-23,-7,26
1499878376862143,-33,-21,-83,59,-11,0,-2,-38
1499878376877144,-4,-10,-1,-2,2,-3,-6,-8
1499878376877144,15,-9,10,90,30,5,3,1
1499878376879104,-20,-37,-85,-83,-34,-15,-13,0
1499878376879104,13,22,58,-97,17,9,15,59
1499878376900176,21,4,-4,96,57,25,5,65
1499878376900176,-21,-23,-33,-20,-44,-21,-13,-86
1499878376901107,-1,24,67,102,26,8,7,15
1499878376901107,14,-4,-7,40,-4,0,2,12
1499878376914135,2,23,14,48,29,16,10,10
1499878376914135,-1,-8,-78,-20,-31,-21,-9,20
1499878376922171,-1,-5,77,-57,4,-1,-4,-2
1499878376922171,-1,-3,-33,-76,12,13,10,-5
1499878376937153,2,6,27,6,-2,-3,-2,43
1499878376937153,4,1,7,9,-4,-1,-3,-26
1499878376939141,14,43,53,80,45,38,17,21
1499878376939141,-21,-36,-75,-123,-85,-47,-23,-25
1499878376960157,4,-32,-45,103,-24,-17,-5,61
1499878376960157,-25,-9,-18,-19,5,7,-1,-78
1499878376961152,5,3,33,25,11,2,9,-10
1499878376961152,10,19,21,19,9,9,3,-7
1499878376974130,-5,1,38,-58,-8,-3,2,-5
1499878376974130,10,17,-76,24,26,21,5,53
1499878376982121,-19,-33,-85,-41,-57,-24,-18,-81
1499878376982121,24,40,98,94,15,12,9,24
1499878376997184,-15,6,58,-1,1,1,-3,-4
1499878376997184,10,14,83,82,50,19,7,22
1499878376999148,-19,-36,-36,-66,-62,-29,-16,-2
1499878376999148,4,-1,-6,49,4,2,0,7
1499878377020175,-10,14,29,75,1,-6,-5,-62
1499878377020175,6,6,77,15,26,12,5,16
1499878377021126,3,14,0,52,26,10,2,7
1499878377021126,-8,-20,-1,44,2,-7,-3,-2
1499878377034134,-1,-13,-70,-61,-22,-3,-3,-7
1499878377034134,-17,-8,16,22,-27,-18,-10,-25
1499878377043115,0,-2,-24,-66,-17,-10,-7,9
1499878377043115,10,8,-9,50,-5,-2,6,-9
1499878377057177,-18,-19,-19,56,4,0,-8,-44
1499878377057177,10,18,4,71,-13,-2,1,31
1499878377059148,-6,-20,-64,-3,-13,-2,-3,-2
1499878377059148,2,20,70,40,37,15,5,-8
1499878377080181,13,-15,-70,-100,-19,-1,8,91
1499878377080181,-10,-3,77,23,-25,-17,-4,-38
1499878377081128,13,39,114,83,29,14,5,7
1499878377081128,0,1,-16,-88,1,9,8,12
1499878377102191,6,11,19,97,16,-2,-3,-5
1499878377102191,-1,-11,-57,-115,-17,-1,2,-1
1499878377104151,4,10,9,104,9,3,3,23
1499878377104151,-4,0,10,47,20,5,-1,-9
1499878377117187,11,20,67,20,-3,-3,-2,-1
1499878377117187,-6,-7,-29,-108,-3,-1,-2,7
1499878377119145,-2,-3,-23,0,9,-3,-2,0
1499878377119145,5,-7,-74,23,6,3,-2,18
1499878377140186,-14,-17,-28,-30,-22,-5,-3,-24
1499878377140186,14,1,13,-68,-5,-4,-3,38
1499878377142121,-13,-8,-56,27,9,-10,-5,-31
1499878377142121,-15,-12,9,4,-15,-4,-3,-35
1499878377162154,7,9,24,-54,-2,5,4,-1
1499878377162154,-4,-6,39,49,9,-1,-1,-15
1499878377164127,15,17,33,119,12,6,1,14
1499878377164127,-13,-16,14,6,10,-9,-10,-7
1499878377177121,-2,-1,4,93,10,-1,1,-14
1499878377177121,-14,-17,-4,53,-25,-10,-9,-11
1499878377179125,1,8,44,8,19,8,10,-4
1499878377179125,-1,2,-23,-51,-3,0,-3,-28
1499878377200165,7,-6,35,57,5,-1,4,38
1499878377200165,5,2,-61,-22,1,2,-4,-12
1499878377201135,-18,-28,-40,25,-22,-20,-10,24
1499878377201135,-2,2,32,-110,-21,-8,-6,26
1499878377222158,3,0,-12,-67,-1,4,2,11
1499878377222158,-15,-33,-88,-75,-40,-13,-6,-2
1499878377224141,16,22,98,61,30,14,6,8
1499878377224141,9,2,-33,-67,-4,6,5,-2
1499878377237144,-12,-28,-36,-73,-13,-15,-11,-11
1499878377237144,10,19,61,-20,27,3,1,35
1499878377243165,-16,-11,-15,33,-12,-3,-5,-87
1499878377243165,12,19,28,127,34,8,6,23
1499878377258143,-1,-14,4,-47,-25,-5,-5,-12
1499878377258143,-15,-14,-47,-53,0,-9,-5,-4
1499878377267166,3,-2,-31,-13,7,1,2,6
1499878377267166,46,31,72,-11,7,8,12,81
1499878377282162,-29,10,13,100,11,0,-7,-50
1499878377282162,2,-7,-9,-9,-2,2,-2,-8
1499878377284140,-10,1,27,-11,-4,-3,-4,1
1499878377284140,-2,-17,-69,-38,-14,-3,-3,1
1499878377305172,12,18,40,63,12,5,5,5
1499878377305172,5,-6,-36,68,-3,-2,2,36
1499878377306142,1,11,26,14,21,15,5,-66
1499878377306142,4,-2,80,22,0,-5,-8,45
1499878377318163,-20,-10,37,-108,-9,-8,-6,-21
1499878377318163,-5,-10,-27,127,-19,-8,-2,-20
1499878377327174,0,-7,-1,76,-2,-8,-4,22
1499878377327174,-3,-2,46,65,7,0,1,-19
1499878377342132,0,15,50,38,17,6,1,-25
1499878377342132,10,14,30,2,-15,-7,0,40
1499878377344164,2,-5,-31,-45,10,4,1,15
1499878377344164,-10,-20,-65,35,-25,-7,-4,-10
1499878377365201,2,1,-22,-11,-15,-3,-5,18
1499878377365201,3,15,23,-62,8,8,8,-25
1499878377366170,7,13,34,-13,9,8,3,28
1499878377366170,-20,-15,-21,-98,-22,-12,-9,-38
1499878377378161,4,11,-1,54,8,2,4,-16
1499878377378161,-1,-17,-29,-15,-7,-2,-3,21
1499878377387172,14,16,3,-50,11,11,9,36
1499878377387172,-17,-7,-30,-7,-15,-8,-11,-58
1499878377402200,1,-6,-30,57,12,-1,0,19
1499878377402200,-13,0,45,-87,-10,-2,-5,-40
1499878377404146,3,-9,-40,91,8,6,6,-1
1499878377404146,-16,1,-8,-58,8,-2,-7,-1
1499878377425149,16,-14,-43,-1,-26,-14,-2,42
1499878377425149,15,35,67,54,23,13,8,30
1499878377426150,-19,-23,-39,47,-20,-12,-9,-44
1499878377426150,-11,-16,-81,-42,1,-1,-3,-52
1499878377439173,3,16,-3,-94,2,2,1,-1
1499878377439173,-2,-13,25,84,16,0,-1,-10
1499878377447205,-10,2,16,-119,-48,-14,-5,12
1499878377447205,15,-2,6,80,8,0,-6,-3
1499878377462203,-1,-7,-26,-54,-14,-5,-3,7
1499878377462203,6,13,25,125,27,13,5,-3
1499878377464141,-9,-20,-75,-80,-21,-14,-9,2
1499878377464141,-8,9,47,-72,-3,2,7,5
1499878377485141,2,-4,-17,-58,-6,5,-1,-34
1499878377485141,-5,-8,-58,9,12,-1,-1,0
1499878377486140,-2,-18,-33,65,2,-3,-7,6
1499878377486140,11,28,52,127,53,20,16,28
1499878377499168,0,-5,-9,-6,-15,-5,-1,-24
1499878377499168,-8,-8,-48,-89,-16,-6,-2,11
1499878377507174,4,0,12,52,3,1,-2,28
1499878377507174,-1,3,-20,84,7,3,-1,-33
1499878377522143,5,18,32,-41,11,6,4,12
1499878377522143,-10,-19,-14,59,-9,-6,-8,-8
1499878377524147,7,14,-11,-7,2,4,7,-44
1499878377524147,-17,-20,-23,-50,-15,-5,-7,-1
1499878377545150,2,-2,12,-50,-23,-8,-4,-6
1499878377545150,7,6,14,29,-5,0,2,-7
1499878377547155,1,-4,3,81,11,2,-10,19
1499878377547155,4,9,-22,-46,-27,-3,-15,15
1499878377567159,-5,11,80,80,25,12,47,7
1499878377567159,-8,-19,-42,-21,-11,-13,1,-17
1499878377569147,8,-7,10,46,-5,-2,-11,7
1499878377569147,-4,10,24,-96,-2,-1,-11,-2
1499878377582184,-6,-2,-45,-49,-6,-5,-17,-3
1499878377582184,5,3,39,34,-2,3,0,2
1499878377584146,8,18,-42,38,23,10,16,12
1499878377584146,-7,-17,46,127,1,-10,5,17
1499878377605153,-1,-18,-96,-24,-45,-10,-9,1
1499878377605153,2,16,28,38,22,6,9,13
1499878377606148,-8,-2,69,87,6,-10,-17,-34
1499878377606148,9,-2,-86,-7,-9,10,12,39
1499878377627150,-4,-13,13,123,11,-4,-10,5
1499878377627150,-1,10,24,-47,5,4,1,42
1499878377629148,-2,-5,-1,19,-6,0,22,-64
1499878377629148,-15,-12,-51,-41,-17,-7,4,23
1499878377642188,-13,-14,29,26,-15,-11,-17,-12
1499878377642188,16,2,-16,-60,7,3,-12,14
1499878377644161,-14,-8,-11,-64,-9,-8,-1,-17
1499878377644161,3,0,1,5,8,2,4,-12
1499878377665153,2,9,-3,80,21,9,6,13
1499878377665153,5,24,43,77,31,14,6,-29
1499878377666172,-9,-42,3,-96,-47,-21,-20,71
1499878377666172,5,3,14,4,-9,-12,-1,-28
1499878377687202,-4,1,16,-51,8,3,-5,25
1499878377687202,-1,-9,-60,-34,-1,4,7,-39
1499878377689162,3,13,4,-56,15,18,10,2
1499878377689162,4,6,31,-55,-25,-8,-8,0
1499878377702224,-1,-6,-5,5,11,1,-12,-14
1499878377702224,-4,-1,12,57,-4,-2,5,2
1499878377704165,0,2,-58,-89,1,1,-12,31
1499878377704165,-4,7,35,-24,16,3,9,-29
1499878377725156,-2,0,12,51,4,-2,12,-12
1499878377725156,10,5,-41,56,-14,-6,-3,37
1499878377726154,4,4,51,13,5,1,-1,-3
1499878377726154,1,-10,-35,81,16,5,-3,-3
1499878377747194,3,23,45,110,15,9,9,-9
1499878377747194,-11,-13,-20,-109,-24,-10,-8,-12
1499878377749191,-2,4,26,35,3,-3,1,-3
1499878377749191,-3,4,-19,-98,-10,4,-2,-4
1499878377762173,6,1,-28,-42,-6,1,5,6
1499878377762173,-1,-14,-12,-3,-21,-9,-8,-1
1499878377768190,2,11,58,86,7,0,13,-8
1499878377768190,5,-2,16,-49,-2,-1,-14,12
1499878377785224,-3,-1,43,-41,3,4,-5,-12
1499878377785224,-3,3,5,71,3,-1,13,2
1499878377786195,-5,-7,3,43,-4,-3,2,-14
1499878377786195,2,1,12,98,1,0,-1,-4
1499878377807159,4,6,-1,-11,11,2,1,12
1499878377807159,-8,-10,-21,-10,-9,-7,-11,-22
1499878377809159,1,-3,-33,-4,1,3,9,21
1499878377809159,7,21,25,19,11,3,-18,29
1499878377822178,-7,-14,-22,11,-10,-12,4,-36
1499878377822178,9,6,47,75,4,-5,-2,-7
1499878377828187,-21,-21,-106,-95,-26,-9,-6,6
1499878377828187,5,2,27,76,10,5,12,10
1499878377845162,0,-1,17,4,8,1,-7,4
1499878377845162,-2,6,4,-66,0,1,-4,21
1499878377851195,1,1,-9,-46,0,0,-5,-48
1499878377851195,-7,-6,45,-36,-15,-5,-2,-27
1499878377867204,4,-6,-117,91,6,7,2,18
1499878377867204,-14,-23,-33,-52,-19,-9,-2,-13
1499878377869163,6,20,55,-34,-3,-1,-5,-17
1499878377869163,-3,-1,-16,29,3,-3,9,2
1499878377882205,-3,1,25,-2,-9,-5,0,-9
1499878377882205,-1,-5,-47,28,11,6,2,11
1499878377888162,3,3,18,-20,4,0,-9,10
1499878377888162,-5,-7,-2,96,-4,-5,-2,-16
1499878377905214,4,-5,-46,-74,-4,3,0,20
1499878377905214,4,17,38,55,8,11,3,-10
1499878377906176,-6,-17,-47,-105,-18,-15,-22,15
1499878377906176,-17,-12,-44,-9,0,-5,10,-19
1499878377927207,3,-6,-7,6,-3,-2,2,-4
1499878377927207,3,4,-4,-20,2,2,-2,-3
1499878377929176,6,7,18,65,4,5,4,3
1499878377929176,2,5,12,23,8,0,-3,6
1499878377942177,-6,-6,-19,-19,-5,-5,-7,11
1499878377942177,-4,-1,-5,-35,-4,0,4,-9
1499878377948213,8,16,43,59,24,6,7,17
1499878377948213,-1,-8,26,28,6,6,1,-42
1499878377965200,1,-14,-26,47,-7,-16,-9,63
1499878377965200,-10,-1,40,32,-18,-13,-11,-28
1499878377966168,3,5,-4,59,4,4,3,43
1499878377966168,6,12,54,-20,-3,-2,2,9
1499878377987226,2,9,16,-57,9,10,4,-12
1499878377987226,-1,-10,-33,126,21,5,-2,1
1499878377989170,-3,0,20,-59,-24,-12,-1,-3
1499878377989170,-4,-8,-23,-6,-4,0,1,6
1499878378002191,-2,3,47,39,2,1,-2,-12
1499878378002191,1,1,-6,-42,-9,-3,-3,18
1499878378008188,-4,-3,5,94,21,13,10,-32
1499878378008188,9,15,-10,-98,7,2,-1,28
1499878378025216,-5,-8,49,-47,-38,-17,-5,-18
1499878378025216,-1,-9,0,-10,-7,-4,-5,-24
1499878378026172,3,3,8,78,5,-3,-11,5
1499878378026172,-10,-17,-65,-66,-13,-7,-4,-10
1499878378047243,0,5,7,35,17,7,-2,-3
1499878378047243,-2,7,12,-26,-3,-2,10,-7
1499878378049173,-6,0,26,80,23,7,2,-12
1499878378049173,7,-2,-24,69,-14,-3,-7,-17
1499878378062192,-5,-9,-12,-31,-11,-11,4,-15
1499878378062192,0,1,9,-25,2,2,-18,2
1499878378068179,0,-10,-35,96,20,6,19,6
1499878378068179,-4,-5,-17,-68,-24,-4,-3,1
1499878378085218,-1,1,2,75,9,1,-3,-13
1499878378085218,1,5,-1,-20,-9,-3,3,11
1499878378086174,-1,-4,-15,-36,-12,-4,-12,-18
1499878378086174,-1,0,52,-13,13,2,3,22
1499878378107208,7,0,-56,67,9,4,-4,0
1499878378107208,-11,-21,-2,-32,-7,-6,-3,4
1499878378109177,5,12,-15,-69,-10,-2,3,-6
1499878378109177,0,1,48,100,8,3,3,-7
1499878378121210,-12,2,3,-10,7,-1,-4,-17
1499878378121210,7,3,-12,-11,4,-2,0,18
1499878378130178,0,3,73,-85,-13,-1,1,-1
1499878378130178,-1,-17,-78,-22,4,-2,-1,37
1499878378145205,-4,5,27,-67,-12,1,2,-18
1499878378145205,0,11,50,61,0,-3,-10,-16
1499878378146179,0,1,1,-17,8,-2,-1,-12
1499878378146179,0,6,12,-23,-4,1,0,18
1499878378167178,1,-5,13,53,10,-2,3,13
1499878378167178,-2,-6,-53,-123,-21,-3,1,0
1499878378169181,0,5,40,80,2,-2,-4,-1
1499878378169181,-2,1,-31,26,-1,-1,-5,-23
1499878378181178,-1,-6,-31,60,-8,0,-2,3
1499878378181178,0,6,32,8,14,6,2,-2
1499878378190182,6,-4,-7,-78,-5,-1,3,52
1499878378190182,-3,0,15,-13,-1,-1,0,-17
1499878378205245,4,7,19,-31,6,2,1,5
1499878378205245,-3,-5,11,26,-6,-6,-2,4
1499878378206195,4,3,-35,56,11,3,0,9
1499878378206195,-8,-17,-61,-70,-19,-7,-2,-9
1499878378227224,-3,2,3,-31,1,-1,-6,-9
1499878378227224,-5,8,39,-46,5,4,-2,-27
1499878378229195,0,-19,-64,-10,-13,-4,-3,32
1499878378229195,-10,-12,33,-8,-5,-5,-5,-9
1499878378241216,1,7,31,65,9,0,5,-7
1499878378241216,3,-12,-73,-27,-6,-1,1,3
1499878378250184,-11,-6,7,12,-9,-2,-4,-23
1499878378250184,3,12,9,-12,13,4,6,-22
1499878378265214,0,0,26,34,-7,2,0,9
1499878378265214,0,-8,-6,103,6,-1,-2,-3
1499878378266204,-9,5,-7,-120,-23,-3,1,31
1499878378266204,-3,8,24,108,11,5,4,-41
1499878378287253,2,-9,-45,-109,-10,-6,-7,5
1499878378287253,1,4,37,69,8,1,-1,0
1499878378289198,-2,0,-33,-19,2,-3,-5,-18
1499878378289198,-4,-16,-8,-51,-7,-7,-4,10
1499878378301226,-1,7,28,13,1,0,-1,5
1499878378301226,5,-3,-39,37,11,6,2,4
1499878378310191,-2,-6,-22,-77,-20,-1,-3,-14
1499878378310191,0,10,21,18,-1,-1,-2,25
1499878378332256,0,-3,-18,64,6,0,-3,-13
1499878378332256,-3,0,22,-86,-4,-4,0,10
1499878378334210,8,17,53,125,20,5,5,-24
1499878378334210,2,-11,-69,-37,-4,1,8,49
1499878378347254,-3,-1,13,-60,-4,-1,-6,-22
1499878378347254,-5,1,-29,91,4,1,-1,-11
1499878378349191,4,-4,40,-72,-22,-9,-7,3
1499878378349191,2,1,20,25,4,0,0,-9
1499878378361202,-13,-20,-52,-45,4,0,-13,13
1499878378361202,14,1,-4,-81,-37,-10,12,17
1499878378370191,-6,-4,-7,84,10,2,3,-18
1499878378370191,4,-1,35,41,0,-1,-6,-14
1499878378385236,-7,-12,-67,4,-2,0,0,13
1499878378385236,-5,1,-5,30,13,8,-2,-10
1499878378386194,-1,-8,-8,-21,-9,-8,-5,7
1499878378386194,5,13,32,35,11,4,-2,34
1499878378407208,3,5,-15,-43,-2,0,6,1
1499878378407208,-7,8,76,100,11,-3,1,-11
1499878378409205,-5,-14,-47,85,7,-5,3,6
1499878378409205,-3,-4,-39,-87,-28,-9,-11,-19
1499878378421236,6,-6,4,33,-8,-2,-7,20
1499878378421236,-4,-12,-57,-79,-9,-4,-3,-11
1499878378430207,4,15,27,18,15,8,5,3
1499878378430207,-6,-4,-22,19,2,0,-1,-9
1499878378445228,-5,-3,43,-27,-7,-5,0,-3
1499878378445228,13,16,-1,-35,8,10,5,25
1499878378446198,-19,-18,44,-80,-15,-11,-9,-5
1499878378446198,2,12,20,94,9,0,1,-24
1499878378467261,6,-1,-19,-3,-8,-1,1,7
1499878378467261,-6,-8,-11,32,2,-2,-9,7
1499878378469208,-1,6,18,17,4,2,2,-1
1499878378469208,2,-2,20,40,6,4,7,-3
1499878378481237,0,8,16,-33,1,1,-2,-14
1499878378481237,-18,-12,4,19,-4,-6,-10,-32
1499878378490199,3,3,-9,3,-3,-2,2,19
1499878378490199,3,7,21,109,13,8,5,-46
1499878378505215,6,6,31,-67,-31,-8,-2,6
1499878378505215,-14,-21,-47,70,-10,-12,-6,-19
1499878378506202,4,-2,3,12,-9,-3,-6,17
1499878378506202,9,4,18,27,7,1,3,23
1499878378527200,-5,4,-16,127,20,12,6,-6
1499878378527200,-3,-9,13,-105,2,-3,-12,-10
1499878378529207,-5,10,19,-10,-11,-7,0,-2
1499878378529207,1,-9,-19,-38,0,0,8,3
1499878378550204,-7,-9,-11,-11,-7,-6,-9,-15
1499878378550204,5,5,17,22,3,2,4,31
1499878378551202,3,2,-11,38,5,3,-3,-16
1499878378551202,-3,7,14,-43,2,1,-2,11
1499878378572206,3,1,9,1,8,2,3,-2
1499878378572206,-5,-8,-38,-31,-3,-1,0,8
1499878378574204,3,-4,7,9,9,-3,-3,-5
1499878378574204,-8,-1,16,18,-10,-5,-8,-49
1499878378587204,9,8,-3,0,11,1,0,56
1499878378587204,-1,-3,-16,8,-3,-1,2,0
1499878378589206,0,-10,-41,-29,-4,1,-3,-2
1499878378589206,-2,-6,3,-35,-13,-10,-11,56
1499878378610210,-20,13,65,52,11,2,11,-92
1499878378610210,3,-1,8,11,-25,-5,-2,-4
1499878378611204,5,-2,-34,-34,-5,2,1,6
1499878378611204,-2,8,24,-46,7,6,0,0
1499878378625206,-2,-10,36,-6,-4,-11,-12,10
1499878378625206,2,10,53,20,9,2,7,2
1499878378626211,-5,-2,-16,13,3,3,-1,-27
1499878378626211,4,7,-18,-28,7,6,-3,-5
1499878378647255,-8,-8,-9,70,-8,-6,-5,17
1499878378647255,6,-4,-3,-9,0,2,1,3
1499878378649210,-3,1,35,15,3,2,0,-17
1499878378649210,2,-8,-16,96,8,0,0,19
1499878378670268,5,5,-15,-93,-23,-5,0,11
1499878378670268,-2,-1,-25,-4,-3,-2,0,2
1499878378671222,4,6,-15,52,9,2,10,-9
1499878378671222,-12,-17,-14,20,-7,-6,-15,-7
1499878378684248,-4,2,-28,68,-4,-2,12,-11
1499878378684248,3,-2,10,-55,-8,-8,-2,8
1499878378691247,-3,5,-5,-84,6,4,2,-2
1499878378691247,0,4,4,25,0,-5,1,-5
1499878378707270,4,-19,-68,34,7,5,-4,7
1499878378707270,0,5,31,43,-1,-2,-2,53
1499878378709210,-18,-8,33,34,-3,-7,-9,-83
1499878378709210,1,6,23,8,-6,-1,6,-2
1499878378730274,1,4,41,8,6,-5,-8,15
1499878378730274,5,-1,-42,3,0,5,4,-2
1499878378731224,-2,1,19,69,4,2,0,12
1499878378731224,-2,-4,1,-33,-11,-5,1,9
1499878378744266,-3,3,15,38,12,3,-5,-28
1499878378744266,-3,-8,-50,-44,-6,-2,0,-19
1499878378751252,2,0,-20,-7,-9,-1,-4,25
1499878378751252,-1,-10,-31,-45,-10,-5,-1,-19
1499878378767260,4,-5,-23,-48,-3,-1,4,22
1499878378767260,-2,2,6,-12,4,2,-4,-9
1499878378769212,4,9,0,-84,0,0,-1,21
1499878378769212,-6,-15,-63,-12,-7,-4,-6,5
1499878378790254,-12,-6,-11,16,11,0,-3,-36
1499878378790254,18,28,89,-27,-2,2,7,28
1499878378791226,3,-9,-13,62,2,1,1,8
1499878378791226,-4,-2,15,-34,-3,-2,5,21
1499878378804257,2,4,18,-29,-2,-1,-9,-26
1499878378804257,-5,2,19,51,13,4,-3,-10
1499878378811256,1,-3,2,59,-2,-2,6,6
1499878378811256,3,-1,-19,-80,-10,-2,-6,3
1499878378827262,3,3,0,-3,0,0,9,15
1499878378827262,0,6,81,39,7,-1,-2,-15
1499878378829241,0,-1,-23,47,-2,0,-11,-8
1499878378829241,-5,-4,-22,0,8,0,3,-11
1499878378850275,6,7,28,-40,-8,-5,-2,19
1499878378850275,-7,-18,-49,-25,-10,-3,0,-8
1499878378851227,-1,-3,8,-16,-1,-5,-4,8
1499878378851227,1,8,15,23,3,4,2,-5
1499878378864282,0,-3,-18,-10,12,7,2,2
1499878378864282,-9,-7,-1,81,-4,-6,-4,-5
1499878378872229,1,-4,-9,-29,3,1,2,11
1499878378872229,-1,15,68,8,7,4,-4,-8
1499878378887285,-1,-6,-30,18,-4,-3,-6,-16
1499878378887285,-5,-6,0,43,7,1,1,-25
1499878378889221,6,-9,-39,-70,-19,-12,-3,37
1499878378889221,-4,-6,-16,30,-6,-3,1,3
1499878378910287,0,7,36,20,6,4,3,6
1499878378910287,-4,1,7,-32,0,-2,-3,-6
1499878378911224,-1,6,23,25,9,4,0,-8
1499878378911224,-2,-3,-12,-81,-11,-4,-5,-17
1499878378924260,5,0,24,9,12,4,4,42
1499878378924260,-17,-16,-89,58,-8,-7,-10,-31
1499878378931252,15,16,49,-31,-1,5,8,6
1499878378931252,-4,-6,-30,-65,-12,-6,-4,-3
1499878378947285,-1,-2,7,-31,-3,4,4,-2
1499878378947285,6,4,0,16,5,1,3,12
1499878378949225,-14,1,-13,-16,-11,-3,-5,-40
1499878378949225,10,5,19,86,11,4,6,24
1499878378970277,-6,-5,-9,-7,-3,-8,-1,-9
1499878378970277,10,28,118,68,10,5,4,27
1499878378971229,-11,-23,-81,39,-2,-5,-8,-30
1499878378971229,1,5,14,-54,-16,-2,-5,-17
1499878378984228,-4,-8,8,-9,-5,-4,-1,-3
1499878378984228,3,7,-7,-15,6,6,-3,-12
1499878378991238,-1,-4,13,28,0,-2,4,22
1499878378991238,3,8,36,92,10,3,-2,-2
1499878379007271,3,-9,-58,-69,-13,-7,-6,-1
1499878379007271,-7,-7,-40,-5,-2,-3,-5,-9
1499878379009228,6,10,36,64,16,5,4,21
1499878379009228,3,-14,-45,-22,-3,-2,12,29
1499878379030302,0,9,15,65,0,3,2,-28
1499878379030302,5,1,8,-2,-16,-5,-2,24
1499878379031230,-6,-4,-18,-9,2,-2,-5,-13
1499878379031230,2,2,15,29,8,6,-2,1
1499878379043229,0,0,-24,16,-1,-1,2,9
1499878379043229,-6,-13,-47,-128,-10,-3,-3,-10
1499878379052234,-3,3,40,56,6,4,-2,7
1499878379052234,3,-2,-15,21,7,-4,-7,-11
1499878379067233,-11,-7,-6,57,3,-2,1,-8
1499878379067233,0,-2,-18,-73,-14,-4,-9,-5
1499878379069233,-3,12,42,1,0,-4,-2,-3
1499878379069233,4,-7,-27,-75,-7,1,2,-4
1499878379090261,-4,-5,-34,-2,-7,-2,-5,-5
1499878379090261,10,12,24,34,14,5,12,0
1499878379091236,1,-12,-49,21,-12,-7,-5,5
1499878379091236,-9,-6,12,-50,-7,-6,-2,-8
1499878379103246,11,26,125,-59,18,9,5,23
1499878379103246,-17,-15,-66,77,-6,-11,-9,-23
1499878379112234,-2,-5,-27,25,-4,-1,-3,-2
1499878379112234,-10,-6,-37,-20,4,-1,-1,-43
1499878379127267,3,6,37,-80,-15,2,-2,2
1499878379127267,7,7,52,2,9,5,5,50
1499878379129235,-1,-10,-49,-7,2,-2,-4,-12
1499878379129235,-4,-5,3,-3,-14,-5,-1,0
1499878379150308,4,6,7,25,3,1,-3,-2
1499878379150308,-10,-13,-26,54,-1,-2,0,-23
1499878379151238,-5,-4,-54,-128,-17,-5,-6,-2
1499878379151238,-5,-3,12,127,8,-1,2,3
1499878379163277,-1,-7,-26,-53,-19,-6,-7,1
1499878379163277,3,3,25,61,12,4,1,-21
1499878379172264,2,-8,-36,-128,-28,-6,3,-1
1499878379172264,0,3,5,82,6,0,0,4
1499878379187271,-6,-7,-15,-28,-4,-3,-5,-11
1499878379187271,1,3,-18,72,16,6,0,7
1499878379189239,-1,1,80,-29,-1,-5,-4,36
1499878379189239,0,-11,-56,-74,-9,-2,-2,-9
1499878379210239,-1,2,23,62,7,1,5,2
1499878379210239,1,-6,-38,-71,-10,-6,-3,16
1499878379211240,1,8,31,50,16,8,4,-32
1499878379211240,-6,-13,-32,-1,-6,-5,-5,9
1499878379223246,3,-1,10,10,2,2,3,9
1499878379223246,-7,-11,-35,-58,-9,-4,-5,-7
1499878379232240,-10,-4,2,-44,-7,-3,-6,-33
1499878379232240,2,2,-4,39,-6,0,3,12
1499878379247241,1,1,10,65,3,3,5,-5
1499878379247241,-3,-1,4,3,-4,0,-2,-9
1499878379249243,4,-8,-13,18,2,1,-2,24
1499878379249243,0,13,57,41,12,1,-5,8
1499878379270271,-7,-7,-45,-55,-9,-6,-1,-21
1499878379270271,5,0,-12,-19,-9,-4,-2,26
1499878379271243,-3,23,90,8,6,1,3,-5
1499878379271243,4,-18,-45,41,-2,-6,-4,0
1499878379283250,-7,6,26,-7,-4,-2,-5,1
1499878379283250,-1,-3,17,-61,-6,-3,2,2
1499878379292250,3,0,-39,12,-1,2,2,6
1499878379292250,0,10,30,-10,-3,1,1,-2
1499878379307304,-1,2,18,90,14,3,-1,-2
1499878379307304,-1,-8,59,1,-12,-7,-8,-12
1499878379309247,-3,0,-26,-13,11,8,8,-3
1499878379309247,-6,2,36,59,8,-5,-10,-8
1499878379330246,4,-6,-23,-30,-9,-4,0,1
1499878379330246,0,7,1,5,5,0,1,11
1499878379331247,7,-2,40,78,9,2,1,5
1499878379331247,0,11,19,-26,-13,1,2,-1
1499878379343260,-6,-10,-45,-27,-4,-3,-3,-9
1499878379343260,1,3,13,-9,-3,-1,3,-12
1499878379352284,-2,-10,-35,-9,-5,0,1,1
1499878379352284,2,5,15,-2,2,3,0,4
1499878379367288,-2,-4,19,-14,-6,-7,-6,-14
1499878379367288,-1,1,0,-38,-7,0,0,0
1499878379369284,-1,-8,-36,9,-5,-3,-8,-7
1499878379369284,5,7,7,86,18,3,2,12
1499878379390308,-9,-10,-17,-33,-23,-3,-9,-54
1499878379390308,-7,-17,-49,20,1,-6,-2,15
1499878379391251,5,8,29,1,-2,-1,0,2
1499878379391251,2,0,-40,-36,-2,2,-1,-6
1499878379403294,0,3,4,44,3,-1,5,7
1499878379403294,5,13,51,56,6,4,0,-4
1499878379412251,-6,-13,-59,-35,2,-2,-2,-1
1499878379412251,-2,-1,19,-77,-14,-3,-1,-10
1499878379427252,1,1,-17,-15,7,4,-1,16
1499878379427252,-3,4,-4,25,-4,-4,1,-8
1499878379429254,-2,-8,-13,69,3,-2,0,4
1499878379429254,2,3,35,-21,5,-1,-6,-5
1499878379450321,1,-4,-48,82,9,1,3,16
1499878379450321,0,-1,26,-10,-19,-4,-3,-3
1499878379451255,-1,-2,-30,27,-7,-3,-2,-5
1499878379451255,-9,-9,-17,-23,-7,-4,3,-29
1499878379463265,2,-7,-1,-47,-10,-6,-6,23
1499878379463265,1,1,-14,17,15,3,6,-1
1499878379472255,-12,1,0,-76,-13,-3,-8,-13
1499878379472255,3,1,-6,-18,-3,0,-1,-3
1499878379487302,4,-7,-29,56,5,1,2,23
1499878379487302,2,3,5,-83,10,8,4,-14
1499878379489258,1,3,5,-23,-16,-8,-5,4
1499878379489258,-15,-19,-82,18,4,-3,-3,9
1499878379510299,5,10,47,-29,-4,0,2,-2
1499878379510299,0,-3,-20,41,9,4,1,4
1499878379511257,1,-1,25,-29,-6,-5,2,0
1499878379511257,-3,-6,-53,-69,0,1,-3,0
1499878379532331,-3,4,28,47,-1,-1,-1,0
1499878379532331,-6,-5,-23,0,-3,-2,-8,-16
1499878379534291,7,21,66,98,26,8,8,4
1499878379534291,-3,-2,33,61,-14,-10,-5,12
1499878379547260,-6,-7,-63,-43,-6,-2,1,-19
1499878379547260,7,15,70,79,19,6,1,10
1499878379549260,-2,1,8,-6,-18,-6,4,-8
1499878379549260,5,7,22,-2,0,-1,-8,22
1499878379570333,3,-7,2,-8,1,-2,-3,2
1499878379570333,-4,-8,-59,54,-1,-4,-3,0
1499878379571263,2,-2,14,-48,-4,3,1,2
1499878379571263,-2,4,36,-2,-9,-1,5,-11
1499878379592302,-3,5,15,43,9,-2,-4,-18
1499878379592302,-3,-12,-41,-109,-17,-6,-1,-1
1499878379598304,-8,-3,19,47,12,2,-2,5
1499878379598304,1,2,2,-82,-7,4,5,0
1499878379607327,5,7,21,29,2,3,1,-20
1499878379607327,6,9,38,-3,2,-2,3,15
1499878379609263,-4,-10,-43,-4,2,-2,-4,-16
1499878379609263,2,3,18,3,13,2,1,32
1499878379630283,-4,-8,-9,45,-5,-4,-1,-5
1499878379630283,-7,-2,10,29,-9,-5,-4,-14
1499878379631266,6,10,27,103,20,4,0,-21
1499878379631266,-1,-14,-49,-54,-35,-8,-1,48
1499878379652332,0,1,-8,-29,-3,-2,-2,17
1499878379652332,-3,-5,5,10,5,3,2,-7
1499878379654277,6,20,62,97,10,2,-1,12
1499878379654277,-14,-32,-78,-44,-22,-13,-8,-32
1499878379667289,-4,-5,-13,40,-4,0,-1,-4
1499878379667289,-2,0,13,5,-6,-5,-5,5
1499878379673305,1,2,-15,-6,0,0,0,0
1499878379673305,7,8,20,110,21,7,4,-10
1499878379690268,-6,3,16,-115,-9,-6,1,-2
1499878379690268,1,-8,-18,57,-2,-2,-7,9
1499878379691269,-2,-1,35,34,9,0,-4,1
1499878379691269,-5,-13,-51,-58,-13,-5,2,-32
1499878379712316,9,8,3,-23,-2,1,1,29
1499878379712316,4,8,22,-15,6,2,4,21
1499878379714281,-9,-5,-35,-66,-7,-2,3,-18
1499878379714281,3,13,48,83,14,3,-3,-8
1499878379726315,1,-4,26,80,5,2,-1,4
1499878379726315,-10,1,-5,-53,-9,2,0,-24
1499878379733334,6,3,-10,-32,-7,-2,2,11
1499878379733334,-5,-1,23,31,18,2,-6,-3
1499878379750320,1,-3,-42,-25,-4,-1,-2,-9
1499878379750320,-3,4,-20,-21,-7,-4,-5,-1
1499878379751272,-5,-20,-51,30,-3,-6,-3,2
1499878379751272,1,7,-2,-39,5,2,3,3
1499878379772331,-1,7,37,-7,6,0,-1,10
1499878379772331,-1,-8,12,12,-1,-2,4,-8
1499878379774272,-2,-6,-22,-100,-9,-5,-3,3
1499878379774272,4,10,-9,-3,7,2,2,-2
1499878379786290,-7,-3,-6,-40,-12,-1,-4,-12
1499878379786290,10,0,-6,22,4,3,3,16
1499878379795274,-5,-13,-28,9,-8,-3,-4,6
1499878379795274,-2,5,27,-8,5,-1,-2,-24
1499878379810322,-9,3,6,1,-3,-1,0,3
1499878379810322,-1,-3,30,25,3,-3,1,-9
1499878379811278,6,12,19,34,5,2,-5,-3
1499878379811278,0,-10,-25,95,7,2,0,14
1499878379832279,4,-6,-18,-30,-9,-1,6,6
1499878379832279,-1,13,40,45,13,1,-5,-15
1499878379834278,-3,-10,-6,-72,-18,-7,-3,17
1499878379834278,4,-1,-19,47,4,1,-2,3
1499878379846319,-10,-9,4,1,-5,-4,-2,0
1499878379846319,0,-4,-14,-17,-1,2,7,6
1499878379853316,2,0,13,-9,-10,-1,-2,-7
1499878379853316,4,13,76,-3,8,4,1,16
1499878379870347,-1,5,-17,58,8,1,-2,-35
1499878379870347,3,-7,-23,-11,-3,-8,-9,16
1499878379871286,-8,-14,-58,-38,-18,-3,3,15
1499878379871286,-5,8,26,-15,-3,6,12,14
1499878379892288,6,-1,-23,94,12,1,-14,-43
1499878379892288,-6,-11,-4,-47,-15,-9,-11,-15
1499878379894279,1,-4,4,30,-2,-5,-3,-21
1499878379894279,-3,-3,9,-17,-1,-3,-3,9
1499878379907300,1,4,18,62,8,6,8,13
1499878379907300,-2,-2,-1,-63,-9,-1,0,3
1499878379913301,7,3,0,-45,5,2,2,7
1499878379913301,-7,-3,-9,-25,-7,-4,-8,-19
1499878379930285,0,4,46,63,9,-2,3,9
1499878379930285,0,-12,-107,-80,-13,0,5,16
1499878379931284,-6,1,62,93,-3,-2,0,-8
1499878379931284,3,9,27,49,2,-1,3,-1
1499878379952292,-2,-2,1,-102,-7,-1,-4,8
1499878379952292,-2,2,-7,11,0,-2,-5,-14
1499878379954296,-2,-1,-15,-49,-1,-2,-9,-9
1499878379954296,0,1,0,117,5,0,0,-2
1499878379967303,-2,-11,-28,-66,-8,-2,1,11
1499878379967303,-2,4,-3,1,-1,0,4,-4
1499878379973323,0,4,-10,-38,1,1,5,-7
1499878379973323,-3,-10,-43,7,-7,-5,-4,-7
1499878379990327,7,5,20,9,4,3,-2,8
1499878379990327,-3,5,39,20,3,0,-1,-6
1499878379991287,-5,-12,-42,-4,-1,-2,-1,1
1499878379991287,0,-5,23,-61,-3,-3,10,-3
1499878380012319,-5,-1,-40,18,2,-3,-8,-6
1499878380012319,3,7,23,47,9,5,-2,-2
1499878380014286,-6,-17,-39,4,-17,-9,-7,-13
1499878380014286,-6,-8,13,24,-1,-4,-1,69
1499878380035290,10,7,28,22,-2,-2,2,10
1499878380035290,-4,-11,-20,11,-4,-4,-3,-37
1499878380035290,3,7,1,2,15,10,7,13
1499878380035290,-3,-3,-9,-8,-7,1,-3,-42
1499878380049323,0,7,39,-25,-7,-3,-5,25
1499878380049323,-6,-11,-35,71,-6,-4,-4,15
1499878380050295,5,3,1,-49,2,2,2,9
1499878380050295,5,8,7,-31,-2,0,2,-20
1499878380071329,-7,-13,-21,45,4,1,-4,-23
1499878380071329,1,13,15,-18,-10,0,6,0
1499878380072328,-6,-6,11,-2,0,-4,-3,-3
1499878380072328,1,-3,9,7,-2,0,-1,-15
1499878380095291,-3,-10,-60,-6,-6,-8,-4,17
1499878380095291,5,0,4,26,21,7,5,18
1499878380096291,-11,-1,31,-41,-11,-2,-2,-38
1499878380096291,2,-6,-29,-4,-13,-9,-9,37
1499878380109337,2,3,14,-22,-3,1,3,-9
1499878380109337,1,-1,32,29,6,-3,-4,-3
1499878380110311,2,7,-6,55,9,3,2,11
1499878380110311,-3,-1,-8,-19,-5,-1,-5,-20
1499878380131293,-2,2,18,-3,0,1,3,0
1499878380131293,-2,-4,-38,-12,-4,1,0,2
1499878380132337,5,0,25,27,16,5,5,-3
1499878380132337,1,3,16,44,-1,-4,-8,4
1499878380155294,0,4,17,27,4,-2,3,-10
1499878380155294,-1,-5,-3,-76,-14,-4,1,24
1499878380155294,-1,-9,-31,22,-5,-4,0,13
1499878380155294,-5,1,-6,-47,5,2,2,-24
1499878380169328,1,3,-6,57,3,-1,-2,27
1499878380169328,-4,0,-4,9,3,-3,-5,-50
1499878380170297,2,3,32,2,-8,-1,-2,7
1499878380170297,0,-3,-9,28,5,2,1,4
1499878380191336,-2,-4,20,-13,-8,-3,1,-4
1499878380191336,-6,-9,-34,-7,-3,-1,-1,-1
1499878380192321,2,2,3,4,-2,-2,-3,10
1499878380192321,2,3,-9,-7,2,2,6,-16
1499878380214341,-7,-8,10,6,-6,-2,-7,3
1499878380214341,0,2,13,-11,-3,1,2,-7
1499878380215308,0,9,-11,-37,-12,-1,-3,29
1499878380215308,2,-12,-14,-32,-8,-4,-2,8
1499878380229319,3,-2,-32,-26,-1,2,5,-23
1499878380229319,-1,6,37,88,2,-5,-5,2
1499878380230301,1,2,-10,0,1,-3,-5,-10
1499878380230301,-4,-4,0,-7,1,-3,-3,-13
1499878380251302,1,2,3,-47,0,0,0,13
1499878380251302,-8,-2,2,-14,-3,-1,-3,-11
1499878380252308,-3,0,-3,-6,2,4,2,-9
1499878380252308,3,15,67,50,2,-3,-3,3
1499878380274360,-6,-15,-31,36,-6,-6,3,-16
1499878380274360,5,-3,-39,-108,-11,-1,0,26
1499878380275312,-3,1,-13,24,8,-1,-11,-64
1499878380275312,-4,-6,-9,14,-7,-5,-6,6
1499878380289309,3,-2,-22,-51,1,4,5,20
1499878380289309,-2,-1,-12,58,0,-5,-2,-8
1499878380290303,2,0,34,25,2,2,5,10
1499878380290303,0,9,13,-47,-4,1,1,-13
1499878380311303,-2,2,10,61,10,3,-6,-13
1499878380311303,-5,-12,-44,-39,-15,-4,-1,11
1499878380312346,1,1,14,20,6,-2,-1,-4
1499878380312346,0,0,1,18,7,3,4,1
1499878380334372,1,-5,-22,-20,-3,-1,-3,12
1499878380334372,4,11,52,22,9,3,0,0
1499878380335315,-4,-8,-11,27,-1,-3,-4,7
1499878380335315,-1,-3,-49,17,2,1,-4,-2
1499878380349345,-3,0,44,42,3,-1,-2,-6
1499878380349345,-2,-2,11,-39,-6,-2,-3,-36
1499878380350318,4,-1,-19,-30,-5,-7,1,58
1499878380350318,-4,-5,4,8,-1,-1,0,5
1499878380371346,-2,3,11,-6,-2,-2,-4,-7
1499878380371346,1,7,21,9,9,5,1,-4
1499878380372347,-1,1,-15,43,4,3,0,-6
1499878380372347,0,3,72,82,4,-1,-1,0
1499878380394347,-14,-11,-26,-38,-35,-12,-13,-17
1499878380394347,-1,-15,-71,10,-5,-4,1,17
1499878380395319,3,4,6,28,0,0,-2,8
1499878380395319,0,-10,-52,-56,-4,-2,-3,-3
1499878380409319,1,-2,-18,-25,1,-1,8,9
1499878380409319,-1,5,28,25,6,1,-7,-1
1499878380410311,-7,-2,0,-30,-2,2,-1,-33
1499878380410311,3,-3,-22,2,-1,1,-2,44
1499878380431349,-3,4,29,-40,-15,-6,-1,-15
1499878380431349,4,9,58,-1,6,5,3,4
1499878380432348,-3,-7,-42,2,-2,0,1,2
1499878380432348,2,4,-4,-21,-5,0,2,-13
1499878380454385,-3,-6,-36,2,3,0,-3,-3
1499878380454385,2,0,23,30,4,-2,0,15
1499878380455325,3,9,47,-3,-2,0,0,-11
1499878380455325,-2,-2,-53,-37,-5,-1,1,-9
1499878380469352,-2,-9,21,42,4,-2,-2,4
1499878380469352,-1,-5,-31,83,9,1,-1,-2
1499878380470345,4,16,101,-75,-10,2,4,11
1499878380470345,-6,-25,-92,-41,-11,-10,-7,-1
1499878380491353,1,4,0,3,14,7,6,-14
1499878380491353,2,11,17,64,9,3,-3,-8
1499878380492334,-15,-26,-68,-39,-28,-14,-13,2
1499878380492334,1,20,73,37,12,7,6,-2
1499878380514359,-2,-6,-14,-11,-5,-4,0,-13
1499878380514359,-2,-8,-11,4,1,0,0,-3
1499878380515324,5,3,-5,9,9,1,2,11
1499878380515324,1,-2,-7,28,-2,1,-2,-4
1499878380529375,-5,-9,-11,20,4,-2,-4,-1
1499878380529375,-3,0,-1,-75,-17,-6,-3,-6
1499878380530325,6,8,32,95,14,6,2,7
1499878380530325,-7,-8,-3,-65,-9,-4,-3,-21
1499878380552331,-5,8,9,-21,6,4,2,-21
1499878380552331,1,-6,-4,-7,-2,-3,-1,13
1499878380553320,0,6,9,-38,5,2,1,-18
1499878380553320,2,-4,14,127,12,-6,-12,22
1499878380574385,6,-2,-47,-109,-22,-3,6,10
1499878380574385,-4,-1,35,66,6,3,0,9
1499878380575332,-5,-5,-42,-37,-20,-8,1,-19
1499878380575332,0,4,65,11,6,7,3,-12
1499878380589387,-1,-10,-68,-17,-6,-4,-9,12
1499878380589387,-3,5,-4,15,-1,0,0,-10
1499878380590333,8,8,-8,87,25,3,3,17
1499878380590333,-1,-7,-29,-44,-17,-6,-3,-10
1499878380611333,8,14,66,75,-6,-3,0,11
1499878380611333,-11,-6,-44,-77,-5,3,3,-2
1499878380612347,-8,-11,-24,75,10,6,0,-14
1499878380612347,-7,2,8,-102,-12,-6,-3,-16
1499878380634332,7,3,24,69,8,-2,2,31
1499878380634332,11,11,24,43,20,5,-2,25
1499878380635358,-7,-3,2,-17,-15,-8,-6,-24
1499878380635358,-4,-2,16,0,5,1,2,-6
1499878380649322,-3,-2,-43,-11,-5,0,2,-10
1499878380649322,3,6,35,63,4,0,2,7
1499878380650323,-7,-14,-42,-66,-9,-3,-4,8
1499878380650323,3,3,-31,9,-1,3,4,-2
1499878380671352,-3,-1,26,-8,4,-1,-6,-11
1499878380671352,-2,-11,-26,-72,-16,-9,-6,12
1499878380672324,-1,-3,-3,-30,2,1,2,-3
1499878380672324,-3,0,15,31,2,1,0,-5
1499878380694353,1,0,4,-3,9,2,1,6
1499878380694353,1,-4,-30,-73,-13,-2,-1,-10
1499878380695329,4,13,66,22,6,-2,-2,-3
1499878380695329,-2,-12,-2,67,3,1,3,13
1499878380709327,0,-7,-38,-21,3,0,3,-1
1499878380709327,-1,-4,-28,-64,-13,-2,-6,-4
1499878380710327,-3,-3,14,74,2,-4,-4,8
1499878380710327,-2,5,-7,-7,6,0,2,-21
1499878380731364,3,1,13,-50,-4,-2,-3,7
1499878380731364,-3,0,21,39,0,-3,2,3
1499878380732349,1,-6,-23,-20,6,3,-3,-3
1499878380732349,-11,-1,19,-9,-3,-5,1,-7
1499878380754328,7,16,58,15,4,3,3,-9
1499878380754328,-12,-29,-88,-62,-13,-10,-8,-47
1499878380755330,5,1,0,7,2,-2,-6,56
1499878380755330,1,4,0,-34,4,4,-1,-7
1499878380769363,-3,6,15,21,3,1,-2,3
1499878380769363,5,6,24,-30,6,0,8,-9
1499878380770330,-10,-14,-36,53,-9,-4,-7,-14
1499878380770330,-1,1,4,67,1,-4,-4,14
1499878380791360,-2,-3,-30,-128,-20,0,-2,-2
1499878380791360,3,7,60,112,15,5,2,2
1499878380792332,-6,-15,-57,-101,-24,-11,-2,-11
1499878380792332,-3,-4,-8,41,-2,-1,-1,9
1499878380814331,-1,3,6,61,12,0,-1,-9
1499878380814331,1,-1,16,-16,-10,-2,-2,2
1499878380815338,1,0,-12,21,5,2,-3,-5
1499878380815338,2,0,3,-29,-7,2,3,2
1499878380829339,-7,-8,-6,-6,-7,-7,-5,-17
1499878380829339,3,1,8,17,-8,-5,-1,21
1499878380830334,3,1,-11,-36,3,2,5,-23
1499878380830334,0,1,-12,-12,-2,0,-6,18
1499878380851344,-4,-2,1,84,9,3,-4,2
1499878380851344,2,4,14,17,0,-1,1,-6
1499878380852343,-6,-1,43,9,-9,-5,-4,-18
1499878380852343,4,-1,-16,-5,4,2,-1,1
1499878380874369,1,-5,-5,1,0,-2,0,12
1499878380874369,-4,-1,-32,28,4,6,0,-6
1499878380875337,3,2,23,27,2,0,3,3
1499878380875337,-1,4,3,34,4,-2,1,-16
1499878380889336,0,-11,-9,-115,-22,-4,-2,16
1499878380889336,-1,5,30,37,3,-3,-2,-4
1499878380890337,7,2,-24,-40,1,3,2,3
1499878380890337,1,3,-5,-13,-8,-3,-2,5
1499878380911348,0,0,2,61,12,3,-3,-9
1499878380911348,-6,1,19,-36,0,3,1,-2
1499878380912339,-2,4,6,52,1,-2,6,10
1499878380912339,7,5,10,-80,2,0,-11,0
1499878380934368,-3,2,5,-8,0,-2,4,-2
1499878380934368,-7,-5,-14,-65,-5,1,0,-13
1499878380935340,2,1,4,-11,-2,-3,1,7
1499878380935340,1,0,-3,-8,0,0,5,4
1499878380949338,-1,2,19,73,1,-1,-6,-4
1499878380949338,2,-4,-20,15,-3,-4,-3,7
1499878380950340,0,5,0,-34,4,1,-1,-1
1499878380950340,-3,-9,-4,52,6,2,1,-8
1499878380971380,-3,-4,-3,-93,-13,-6,-4,6
1499878380971380,1,12,65,32,3,0,3,-7
1499878380972380,-2,-20,-66,-20,-11,-6,-3,-7
1499878380972380,-2,-2,-19,-14,-6,0,-2,-6
1499878380994343,4,8,23,59,14,4,2,-22
1499878380994343,0,-7,-51,-29,-5,-2,-4,27
1499878380995343,-2,5,50,-38,-3,1,-1,1
1499878380995343,2,0,-19,-47,-1,-2,-5,1
1499878381009409,-6,-3,-12,106,2,1,-5,-16
1499878381009409,0,-5,2,-105,-14,-4,-1,0
1499878381010356,3,7,66,71,0,-5,-3,-6
1499878381010356,-2,-3,-27,-41,-9,-1,4,12
1499878381031384,-2,-9,-21,-30,0,2,0,8
1499878381031384,0,1,-11,23,5,-2,-4,-8
1499878381032385,1,10,38,42,13,10,3,9
1499878381032385,-2,-3,16,-66,-9,-5,-4,-9
1499878381054346,-6,0,7,43,10,-1,-1,5
1499878381054346,-3,-11,-19,17,-9,-7,-5,-5
1499878381055347,4,3,-11,16,11,4,0,1
1499878381055347,-1,0,2,-58,-9,-3,1,-7
1499878381068357,10,8,26,42,6,3,3,20
1499878381068357,-9,-8,-33,-110,-8,-5,0,2
1499878381076387,-5,-6,4,50,1,-6,-10,-8
1499878381076387,0,-3,1,65,5,4,1,4
1499878381091382,-1,1,-1,-51,-8,-3,-5,-10
1499878381091382,2,4,28,77,8,0,1,0
1499878381092358,-7,-8,-10,-33,-4,1,2,4
1499878381092358,5,5,12,-7,2,-2,1,-3
1499878381114416,-7,-12,-46,23,-5,-5,-3,-3
1499878381114416,4,7,9,-23,1,3,-2,2
1499878381115350,-4,-3,-18,13,1,0,3,-4
1499878381115350,-1,4,32,-17,-6,-1,0,-3
1499878381128393,-3,-10,-60,-90,-13,-5,-3,-3
1499878381128393,-7,-12,3,124,-2,-6,-8,-7
1499878381136391,2,3,9,-104,-13,-3,1,-15
1499878381136391,1,-1,-1,36,2,0,-2,30
1499878381151352,6,11,31,-43,6,6,3,6
1499878381151352,2,4,-10,38,1,0,0,-9
1499878381152353,-4,-7,-17,-19,7,2,-2,-2
1499878381152353,1,5,5,-23,-4,-2,-1,-3
1499878381174351,0,7,29,-11,2,1,5,0
1499878381174351,-3,-12,-41,12,4,4,0,8
1499878381175353,-2,-2,-30,19,-3,-5,-3,-5
1499878381175353,-5,2,24,50,3,-2,-4,-21
1499878381188385,5,-5,-19,5,-5,-5,1,10
1499878381188385,0,5,26,-33,-2,0,2,-5
1499878381196355,1,1,24,21,-3,-1,-3,11
1499878381196355,-1,-4,-31,32,-3,-5,-2,-2
1499878381211389,-4,2,-13,60,1,0,-1,-29
1499878381211389,0,7,43,-28,-2,-1,0,33
1499878381212355,7,-7,-9,14,-3,-1,-1,-4
1499878381212355,0,-3,6,18,-1,-3,0,-3
1499878381234415,-2,0,6,27,7,0,-5,-10
1499878381234415,5,5,-18,23,12,2,-1,8
1499878381235379,-10,0,13,27,-9,-2,0,1
1499878381235379,-2,-9,-30,-53,-11,-4,-2,-13
1499878381248365,-1,-6,3,-34,-3,-2,3,4
1499878381248365,-4,0,-6,-25,-1,-1,1,-13
1499878381256394,4,11,44,27,10,5,2,5
1499878381256394,-3,-12,-45,13,2,-1,-4,1
1499878381271360,-2,3,5,-67,-5,-3,-1,0
1499878381271360,1,0,19,-23,-1,1,-2,-9
1499878381272360,0,-7,-52,-51,-7,1,1,5
1499878381272360,-1,1,17,-12,-5,-2,-4,10
1499878381294404,-4,4,9,68,0,-2,1,5
1499878381294404,-2,-4,-22,48,-6,-6,-5,-11
1499878381295366,1,-2,-13,-18,3,3,0,-1
1499878381295366,-3,12,78,-34,9,2,-5,-2
1499878381308396,-14,-11,-37,12,-6,-6,-5,-35
1499878381308396,19,3,-13,-26,6,5,2,36
1499878381316401,-3,-5,-40,-34,-13,-4,-1,7
1499878381316401,0,-4,-10,13,-1,-3,0,-1
1499878381331402,-4,0,54,40,3,0,-3,-4
1499878381331402,-4,3,-3,-10,-3,-3,-3,-15
1499878381332377,-1,0,18,1,7,3,1,3
1499878381332377,-2,-4,-3,22,-1,-1,1,3
1499878381354428,-2,5,22,42,0,0,0,-10
1499878381354428,-4,-5,-21,-70,-2,2,0,-5
1499878381355376,5,4,28,2,1,-1,-2,4
1499878381355376,-3,2,-9,45,5,-1,-2,0
1499878381377425,7,-7,-38,-101,-11,-2,2,12
1499878381377425,-4,4,82,67,3,-1,-3,-11
1499878381378367,-6,-2,-21,-22,-4,-3,-5,-12
1499878381378367,0,-5,-31,78,-1,-1,8,-10
1499878381391402,3,5,6,45,3,2,-5,19
1499878381391402,-1,-6,7,-12,-8,-4,-1,-1
1499878381392368,-3,7,46,26,-1,0,-1,-7
1499878381392368,-1,-7,-10,-89,-6,-7,-3,-12
