timestamp,emg1,emg2,emg3,emg4,emg5,emg6,emg7,emg8
1499878491425097,-20,-41,23,26,1,-13,-10,-14
1499878491425097,-2,7,15,-87,-5,-3,-2,-3
1499878491433066,4,28,71,24,-9,5,1,-2
1499878491433066,-2,-28,7,21,9,4,2,7
1499878491435074,-6,-5,-87,-83,-29,-14,-9,-10
1499878491435074,-2,-18,-78,-18,19,12,8,0
1499878491437063,-5,11,49,-27,16,-7,-7,-3
1499878491437063,-4,15,18,5,14,10,7,-4
1499878491438066,22,36,84,99,7,12,5,15
1499878491438066,-27,-81,-98,-79,-88,-39,-21,-14
1499878491453109,-3,-4,68,65,-5,-2,0,-4
1499878491453109,-1,-3,-18,91,13,15,3,-4
1499878491461069,19,48,70,3,40,16,11,11
1499878491461069,-9,-9,33,-2,-14,-2,1,6
1499878491467131,-6,-40,-44,-121,-53,-30,-25,-15
1499878491467131,-6,-6,-50,68,-24,0,0,-2
1499878491482108,-2,-4,-49,37,-2,2,4,-5
1499878491482108,7,24,55,85,37,14,4,7
1499878491498066,-1,-6,-92,25,11,4,3,6
1499878491498066,6,2,121,-106,-16,-12,-4,10
1499878491505124,-8,-23,-103,-128,-15,-5,-5,-11
1499878491505124,-16,-20,-10,88,-26,-23,-15,-26
1499878491553092,-11,-2,2,-53,-38,-25,-14,-10
1499878491553092,2,-8,-2,4,16,12,7,5
1499878491554069,1,12,81,50,28,5,0,1
1499878491554069,6,13,-59,-51,-7,0,3,5
1499878491555112,9,-2,56,77,42,25,12,11
1499878491555112,-8,-1,40,79,5,1,-1,-6
1499878491559079,22,22,-25,2,22,13,6,6
1499878491559079,-14,-6,72,40,-5,-9,-7,-8
1499878491560074,9,28,-17,-14,10,5,6,5
1499878491560074,-9,-20,-98,-57,-17,-8,-2,-13
1499878491565132,4,4,4,57,8,3,3,7
1499878491565132,-2,0,36,84,4,2,-1,-9
1499878491574071,18,3,-50,92,-3,1,3,-14
1499878491574071,8,30,94,112,31,11,7,85
1499878491587117,-31,-38,-84,-61,-54,-30,-14,-58
1499878491587117,18,31,26,73,38,10,6,4
1499878491596096,-9,-29,-7,-78,-23,11,1,1
1499878491596096,-5,-15,-24,-83,-13,-10,-10,-52
1499878491619117,1,-15,-39,-25,-17,-10,-3,36
1499878491619117,7,36,56,71,31,17,11,17
1499878491620080,-18,-35,-61,40,-6,-4,-3,-7
1499878491620080,-5,-11,-49,-108,-43,-16,-9,-10
1499878491634100,-3,4,-2,-42,-6,1,0,-1
1499878491634100,-10,-8,-1,-65,3,8,-1,-16
1499878491635076,20,33,73,-3,36,7,2,24
1499878491635076,-18,-63,-73,-84,-65,-31,-12,-20
1499878491656121,-12,-26,-43,-47,-30,-8,-10,-6
1499878491656121,8,-5,-19,3,-8,2,7,10
1499878491658079,-26,-25,-11,-96,-68,-29,-23,-10
1499878491658079,-2,37,-71,127,30,25,9,-61
1499878491679090,0,-5,11,-3,14,-10,-2,17
1499878491679090,-13,-20,-31,-2,-36,-11,-10,-28
1499878491680116,-1,-7,-79,-15,10,-1,6,31
1499878491680116,5,6,54,-61,9,2,0,3
1499878491694090,14,22,17,114,20,13,9,14
1499878491694090,-14,-28,-57,-82,23,4,-2,-10
1499878491695081,12,32,16,73,-1,-9,-3,12
1499878491695081,-4,33,81,-57,1,-3,1,-38
1499878491716121,-1,-14,45,-63,17,15,2,10
1499878491716121,-2,-15,-1,-37,-22,-20,-8,10
1499878491718114,-2,-7,15,-32,17,8,4,-20
1499878491718114,0,-13,43,3,-2,-6,-6,31
1499878491739093,-1,-8,-60,38,3,-4,-4,-14
1499878491739093,-2,-1,-14,-93,-7,4,5,-13
1499878491740085,18,19,98,94,16,10,11,61
1499878491740085,12,24,43,21,0,13,6,11
1499878491754101,-7,-35,-54,-54,-8,-6,-11,-23
1499878491754101,-22,-9,10,71,-27,-9,-8,-26
1499878491755084,-13,-20,-31,25,16,-6,-4,-28
1499878491755084,3,2,4,7,12,6,5,36
1499878491776124,9,18,36,47,7,2,4,-21
1499878491776124,3,-4,-30,88,8,-3,-4,11
1499878491778085,6,6,46,52,10,-2,-5,-15
1499878491778085,-20,-39,-45,-66,-82,-25,-10,-15
1499878491799106,4,22,23,-17,-8,-3,1,25
1499878491799106,0,19,0,127,15,3,3,3
1499878491800095,-1,-23,-58,-120,-22,-8,-6,36
1499878491800095,-5,-14,-51,-25,-6,-10,-8,-30
1499878491813148,11,44,96,81,26,15,11,39
1499878491813148,-5,-16,-38,-113,-26,-10,-7,-24
1499878491827152,8,33,11,2,49,30,16,0
1499878491827152,-12,-37,-88,-2,-23,-27,-18,7
1499878491844152,-5,4,27,-79,2,2,2,-27
1499878491844152,14,-7,-64,-28,-25,1,-1,61
1499878491845090,-22,-25,5,-75,-21,-14,-6,-48
1499878491845090,16,10,-19,15,36,12,2,50
1499878491859129,-12,-5,19,82,-3,3,4,-27
1499878491859129,1,-5,35,-83,-4,-1,-2,-18
1499878491860095,-10,2,14,-69,-30,-12,-7,-42
1499878491860095,7,18,26,127,31,10,6,-27
1499878491873115,-10,-33,-91,-54,-32,-14,-12,21
1499878491873115,13,-5,-33,123,8,10,6,47
1499878491880131,-13,12,42,-27,-14,-9,-4,-70
1499878491880131,6,-4,-33,32,16,4,4,12
1499878491896137,-6,5,21,35,7,1,-6,-35
1499878491896137,-1,-15,5,80,25,-1,-1,6
1499878491898093,-3,-8,-37,17,-14,-3,-5,11
1499878491898093,0,13,22,91,13,4,1,-14
1499878491918138,2,-2,-18,-56,0,0,2,53
1499878491918138,-6,7,103,68,2,-4,-4,-58
1499878491926128,2,3,48,19,8,-2,1,18
1499878491926128,-1,-4,-54,-69,-2,3,1,4
1499878491933138,-7,-21,1,113,-18,-18,-7,8
1499878491933138,6,-10,-49,-116,-24,-4,-3,12
1499878491940159,-23,-16,-16,-4,-15,-5,-11,-48
1499878491940159,6,29,108,99,34,17,12,-9
1499878491956133,4,-11,-35,26,-10,-5,-4,18
1499878491956133,3,2,-6,-27,-10,-10,-6,-66
1499878491958097,-2,2,-21,-18,3,2,4,38
1499878491958097,8,1,25,-45,-4,-1,3,53
1499878491979104,-2,8,28,73,9,1,0,-32
1499878491979104,9,21,36,9,18,14,7,19
1499878491980099,-4,-20,-80,-3,-13,-3,-2,-45
1499878491980099,4,10,54,78,10,-4,-6,44
1499878491993113,-3,1,0,-40,-13,-8,-3,8
1499878491993113,6,9,40,17,3,3,3,-9
1499878492000165,-2,-4,-47,127,16,1,-4,83
1499878492000165,5,3,-33,-117,-17,-2,2,53
1499878492024108,-15,-5,-3,-32,10,4,0,-50
1499878492024108,-1,-7,-7,-43,-7,-5,-2,28
1499878492025099,17,5,41,31,11,5,4,27
1499878492025099,-9,-11,-13,3,-12,-10,-7,-23
1499878492039143,-7,7,-8,20,15,9,4,7
1499878492039143,10,18,91,-2,22,10,12,3
1499878492041111,-7,-16,44,-1,-30,-22,-14,-34
1499878492041111,5,6,3,-24,19,16,6,4
1499878492053150,7,7,32,29,8,-1,-3,10
1499878492053150,-12,1,36,74,17,8,6,-34
1499878492060177,16,-2,-80,-87,-14,0,-3,54
1499878492060177,-15,-10,47,6,-8,-9,-5,-48
1499878492076140,10,1,-3,52,-2,-1,0,7
1499878492076140,-12,-8,-29,-37,-15,-11,-9,-57
1499878492078103,2,20,-5,27,17,10,6,66
1499878492078103,3,19,86,-65,-8,0,-1,2
1499878492099115,2,-5,5,85,6,-1,3,18
1499878492099115,-20,-31,-58,26,-22,-20,-13,3
1499878492100112,15,14,30,-99,-11,7,7,49
1499878492100112,-15,-1,24,127,20,1,-4,-57
1499878492112142,2,8,39,-35,-13,-7,-2,17
1499878492112142,-4,5,14,97,5,2,0,-1
1499878492121139,1,6,-3,53,17,7,6,-35
1499878492121139,-12,-12,-58,48,-4,-10,-10,-8
1499878492136144,10,17,-5,-128,-6,4,2,35
1499878492136144,3,-16,57,96,12,1,9,57
1499878492138138,-3,7,47,23,4,-2,-6,-41
1499878492138138,1,4,-43,52,1,4,2,-23
1499878492159118,-3,-9,-15,3,-4,3,-3,-17
1499878492159118,-7,3,54,35,-3,-5,1,-19
1499878492160125,-18,1,-26,6,-2,-2,-7,-51
1499878492160125,-2,-19,-47,32,-10,-5,-4,-17
1499878492172147,2,24,59,97,16,9,6,-23
1499878492172147,-3,-5,-32,29,11,-6,-6,27
1499878492181124,8,-14,27,-62,-33,-13,-1,32
1499878492181124,5,32,71,14,34,21,13,-4
1499878492196148,-19,-43,-60,-51,-36,-24,-16,-47
1499878492196148,10,6,-61,-24,23,10,-1,11
1499878492198110,-3,0,-19,53,-5,-8,0,-14
1499878492198110,13,12,-14,-76,4,3,1,14
1499878492219120,-8,-13,1,-117,-10,-1,-1,31
1499878492219120,0,1,-49,-81,-11,-5,-6,8
1499878492220117,-4,-1,15,-20,5,0,-3,-69
1499878492220117,-3,-6,28,36,-11,2,3,45
1499878492232145,7,2,-73,-9,33,16,11,-32
1499878492232145,-12,-18,-1,-73,-27,-18,-14,43
1499878492241111,-2,7,5,9,2,1,5,2
1499878492241111,3,-7,1,33,-8,-3,-3,-7
1499878492256148,0,6,18,31,2,0,3,1
1499878492256148,4,8,18,-36,1,0,-1,5
1499878492258113,1,5,-23,27,17,15,7,-14
1499878492258113,7,-6,-23,-107,-19,-11,-4,12
1499878492279114,-16,7,7,44,-8,-7,-12,-32
1499878492279114,13,-6,-63,-60,-13,3,5,29
1499878492280115,-12,14,90,97,27,4,4,-39
1499878492280115,-4,-16,-5,4,-37,-15,-8,59
1499878492292182,2,9,11,109,1,0,-1,-20
1499878492292182,-4,-5,-13,-31,-24,3,1,2
1499878492301151,-10,-42,-48,46,-8,-14,-6,4
1499878492301151,5,-1,-1,-52,12,4,1,0
1499878492316181,1,-1,8,-65,-11,-2,-3,11
1499878492316181,-5,-8,-54,-35,-6,-5,-8,-33
1499878492318118,4,3,-16,-56,4,5,4,21
1499878492318118,-12,-18,-22,-43,-7,-6,-3,-42
1499878492339128,3,-11,14,89,-6,-5,-1,5
1499878492339128,-4,12,25,-48,3,1,-2,-38
1499878492340131,3,-4,-15,2,-1,2,0,-3
1499878492340131,-2,11,28,78,14,-6,-4,40
1499878492352167,9,3,26,-39,14,9,6,-43
1499878492352167,-12,-12,7,59,-7,-13,-4,16
1499878492361121,-2,0,-30,40,-6,-3,-1,-13
1499878492361121,4,16,67,127,18,9,4,-12
1499878492376158,-6,-14,-26,-106,-8,2,2,9
1499878492376158,6,7,-20,76,7,1,-1,-3
1499878492378120,-6,1,16,41,11,4,0,-6
1499878492378120,5,6,1,-128,-19,1,3,-23
1499878492399160,-11,-29,-65,117,-12,-14,-11,47
1499878492399160,-8,2,54,-107,-10,-2,-4,-74
1499878492401132,0,0,-5,-3,-4,-3,-3,17
1499878492401132,-20,-11,-28,17,1,0,-4,-83
1499878492412170,9,13,50,20,6,2,9,36
1499878492412170,0,0,-21,72,-3,-3,-8,1
1499878492421135,6,-2,24,7,-3,-1,-3,24
1499878492421135,3,11,55,21,12,1,3,-1
1499878492436163,-9,11,-11,78,9,0,-2,-27
1499878492436163,10,23,87,-77,1,4,5,13
1499878492438135,-22,-24,-13,-128,-20,-9,-8,-32
1499878492438135,1,-8,-47,-47,5,1,-1,46
1499878492459135,15,17,12,36,0,-3,0,1
1499878492459135,-2,-5,12,-33,6,1,0,17
1499878492460164,5,5,22,9,1,2,0,43
1499878492460164,0,8,-13,-64,7,3,1,-16
1499878492472164,-3,-5,18,35,-8,-3,-1,-2
1499878492472164,1,7,-17,94,27,13,6,-23
1499878492481150,17,-1,59,-72,-15,-3,-2,86
1499878492481150,-8,-26,-107,74,-1,-6,-6,31
1499878492496165,3,8,26,-128,-8,2,1,-48
1499878492496165,4,4,-22,-40,-8,-3,-2,99
1499878492498127,12,12,32,92,11,-1,-2,-3
1499878492498127,-4,-8,20,-29,-13,-6,-4,-15
1499878492518181,3,8,26,73,10,1,-4,-17
1499878492518181,-9,-14,-19,-24,1,-4,3,3
1499878492525197,3,-6,-44,-47,-8,0,1,-41
1499878492525197,24,4,-17,35,-8,2,9,107
1499878492541172,-14,-8,35,-75,-4,-9,-14,-84
1499878492541172,-7,-5,-2,90,5,-1,2,-43
1499878492543144,-11,9,5,118,-3,-1,-1,40
1499878492543144,2,3,-7,-42,-4,3,3,-21
1499878492564141,5,-5,-24,-63,-16,-6,-3,58
1499878492564141,40,5,9,-23,-3,3,5,127
1499878492565130,-34,0,-35,67,14,-1,-7,-110
1499878492565130,-12,-7,-34,18,-7,-4,-1,-42
1499878492578148,-2,6,-24,35,14,10,11,18
1499878492578148,-1,-5,19,8,-12,-9,-11,22
1499878492585202,10,-13,-18,124,25,7,3,-8
1499878492585202,5,9,43,-123,-39,-4,0,-4
1499878492601173,7,-3,-85,-3,11,1,0,22
1499878492601173,-25,2,20,-17,-8,-5,1,-65
1499878492603133,0,7,39,61,12,4,8,25
1499878492603133,-4,-4,5,73,4,-7,-11,-8
1499878492624154,-11,-11,-41,-49,-20,-4,-4,20
1499878492624154,-11,3,-4,-83,-2,0,-3,-110
1499878492625135,18,-2,9,-38,-10,-5,-6,53
1499878492625135,-22,6,36,2,20,2,-1,-87
1499878492637201,15,0,26,-11,-23,-5,3,30
1499878492637201,-10,-25,-36,34,-2,-7,-9,7
1499878492646145,10,2,-51,-101,-26,0,2,1
1499878492646145,21,2,60,29,21,11,13,68
1499878492661171,-18,-12,1,14,3,-9,-4,-18
1499878492661171,-5,-5,-79,30,9,2,-8,-16
1499878492663136,-5,-3,11,14,-3,1,1,1
1499878492663136,11,-7,-37,1,-10,-4,0,43
1499878492684158,-4,-1,-34,-59,-1,2,6,-19
1499878492684158,3,16,67,-45,15,12,10,-8
1499878492685139,-8,-20,-7,37,-17,-21,-9,-5
1499878492685139,-20,4,-12,-7,-7,-6,-10,-51
1499878492697179,4,4,25,5,17,10,2,-11
1499878492697179,9,-6,-51,103,-14,-9,-2,16
1499878492706140,-38,0,-11,-42,8,0,-6,-90
1499878492706140,5,-7,42,53,0,5,5,31
1499878492721178,-7,5,28,-27,0,-5,-10,-86
1499878492721178,2,3,11,6,6,9,12,37
1499878492723140,5,10,27,8,7,2,-6,-42
1499878492723140,-7,-10,-36,-64,0,-9,-9,-41
1499878492744152,6,-7,-49,81,20,11,6,9
1499878492744152,-5,-3,47,-41,-43,-18,-10,32
1499878492745143,29,10,7,78,16,5,5,55
1499878492745143,-26,-8,-50,-17,-7,-5,-8,-76
1499878492757169,12,-4,14,-33,-1,0,1,20
1499878492757169,-23,-3,36,-55,3,-5,-17,-28
1499878492772150,11,-3,-75,91,9,8,12,45
1499878492772150,-6,-10,30,-59,-6,-4,-6,-19
1499878492781196,5,7,16,16,-7,-4,-4,51
1499878492781196,-11,-9,-17,41,-6,-3,0,-47
1499878492783176,-3,6,41,20,5,0,1,33
1499878492783176,18,6,-14,100,3,2,2,6
1499878492804163,-11,5,33,108,7,-1,-1,13
1499878492804163,8,-1,-10,8,-16,-2,5,-23
1499878492805153,17,24,65,26,17,8,-2,-26
1499878492805153,-6,-7,-37,-52,-17,-9,-3,36
1499878492817151,-4,-2,16,48,0,1,-1,1
1499878492817151,11,8,-5,64,23,6,7,39
1499878492826165,-8,-22,16,-128,-31,-14,-8,-36
1499878492826165,2,16,43,-2,12,3,3,-5
1499878492849147,-9,-19,-35,-41,-28,-6,-6,-19
1499878492849147,14,8,32,79,39,17,10,64
1499878492850159,-34,-29,-42,-119,-67,-26,-19,-88
1499878492850159,-9,8,15,83,4,-3,-9,-23
1499878492864147,22,-11,-38,-26,-5,-4,4,113
1499878492864147,-23,-3,-38,26,6,-1,-7,-41
1499878492865153,4,-1,-19,16,8,4,5,19
1499878492865153,1,1,6,-16,-4,3,2,-6
1499878492877149,3,6,60,83,11,7,2,-15
1499878492877149,-3,-14,-59,-19,-15,-7,-6,-18
1499878492886148,2,6,-19,-35,3,1,2,33
1499878492886148,6,-22,5,21,-14,-11,-7,45
1499878492901149,7,8,-4,49,14,9,10,-10
1499878492901149,5,-2,7,-13,0,-3,-3,-16
1499878492903151,-2,7,13,49,19,9,5,-9
1499878492903151,10,-6,7,46,1,-1,7,39
1499878492924150,-4,8,6,-6,23,7,-3,-49
1499878492924150,-6,-4,21,28,-26,-13,-7,3
1499878492925152,17,8,43,24,9,4,5,47
1499878492925152,1,-1,-69,33,7,7,3,7
1499878492937156,-9,-5,19,-14,-5,-3,-3,-9
1499878492937156,1,6,-12,-2,15,14,5,-18
1499878492946153,-2,-1,5,-35,-10,-9,-3,4
1499878492946153,8,7,54,-25,7,2,1,27
1499878492961159,-14,-6,-19,-22,-13,-11,-4,-32
1499878492961159,3,5,56,108,20,6,6,-31
1499878492963154,-9,-16,-53,-22,-20,-11,-12,1
1499878492963154,0,12,2,40,1,0,-5,-19
1499878492984154,-2,-22,-20,-27,-22,-11,2,33
1499878492984154,-14,-5,-6,-106,-10,-6,-5,43
1499878492985155,-14,3,17,-30,11,5,0,-61
1499878492985155,4,9,2,34,13,5,2,-7
1499878492997173,-13,-8,-8,-67,-4,-3,-7,-33
1499878492997173,13,0,-20,-20,-4,-6,2,80
1499878493006156,-12,-12,-4,67,2,-3,-3,-25
1499878493006156,6,-2,21,68,11,1,3,58
1499878493021197,9,10,-13,29,-6,5,4,23
1499878493021197,3,-5,-14,-58,-19,-3,-5,-43
1499878493023190,1,5,-31,11,2,0,1,18
1499878493023190,-10,-15,12,-70,-14,-9,-8,-72
1499878493044178,0,6,11,38,8,0,4,55
1499878493044178,1,6,7,27,6,-1,-1,36
1499878493045160,-4,7,26,83,0,3,2,-9
1499878493045160,-3,-7,-57,-50,-6,-3,2,-17
1499878493066183,-3,2,0,-24,-11,-5,-4,-34
1499878493066183,1,-12,-1,-6,-3,-3,-2,5
1499878493068160,10,16,-10,-51,6,5,2,10
1499878493068160,-15,-10,-67,-25,1,-2,1,-27
1499878493081198,3,8,90,15,2,-1,-6,-48
1499878493081198,-12,-1,-26,54,0,-2,0,-23
1499878493083178,12,2,-22,-20,3,1,0,20
1499878493083178,-1,2,13,84,3,4,2,-6
1499878493104161,-4,-7,24,-102,-14,-7,-6,18
1499878493104161,4,5,2,-47,-3,0,1,-16
1499878493105169,9,1,2,-95,-4,0,4,20
1499878493105169,-30,-9,-61,-28,-4,-5,-9,-2
1499878493126191,-5,7,36,-48,-10,2,0,-30
1499878493126191,5,-3,7,11,0,-7,-8,34
1499878493128162,-6,-16,-71,25,-1,1,1,6
1499878493128162,8,-2,40,-116,-21,-7,-2,14
1499878493140193,-4,6,7,86,10,1,2,-8
1499878493140193,1,-5,-34,13,0,2,2,-26
1499878493149164,-9,-3,49,76,3,-4,-3,-8
1499878493149164,-2,3,-4,-62,-13,-2,-7,-6
1499878493164179,-1,-7,-50,14,-1,-5,-4,5
1499878493164179,-4,-2,12,60,5,2,1,11
1499878493165177,6,1,7,-69,-4,-3,-3,10
1499878493165177,-2,-7,-55,51,2,0,8,11
1499878493186171,3,7,-4,6,0,-5,-10,17
1499878493186171,-1,6,-15,-13,-1,8,0,-36
1499878493188166,-5,-18,28,-12,-10,-5,-3,30
1499878493188166,0,10,17,85,17,7,3,-21
1499878493201172,3,-3,18,59,5,3,4,11
1499878493201172,6,9,69,9,-20,-8,0,11
1499878493203168,-3,-4,-67,-4,-8,-3,-2,-19
1499878493203168,5,5,13,-11,2,-1,-7,-19
1499878493224176,-5,-4,-25,-27,4,-1,1,3
1499878493224176,2,11,2,47,29,9,3,-1
1499878493225180,-2,-6,17,-36,-8,-9,-5,-16
1499878493225180,10,8,57,-42,-7,0,1,63
1499878493246170,4,-2,-26,-74,0,4,-3,1
1499878493246170,-7,0,30,57,-1,-1,-1,-21
1499878493248172,8,20,-40,30,23,16,10,-2
1499878493248172,-14,-23,-7,-74,-41,-21,-13,6
1499878493260175,6,0,21,98,3,-1,5,-31
1499878493260175,-5,-10,-34,-3,-5,-5,-2,9
1499878493267171,-2,2,-8,104,7,3,-6,32
1499878493267171,2,-4,4,29,9,5,1,-7
1499878493284184,-9,-8,-23,4,-8,-4,-6,-10
1499878493284184,3,5,-1,-41,-4,-2,3,-7
1499878493285173,4,0,36,-43,1,1,2,-36
1499878493285173,3,14,59,104,24,6,1,-29
1499878493306201,-6,-6,-14,-91,-25,-8,-3,-43
1499878493306201,0,-8,-43,0,-1,-2,-5,46
1499878493308176,2,8,24,-13,-4,-5,-1,9
1499878493308176,1,2,20,-21,8,3,-1,16
1499878493320202,-1,1,6,35,18,6,1,7
1499878493320202,12,-5,-2,-34,-14,-2,0,8
1499878493327203,-25,-9,-11,-57,-8,0,-3,-82
1499878493327203,-4,-3,8,29,-13,-8,-4,-5
1499878493344197,5,6,8,11,6,0,1,39
1499878493344197,-6,-7,-31,40,1,-2,-3,-20
1499878493345177,5,-2,-11,-36,-18,-8,-3,43
1499878493345177,-3,0,-39,37,0,0,4,-6
1499878493366178,-3,8,35,12,9,8,0,-58
1499878493366178,6,-6,-14,-14,-1,-4,-4,48
1499878493368177,2,-2,44,96,0,-7,-3,-6
1499878493368177,2,9,26,-3,7,6,1,43
1499878493380229,5,-5,-76,-52,-8,-2,-1,23
1499878493380229,-7,6,60,-12,11,4,2,-30
1499878493387211,-5,-8,-68,-24,-3,-1,0,-2
1499878493387211,8,10,37,56,5,5,2,22
1499878493404179,-12,-21,20,97,-4,-8,-7,20
1499878493404179,7,9,27,-104,-5,1,1,-10
1499878493405180,-8,-17,-64,4,-3,2,-5,31
1499878493405180,5,1,-26,-37,0,-3,4,15
1499878493426219,-4,7,-12,-5,6,1,-1,2
1499878493426219,-6,-9,-5,60,0,0,0,4
1499878493428183,3,4,23,-44,-4,-3,1,-27
1499878493428183,0,-11,-8,2,-3,-6,-3,16
1499878493440248,0,7,25,92,9,5,2,18
1499878493440248,3,6,-3,-92,-7,3,0,-17
1499878493447214,-2,3,29,78,3,-7,-3,43
1499878493447214,-5,-17,-43,-25,-5,0,-4,-77
1499878493464192,0,0,-5,24,-5,-5,1,-11
1499878493464192,-6,1,0,8,1,-3,-4,-23
1499878493465183,1,10,33,127,16,7,2,-50
1499878493465183,2,7,4,-30,-2,-3,-2,27
1499878493486255,-10,-21,-21,-30,-21,-9,2,9
1499878493486255,17,-8,-30,44,0,-3,-9,80
1499878493488184,-5,0,7,-52,2,0,-2,14
1499878493488184,-7,-9,3,22,6,-1,0,-45
1499878493500249,7,6,-14,-73,0,2,1,11
1499878493500249,-9,-3,-11,115,4,0,0,-5
1499878493507223,6,-3,2,-30,-4,0,2,-2
1499878493507223,3,2,-29,-98,-5,-2,-1,5
1499878493524197,0,-1,-4,50,1,-4,-1,8
1499878493524197,-16,-12,-7,23,-8,-1,-2,-52
1499878493525187,11,8,10,65,9,-2,2,78
1499878493525187,-11,6,-14,-24,7,8,2,-57
1499878493546187,-2,-7,9,-57,-5,-3,-4,-16
1499878493546187,18,11,36,14,8,3,4,63
1499878493548186,-6,-4,-13,-36,-5,2,1,-29
1499878493548186,-5,-7,41,127,11,-5,-4,-17
1499878493560190,9,5,-6,31,-12,-2,0,26
1499878493560190,-9,3,-5,-29,0,1,-1,-22
1499878493569188,15,2,59,79,-3,0,4,-21
1499878493569188,-16,-6,-41,-72,-10,-8,-5,23
1499878493584190,-2,9,11,127,29,10,4,-20
1499878493584190,4,4,-7,-128,-23,-5,0,-19
1499878493585190,-10,-1,-21,38,-2,-9,-4,-1
1499878493585190,-7,-10,2,66,-5,-4,-4,-20
1499878493606197,5,-2,2,-95,-20,-7,-3,13
1499878493606197,-2,9,21,70,13,9,1,-19
1499878493608189,4,-3,-10,-32,-2,1,-3,9
1499878493608189,7,1,3,54,-5,3,3,11
1499878493620193,-12,-19,-87,-118,-14,-8,-8,-8
1499878493620193,-5,-3,4,87,7,-1,2,-14
1499878493629190,0,0,14,6,-1,2,1,10
1499878493629190,15,8,17,4,1,2,1,53
1499878493643209,-11,4,13,32,13,5,-1,-25
1499878493643209,5,1,33,40,-8,-10,-1,2
1499878493645192,-13,-20,-79,-1,1,5,-1,-45
1499878493645192,8,7,20,86,17,-2,2,55
1499878493666213,6,10,26,-90,-17,6,1,16
1499878493666213,-5,-2,-12,-32,5,-1,0,-6
1499878493668194,-10,-7,16,-34,-6,-18,-9,-46
1499878493668194,2,-3,-38,-12,-4,18,3,-3
1499878493680216,2,0,13,81,10,-5,-4,11
1499878493680216,-5,-5,22,-119,-2,6,0,-19
1499878493689194,-5,0,-3,-2,-16,-16,0,16
1499878493689194,-7,-21,-20,-86,-21,-5,-7,-31
1499878493703243,-3,3,6,-60,-1,8,1,2
1499878493703243,2,-5,5,92,10,2,5,1
1499878493705216,11,11,18,-26,-3,-4,-4,84
1499878493705216,-12,-4,-17,-2,-9,-10,-5,-40
1499878493726238,8,1,-16,3,12,7,4,32
1499878493726238,-8,2,2,10,-9,-4,4,-7
1499878493728196,6,2,-3,-58,0,6,-1,-2
1499878493728196,3,-4,-32,68,-3,-1,1,-17
1499878493740196,2,2,29,-48,-12,-5,-5,18
1499878493740196,-3,-7,-43,3,0,-7,-7,-5
1499878493749218,-2,-1,19,1,6,13,4,-30
1499878493749218,-4,3,3,-70,-7,-1,0,-4
1499878493763202,-13,-3,16,116,5,-2,-3,-62
1499878493763202,16,-11,-30,-38,-18,-8,4,90
1499878493765202,-3,1,0,66,11,2,-7,-89
1499878493765202,10,3,7,-29,11,5,2,12
1499878493786201,1,3,40,-52,-4,-5,-3,5
1499878493786201,6,25,30,1,0,-10,-1,6
1499878493788199,-4,-17,-31,34,-2,17,2,1
1499878493788199,-5,-5,11,106,13,-1,1,8
1499878493800200,-4,3,-32,4,-2,-1,1,-25
1499878493800200,-8,-4,38,10,-3,-6,-6,-17
1499878493809202,7,2,-28,-31,12,-6,0,24
1499878493809202,1,16,27,58,4,9,2,-20
1499878493823256,4,0,47,-77,3,-4,1,-4
1499878493823256,-6,-12,-17,8,0,11,-1,-12
1499878493825220,-9,7,6,35,1,-2,-4,-38
1499878493825220,-2,-11,-37,-22,-1,-2,-2,-28
1499878493846208,-4,-4,18,83,-7,-22,-6,6
1499878493846208,-4,-7,-73,-31,-7,13,-1,-33
1499878493848204,5,10,72,28,3,0,2,34
1499878493848204,-9,4,14,-30,0,-7,-1,-12
1499878493860209,4,1,-9,51,7,4,1,15
1499878493860209,-14,-8,-41,16,-1,0,-2,-48
1499878493869205,20,-9,-14,72,-24,-13,-1,114
1499878493869205,1,-2,-13,58,-6,-8,-6,-16
1499878493883253,-9,15,31,88,23,15,5,-19
1499878493883253,-7,-10,5,-15,-18,-8,-5,24
1499878493885227,1,1,-17,-125,-8,1,8,-34
1499878493885227,-3,4,19,-7,-10,-12,-12,15
1499878493906250,2,0,-16,20,10,18,5,0
1499878493906250,4,11,12,58,13,6,2,-1
1499878493908207,-16,-3,70,-34,-1,-3,0,-27
1499878493908207,3,-8,-53,-50,-14,-7,-2,-3
1499878493920272,4,-5,19,-65,-11,-11,-4,30
1499878493920272,-2,-3,-36,1,5,8,1,-13
1499878493929209,0,1,5,2,-8,-8,-1,14
1499878493929209,-3,4,27,-13,10,9,5,-27
1499878493943208,6,-11,-18,108,5,-1,-1,40
1499878493943208,13,9,8,-107,-19,-1,-2,4
1499878493945210,-14,-14,-18,-82,-7,-8,-8,-17
1499878493945210,8,4,10,79,8,11,9,6
1499878493966209,-8,-6,-43,-114,-19,-13,-14,-2
1499878493966209,-5,-8,25,35,1,-9,-3,-24
1499878493968209,0,6,-16,124,24,19,4,-5
1499878493968209,-1,4,84,-70,-8,-12,-2,0
1499878493980210,2,-9,-54,-9,-10,5,2,14
1499878493980210,-10,0,1,-33,17,-7,-8,-47
1499878493989231,-3,-8,-18,15,0,1,0,-18
1499878493989231,2,-4,-11,3,0,-2,-2,42
1499878494003211,-5,2,14,-3,-7,-3,2,-17
1499878494003211,3,-3,-5,-40,2,-2,-1,11
1499878494005217,-2,2,-11,77,11,4,0,-9
1499878494005217,12,10,1,-14,-7,-9,7,15
1499878494026254,0,-8,9,-6,2,12,-5,36
1499878494026254,-9,-2,-5,-65,-9,-2,-6,-26
1499878494028219,7,11,41,97,8,-6,-1,-9
1499878494028219,1,2,35,-52,-1,7,1,18
1499878494048259,1,2,-59,14,1,-1,3,-12
1499878494048259,2,1,39,127,23,5,4,-9
1499878494050218,-8,12,20,-128,-28,3,-2,-1
1499878494050218,21,6,-3,27,15,-1,-6,72
1499878494063259,-15,-16,-38,-51,-20,-9,-2,-89
1499878494063259,4,7,31,79,6,3,-3,37
1499878494065215,2,-3,-27,-19,-1,-6,2,28
1499878494065215,-2,1,-4,4,3,6,1,-10
1499878494086257,5,4,42,29,7,7,5,0
1499878494086257,-6,-11,-49,-59,-13,-9,-4,-2
1499878494088224,5,4,11,-26,12,5,2,18
1499878494088224,-8,-15,-19,96,6,-3,-6,48
1499878494108268,-5,-2,-37,-64,-12,-7,2,-22
1499878494108268,-2,1,36,66,-4,-1,0,8
1499878494110218,-6,-14,-71,9,-5,-4,1,4
1499878494110218,-1,7,18,12,1,-3,-4,-18
1499878494123268,2,5,9,63,6,-1,-2,5
1499878494123268,0,-12,-53,-92,-15,13,5,4
1499878494125225,3,-1,-8,21,-1,-1,0,-13
1499878494125225,1,1,0,-7,5,-3,2,-10
1499878494146267,4,6,39,78,3,-8,-2,35
1499878494146267,-6,-9,-3,-92,-12,-10,-2,-31
1499878494148221,3,2,12,-59,1,6,-2,9
1499878494148221,-13,-8,-4,-23,-14,-1,1,-41
1499878494168285,-1,-16,-52,-39,8,1,-3,5
1499878494168285,1,10,6,72,5,-3,-2,1
1499878494170227,-1,-2,6,0,5,6,-1,-15
1499878494170227,-1,0,32,14,-5,-7,-4,-3
1499878494183269,1,-6,-16,-18,-3,-4,-1,-18
1499878494183269,-4,10,39,66,3,-3,1,7
1499878494190221,4,-6,-33,34,6,3,0,5
1499878494190221,-24,2,-11,-86,-13,1,-1,-34
1499878494206265,9,1,25,35,-4,-1,-2,17
1499878494206265,5,-3,-38,-4,1,-7,-2,-10
1499878494208223,7,11,36,16,1,0,7,0
1499878494208223,-2,-5,-14,88,-1,-2,-8,37
1499878494228242,-12,-5,12,45,11,6,-1,-17
1499878494228242,7,-2,14,-36,-6,-2,-6,23
1499878494230225,-6,8,22,-37,2,2,3,-36
1499878494230225,4,-9,-37,25,-4,0,6,-5
1499878494243282,-3,6,3,67,3,3,-1,-46
1499878494243282,6,3,-2,-18,-3,-2,0,44
1499878494250236,-7,-6,-8,7,-9,-3,-6,-14
1499878494250236,3,-6,-12,-3,4,-7,-3,10
1499878494266268,2,-4,-35,-75,-10,-3,0,10
1499878494266268,-15,-10,5,100,2,-3,-1,-28
1499878494268232,-3,2,0,-63,-10,-8,-6,-34
1499878494268232,4,6,31,50,-1,-1,-2,-26
1499878494288290,4,7,7,-19,5,6,6,-14
1499878494288290,-12,-2,12,27,3,1,-3,3
1499878494290228,1,-4,6,89,9,1,-1,-5
1499878494290228,-9,-9,-33,-75,-21,-10,-8,-27
1499878494303284,7,1,5,34,0,-3,-1,38
1499878494303284,5,3,7,6,0,4,7,-28
1499878494310239,-11,-10,-51,5,-5,0,4,45
1499878494310239,1,-2,-28,30,15,8,-2,45
1499878494326272,-4,2,28,-16,-10,-7,-7,-49
1499878494326272,-2,-4,-19,-47,-7,-8,-5,11
1499878494328233,2,3,17,127,16,5,0,-2
1499878494328233,-5,-13,2,-49,-21,-7,-3,-18
1499878494348279,9,9,23,-11,-4,-10,-2,58
1499878494348279,-4,-4,-42,-11,3,16,3,-63
1499878494350231,6,7,47,-5,0,0,6,18
1499878494350231,0,0,13,-48,9,3,1,-8
1499878494363271,0,1,-2,15,1,-4,0,2
1499878494363271,3,0,6,-47,-6,-5,-3,-8
1499878494370237,0,-4,3,-42,-6,-5,-6,14
1499878494370237,4,0,-39,-5,-1,3,3,-12
1499878494386251,-4,3,-7,-57,4,3,-2,-8
1499878494386251,2,6,74,68,8,0,-2,39
1499878494388248,-11,-23,-85,17,-7,-10,-6,-32
1499878494388248,10,4,-9,69,-7,-16,0,17
1499878494408282,-6,-5,25,-2,-3,22,-3,-14
1499878494408282,6,6,-10,-41,1,4,6,-26
1499878494410240,-7,-5,40,-14,-11,-17,-12,35
1499878494410240,-3,2,-2,43,18,7,2,-53
1499878494422297,7,-8,-36,-37,-5,-12,-3,49
1499878494422297,-10,-8,-20,43,0,-14,-8,4
1499878494431257,-9,-1,-9,-52,-15,8,1,-10
1499878494431257,10,7,2,-64,10,7,1,6
1499878494446256,-11,-7,23,34,-1,0,0,-24
1499878494446256,11,5,14,25,-3,1,2,35
1499878494448248,-1,1,-5,11,0,-7,-4,-25
1499878494448248,-3,10,23,27,2,3,1,3
1499878494468258,6,-2,12,-15,1,11,4,39
1499878494468258,-6,-1,-14,-17,1,-8,-6,-5
1499878494470244,-1,2,35,23,-4,3,0,-21
1499878494470244,-3,1,-26,5,-6,-4,0,-19
1499878494483239,17,6,40,-25,9,-2,-5,57
1499878494483239,-19,-20,-79,24,-3,2,-3,-65
1499878494490305,6,16,67,16,-1,-7,-5,54
1499878494490305,-8,-21,-69,-60,-16,0,-2,-41
1499878494506283,-2,0,4,116,3,-7,-1,-30
1499878494506283,8,-3,10,-121,-7,-4,-3,39
1499878494508245,3,4,-18,-1,9,4,0,-4
1499878494508245,-2,-6,8,-18,0,5,3,7
1499878494528284,-5,0,-26,27,12,3,0,9
1499878494528284,-1,7,11,-54,-24,-5,0,-10
1499878494530244,3,-14,-15,-22,1,1,0,13
1499878494530244,-1,1,39,39,5,-1,-1,20
1499878494542278,-6,1,-43,55,-4,-7,-3,-44
1499878494542278,-2,-13,-44,-43,-3,5,-2,-10
1499878494551248,20,6,-5,-62,3,7,8,-4
1499878494551248,-14,0,27,49,2,-2,-6,-17
1499878494566286,0,-1,5,87,2,0,1,45
1499878494566286,4,-3,20,-46,-18,-15,-7,49
1499878494568246,6,3,-18,16,-10,1,-2,-27
1499878494568246,0,-1,-8,-43,10,10,6,34
1499878494588296,-5,-6,-57,-71,-12,-10,-6,-42
1499878494588296,4,8,53,98,11,4,4,22
1499878494590258,-2,-6,-17,-18,6,7,4,4
1499878494590258,-8,5,16,10,15,-3,0,-12
1499878494602321,-3,-2,-23,-45,-17,-6,-7,-48
1499878494602321,-5,6,25,95,12,2,-2,-18
1499878494611262,-2,-6,4,32,0,-6,-4,-2
1499878494611262,3,5,17,97,3,7,4,-14
1499878494626279,2,-9,-14,-17,0,-8,-2,5
1499878494626279,-6,-8,-19,62,10,-4,-5,-14
1499878494628262,-5,-3,6,-12,-22,-3,-5,3
1499878494628262,5,1,26,5,-3,1,0,14
1499878494648296,-4,-2,9,-3,-4,-9,1,-2
1499878494648296,8,10,-8,62,-1,6,5,27
1499878494650251,-7,3,-16,-44,6,-18,-2,-24
1499878494650251,2,-10,-4,5,-6,14,1,13
1499878494670317,-3,1,19,-104,-5,7,3,21
1499878494670317,-9,7,15,6,7,-1,-1,-103
1499878494671263,-8,-10,-28,-31,-5,-3,-5,34
1499878494671263,0,-6,-17,-31,-8,-9,3,19
1499878494685321,5,10,17,118,21,6,-1,4
1499878494685321,6,-2,-1,-99,-8,3,0,11
1499878494686261,-10,6,-16,-52,-2,2,-1,-17
1499878494686261,-1,-14,-30,-70,-18,-12,-6,-3
1499878494708302,-8,-1,5,2,9,6,4,-18
1499878494708302,8,7,-7,-32,-2,-7,-2,23
1499878494709254,5,-2,14,127,8,5,6,-53
1499878494709254,1,12,34,-6,6,0,-2,62
1499878494730314,3,-7,-20,40,-3,0,3,49
1499878494730314,-20,-3,-35,34,0,1,-6,-33
1499878494731255,0,-8,20,-83,-17,-12,-6,-4
1499878494731255,5,8,0,72,13,9,2,-13
1499878494745295,0,-3,15,-12,-1,0,-2,1
1499878494745295,-6,-4,41,-6,8,-3,-1,3
1499878494746263,6,-3,-61,-21,-4,-1,-5,-4
1499878494746263,-1,1,1,59,7,-2,-1,54
1499878494768302,8,-1,50,-84,-11,1,-1,6
1499878494768302,-2,-15,-73,-32,-5,3,3,-1
1499878494769262,-1,1,-10,37,3,-6,-1,3
1499878494769262,1,-1,-5,-13,-7,3,-3,9
1499878494790300,-11,6,6,51,4,0,0,-57
1499878494790300,12,-3,22,-48,-2,-2,0,36
1499878494791273,-15,3,52,127,10,11,0,-19
1499878494791273,4,-4,-40,-61,-17,-11,3,11
1499878494805324,-12,-5,-29,24,-5,-12,-10,-10
1499878494805324,11,9,36,-17,3,9,0,-15
1499878494806260,-2,1,25,42,2,-7,-2,26
1499878494806260,-7,-1,14,-32,7,3,-2,-44
1499878494828289,0,0,-23,-43,-16,3,5,-20
1499878494828289,3,0,30,58,-2,-10,-2,20
1499878494829262,6,1,-6,-34,2,0,-4,21
1499878494829262,8,1,25,65,5,0,2,23
1499878494850331,-14,-17,-80,-4,-9,-5,-3,-10
1499878494850331,-5,4,12,34,-5,-4,-4,-44
1499878494851274,-3,-8,-47,-76,-3,4,0,-6
1499878494851274,-4,0,22,3,-7,-8,-7,-27
1499878494865300,6,14,50,71,10,5,5,-12
1499878494865300,-14,-32,-69,34,-17,-9,-6,57
1499878494866273,7,3,36,-44,-2,-4,-2,21
1499878494866273,-5,-3,-8,-50,-9,0,-1,-48
1499878494896311,0,7,6,42,-1,-16,-9,8
1499878494896311,3,7,-3,45,13,25,14,25
1499878494897267,-8,-1,32,-76,-15,-1,1,-39
1499878494897267,3,4,-5,-18,-1,-2,0,6
1499878494910333,-1,-3,0,-85,-8,-3,-5,-9
1499878494910333,2,-7,3,45,5,-13,-5,-6
1499878494911302,-1,1,-7,0,3,2,-1,24
1499878494911302,-5,2,-4,-55,0,1,-4,-39
1499878494925336,7,2,-1,36,2,6,6,25
1499878494925336,3,13,10,-33,1,3,5,7
1499878494926285,0,-9,-16,-30,1,-3,-1,-23
1499878494926285,-18,-3,-19,71,3,-2,-6,-38
1499878494948311,2,-5,9,-102,-14,-3,2,-16
1499878494948311,4,6,-1,7,15,9,2,42
1499878494949269,-2,4,6,18,-7,-9,-1,11
1499878494949269,6,4,6,-31,7,0,0,-6
1499878494970331,1,-1,52,60,5,4,2,15
1499878494970331,-5,0,-36,-57,-5,-4,-1,-2
1499878494971306,3,0,13,68,0,1,1,37
1499878494971306,-10,-12,-63,-34,-11,-13,-7,-25
1499878494985336,-3,-2,7,10,4,5,-1,8
1499878494985336,6,3,33,15,-4,-4,1,0
1499878494986270,-5,-1,13,61,4,-7,-4,6
1499878494986270,12,-7,-20,32,-1,15,1,23
1499878495008314,-1,0,2,-51,-13,-7,-1,19
1499878495008314,0,2,7,23,1,1,-2,-14
1499878495009272,-3,-7,-3,5,3,0,0,-29
1499878495009272,-2,12,62,-8,-2,-6,-1,6
1499878495030315,-17,-18,-62,-28,-2,-4,-4,-50
1499878495030315,-2,10,36,44,1,-7,-1,-6
1499878495031273,-5,-3,-1,-17,-2,13,1,-61
1499878495031273,5,-7,-1,-28,2,-5,-1,43
1499878495045314,4,-2,-20,-49,-1,-2,-2,27
1499878495045314,-14,-4,-3,-40,-6,0,0,-102
1499878495046298,7,4,-13,72,8,-2,-5,66
1499878495046298,5,3,13,41,3,3,5,8
1499878495068308,-19,-3,1,27,5,-2,-2,0
1499878495068308,11,-2,23,-70,-13,-6,-2,12
1499878495069276,-1,-5,-52,36,-3,1,-1,-1
1499878495069276,-2,5,12,106,13,-1,-1,-23
1499878495090343,-2,-1,2,-27,-11,8,3,-15
1499878495090343,1,-10,-47,-53,-14,-12,-5,69
1499878495091276,2,-3,21,9,2,3,4,-19
1499878495091276,-9,-2,-12,63,-8,-9,-13,5
1499878495105338,4,2,30,108,15,3,3,-15
1499878495105338,3,-1,-7,23,5,-3,-4,14
1499878495106289,-10,0,-22,-117,-22,-10,0,-6
1499878495106289,-3,-5,-9,-112,-6,10,2,-13
1499878495128297,6,6,-3,-20,4,3,0,9
1499878495128297,-2,-2,-4,47,4,2,3,-3
1499878495129287,9,7,39,-16,1,2,-1,43
1499878495129287,-6,3,2,-37,-1,-3,1,-27
1499878495150347,2,-7,24,103,-5,-11,-11,34
1499878495150347,-3,-6,-63,-12,0,0,0,-46
1499878495151280,-6,8,32,25,2,2,-1,-16
1499878495151280,0,-8,-48,-45,-8,-3,1,22
1499878495165300,11,8,12,20,13,5,4,29
1499878495165300,-7,1,50,-10,-8,-7,-6,-23
1499878495173321,3,4,-2,89,16,3,1,0
1499878495173321,-5,-12,-10,-96,-10,-5,0,-12
1499878495188342,-6,2,-21,-110,-6,-4,-3,-28
1499878495188342,3,-1,3,106,10,4,1,8
1499878495189283,2,2,5,-5,-6,0,-1,-13
1499878495189283,19,8,28,27,19,8,9,57
1499878495210349,-29,-3,-5,9,-8,-2,-9,-60
1499878495210349,-10,-12,-60,-45,-8,2,0,18
1499878495211283,-1,7,11,-28,7,-7,-4,-32
1499878495211283,-11,-24,-45,76,-9,-15,0,-70
1499878495225350,19,10,47,13,11,16,1,87
1499878495225350,2,0,-16,-28,1,-2,-1,2
1499878495226312,7,-7,-29,42,-3,-4,-1,43
1499878495226312,-24,3,21,24,-3,-2,-6,21
1499878495248308,8,-7,-6,54,0,-7,0,-98
1499878495248308,-12,-3,-27,28,-1,-2,-5,48
1499878495249286,0,1,24,-91,-6,1,-4,-32
1499878495249286,19,13,31,-43,1,4,5,85
1499878495270347,-12,-14,-35,15,-4,-7,2,-42
1499878495270347,1,5,30,113,7,4,-2,-62
1499878495271287,-2,-15,-21,-35,-9,-8,1,19
1499878495271287,9,0,-1,37,-1,6,2,10
1499878495285335,-5,-2,-15,-71,-7,-12,-6,-1
1499878495285335,5,11,58,-9,-8,-2,1,-5
1499878495286288,-11,-17,-80,-32,-2,5,1,-18
1499878495286288,5,5,42,3,6,-4,-6,13
1499878495308311,-7,-6,-48,-24,-1,1,1,12
1499878495308311,17,4,15,-65,2,-3,-1,39
1499878495308311,-5,12,43,10,10,6,2,-19
1499878495308311,-10,-11,-56,-46,-13,-4,-6,-58
1499878495330359,13,-2,5,21,3,-5,0,74
1499878495330359,1,1,37,55,11,4,1,16
1499878495331291,2,-3,-5,-20,5,7,0,-16
1499878495331291,-2,5,19,-16,-9,-7,-3,-44
1499878495345305,-2,-2,-12,40,11,2,1,-24
1499878495345305,-5,-6,-13,-73,-11,-5,0,-16
1499878495346308,8,-4,-11,29,-4,-3,-1,75
1499878495346308,-3,7,25,-2,0,-3,-2,-9
1499878495368332,2,2,-11,10,7,5,3,-18
1499878495368332,-10,-8,-9,74,3,-5,-5,-58
1499878495368332,1,-5,-23,-11,7,5,0,-13
1499878495368332,1,-1,10,4,-11,-12,0,17
1499878495390363,-12,13,66,33,3,11,3,41
1499878495390363,21,1,1,-32,0,5,5,50
1499878495391303,-4,-2,-31,38,2,-1,-4,-53
1499878495391303,-3,-5,13,-11,-9,-5,2,-17
1499878495405339,-1,0,-15,-60,-9,-5,-4,-16
1499878495405339,5,2,6,5,8,2,1,20
1499878495406300,11,4,8,89,-2,-2,0,102
1499878495406300,-12,-12,-75,11,-4,-1,-8,-12
1499878495428329,5,-6,18,-106,-16,-8,-1,9
1499878495428329,1,-10,-78,-59,-11,-4,1,2
1499878495428329,2,8,19,14,-3,-6,-4,-7
1499878495428329,-2,-8,-1,17,-1,4,0,5
1499878495450362,16,7,21,78,11,6,9,34
1499878495450362,-21,-14,-34,-80,-20,-12,-14,-21
1499878495451307,4,-2,21,-14,-3,-3,-3,-6
1499878495451307,0,4,-25,39,8,8,3,-6
1499878495465332,2,2,15,14,-5,-2,-3,-7
1499878495465332,-8,5,0,15,16,6,2,-21
1499878495466297,-11,0,38,29,-15,-15,-4,0
1499878495466297,0,5,56,-35,3,3,-6,-45
1499878495488343,24,-5,-53,27,4,-2,4,84
1499878495488343,-24,11,70,73,8,7,-2,-68
1499878495488343,-2,-9,-41,10,2,3,-1,14
1499878495488343,-3,-10,-66,-47,-11,-6,-2,-5
1499878495510369,-8,5,38,28,-2,-3,-5,-13
1499878495510369,4,7,32,33,9,6,1,0
1499878495511303,-4,-4,7,-23,-9,-16,-6,-28
1499878495511303,-1,-3,2,41,10,13,4,11
1499878495525321,-6,-2,-9,-123,-12,0,-4,-30
1499878495525321,6,-1,27,66,3,1,1,44
1499878495533344,-12,-6,-18,-59,-3,3,-1,-65
1499878495533344,11,6,13,19,1,-6,-3,95
1499878495548320,-3,1,-8,31,1,-6,-8,-34
1499878495548320,7,4,-29,-54,-8,-1,0,4
1499878495548320,5,-11,40,32,3,-2,2,100
1499878495548320,1,8,37,87,17,1,6,-41
1499878495570346,-6,-6,-34,94,-3,7,-3,-12
1499878495570346,7,1,-1,-128,-24,-15,-10,-3
1499878495571305,-13,-7,-30,-12,0,1,-2,-30
1499878495571305,0,-8,-31,11,0,4,1,10
1499878495585326,0,9,11,-26,9,2,4,-5
1499878495585326,3,-6,-8,-31,2,2,2,3
1499878495593366,2,9,7,60,2,2,2,13
1499878495593366,-5,0,43,-37,-4,-6,-3,-8
1499878495608305,-4,0,12,20,0,-1,4,-47
1499878495608305,-10,-5,2,69,-7,1,1,-28
1499878495608305,3,-5,-23,-27,-15,-7,-7,13
1499878495608305,-8,0,16,-2,-13,-7,-6,-73
1499878495630347,9,-5,-28,-35,-5,-3,-4,34
1499878495630347,0,4,9,121,9,0,-1,12
1499878495631307,-6,4,18,18,22,12,2,-43
1499878495631307,23,2,8,-23,-13,-3,2,74
1499878495645311,-13,-1,16,34,0,-1,-5,-25
1499878495645311,-6,-9,-4,-24,-3,-3,-1,-33
1499878495653349,1,14,51,48,14,-1,2,-3
1499878495653349,3,0,-32,-5,1,3,-1,29
1499878495668321,-3,-9,-50,-31,-11,-3,-3,-7
1499878495668321,-6,-11,-7,10,-9,-5,-6,0
1499878495668321,10,4,31,-50,-3,2,2,39
1499878495668321,-15,-1,-18,27,11,2,2,-27
1499878495690377,9,7,31,47,11,-2,2,50
1499878495690377,-8,7,-33,-79,-8,5,3,-12
1499878495691344,6,-2,31,0,-9,-7,-8,19
1499878495691344,-4,-13,-53,-47,-7,-3,-4,-13
1499878495713353,-1,11,21,17,1,-4,-3,-3
1499878495713353,2,-1,16,55,10,3,2,6
1499878495714329,-14,-9,-46,-61,-18,-1,-2,-17
1499878495714329,2,5,2,-84,-5,-3,-1,-3
1499878495728313,-1,-4,22,33,2,-2,-1,-22
1499878495728313,5,-1,11,-31,0,-4,2,54
1499878495728313,-1,-1,-30,19,1,1,3,-5
1499878495728313,4,-5,23,68,4,-4,-2,-7
1499878495750387,-10,-1,-1,-52,-7,-4,-6,-36
1499878495750387,0,5,3,58,2,4,4,-75
1499878495751316,3,-11,-41,-42,-1,-2,-3,66
1499878495751316,1,4,15,55,-1,2,2,1
1499878495765338,4,-1,5,-79,2,-1,1,19
1499878495765338,3,-8,-19,-46,-9,-7,-2,5
1499878495773323,-3,-4,0,-22,-6,-4,-2,-39
1499878495773323,-2,1,18,45,0,4,7,-21
1499878495788362,-17,-9,-23,-11,-7,-2,-11,-14
1499878495788362,0,2,24,40,3,-4,-7,21
1499878495789335,-1,3,7,-104,-12,5,2,-18
1499878495789335,-7,7,52,31,6,-3,-1,4
1499878495818319,-1,-3,-14,77,-2,1,2,18
1499878495818319,6,-5,-59,-61,-8,-3,-3,23
1499878495819319,-6,-5,11,127,9,-2,-3,-12
1499878495819319,0,5,-21,-118,-1,-1,-2,12
1499878495825339,-4,-11,-11,2,-6,-1,0,-13
1499878495825339,3,8,28,119,15,5,2,8
1499878495833359,1,-3,-24,-23,-22,-7,-4,-14
1499878495833359,-3,0,-12,-73,-7,-7,-3,-6
1499878495848330,4,-7,-29,-15,2,6,5,72
1499878495848330,-3,3,27,60,4,0,-2,-5
1499878495848330,-3,-6,-44,-12,-6,-4,0,-7
1499878495848330,-3,-4,-5,33,2,-6,-4,-18
1499878495870388,-4,-1,20,-38,-11,-1,1,-31
1499878495870388,4,-4,7,60,3,-4,-4,75
1499878495871321,-4,7,9,31,17,12,5,-20
1499878495871321,10,-2,32,-47,-3,-2,-2,44
1499878495893382,-7,3,-60,-53,-6,-3,-3,-52
1499878495893382,9,3,18,-2,-1,1,2,-2
1499878495894363,-10,-6,8,64,5,-6,-9,-15
1499878495894363,7,-1,-32,81,7,3,2,6
1499878495908326,-8,0,49,126,9,1,3,-49
1499878495908326,-1,-5,-40,-88,-12,-4,-3,30
1499878495909325,2,4,-29,-70,1,-1,1,-28
1499878495909325,0,0,31,-39,-6,0,-1,-20
1499878495930363,6,8,41,-1,4,-2,-3,37
1499878495930363,-11,-11,-23,11,-5,-10,-3,-12
1499878495931335,5,16,46,14,11,13,6,1
1499878495931335,-1,-7,-21,36,0,0,-2,-1
1499878495953398,-2,4,-7,-21,5,-1,2,-13
1499878495953398,-5,-17,-32,-34,-20,-2,3,-14
1499878495954334,2,1,16,-38,-7,-8,-7,23
1499878495954334,-1,5,4,-4,2,2,-2,4
1499878495968338,13,1,-11,-23,-7,4,4,20
1499878495968338,1,12,19,-40,14,4,-1,-19
1499878495968338,-3,-8,9,127,7,0,4,-10
1499878495968338,-12,-13,-33,-102,-25,-6,-5,-6
1499878495990336,1,-1,-7,7,1,-6,-2,-20
1499878495990336,-1,4,26,8,2,-2,-4,-27
1499878495991330,3,14,30,8,0,3,4,3
1499878495991330,-2,-6,-11,20,10,-1,-2,4
1499878496013363,3,-3,12,38,-1,0,1,22
1499878496013363,-5,-4,-20,-78,-6,-1,0,-15
1499878496014329,0,13,28,49,16,1,0,-5
1499878496014329,4,-8,-15,40,-8,-6,-4,14
1499878496028336,-1,1,-15,-73,-5,4,1,-51
1499878496028336,-6,-6,-38,24,-9,0,0,-22
1499878496028336,3,-10,-19,67,-1,-7,0,2
1499878496028336,2,3,-2,-31,4,6,4,29
1499878496050332,-4,0,43,66,4,-4,-2,1
1499878496050332,1,6,-6,-76,-3,3,-2,13
1499878496051344,-2,-9,-24,46,6,7,0,-15
1499878496051344,-4,12,93,127,3,-5,-5,-11
1499878496073367,-2,-19,-67,-22,-21,-11,-9,23
1499878496073367,1,3,45,-12,5,0,3,-17
1499878496074341,-3,-7,-37,-28,-8,-6,-5,27
1499878496074341,-2,2,1,-2,5,3,2,-15
1499878496088334,0,0,10,-1,12,1,-2,7
1499878496088334,-4,1,41,63,-1,-4,0,-1
1499878496088334,-2,-3,-43,-43,-9,-4,0,-12
1499878496088334,-3,-10,-5,-59,6,6,1,-5
1499878496110402,-2,-4,-33,22,-3,-4,-2,8
1499878496110402,-1,-6,-28,-89,-6,-6,-1,-2
1499878496111336,6,4,37,-33,3,10,2,15
1499878496111336,-6,-1,-33,-33,-10,-8,-4,-4
1499878496133348,4,11,31,-26,0,-1,3,27
1499878496133348,-1,-4,5,104,22,3,-2,8
1499878496134343,1,6,7,-109,-21,-2,-2,-9
1499878496134343,-15,-14,-38,67,-12,-11,-6,-31
1499878496148349,4,1,9,-74,2,5,1,10
1499878496148349,1,5,22,116,8,1,2,18
1499878496148349,3,4,0,32,8,0,2,-24
1499878496148349,1,-4,-15,-50,-8,-4,-4,17
1499878496170396,-2,1,2,-53,-8,-6,-3,7
1499878496170396,0,0,-45,-22,4,10,4,-13
1499878496171339,-6,-3,48,-16,-1,-4,-4,19
1499878496171339,3,3,-18,36,6,4,3,-25
1499878496193379,4,-6,-25,49,5,0,-3,4
1499878496193379,-2,-1,-4,12,-2,0,-1,-7
1499878496194347,2,10,39,-45,-2,1,4,5
1499878496194347,-17,-10,-50,-57,-8,-6,-3,-40
1499878496208380,3,-4,2,28,-4,-5,-5,0
1499878496208380,4,2,9,-30,-7,-6,-2,14
1499878496208380,-2,-5,-24,34,1,2,-1,-3
1499878496208380,9,21,65,-35,9,7,4,12
1499878496230382,0,-6,-20,21,9,5,3,23
1499878496230382,-9,-17,23,-13,-18,-15,-10,3
1499878496231342,1,-10,-32,15,-3,-9,-2,77
1499878496231342,-3,6,15,12,5,2,-5,-56
1499878496253407,2,3,-8,4,5,0,-2,-34
1499878496253407,4,8,15,90,21,11,5,6
1499878496254375,-8,-13,-32,-114,-12,-3,0,-8
1499878496254375,1,-9,23,-3,-3,-9,-1,27
1499878496268347,-2,4,4,-9,0,4,0,11
1499878496268347,-3,-4,-29,-4,-3,-7,-4,-14
1499878496268347,-2,1,3,32,9,4,3,-27
1499878496268347,8,3,0,5,0,2,0,26
1499878496290409,-12,-4,8,0,-4,-5,-2,-38
1499878496290409,-11,0,-6,-38,0,-6,-1,-5
1499878496291346,-2,-5,-2,17,-4,3,-5,-18
1499878496291346,6,5,33,65,1,2,3,32
1499878496313349,-9,5,8,4,6,1,2,-10
1499878496313349,16,-7,-48,31,-2,1,-1,23
1499878496314362,-5,7,-10,-49,-9,-7,-5,-68
1499878496314362,-8,-16,-11,-20,-13,-6,-5,-3
1499878496328349,1,5,16,43,5,2,2,18
1499878496328349,-10,5,42,56,9,2,-3,-44
1499878496328349,-4,-6,-35,-70,-5,-5,-1,-7
1499878496328349,6,17,79,-41,-9,2,3,-16
1499878496350393,-4,-15,-65,5,-11,-6,-2,10
1499878496350393,2,-3,-12,-41,-5,-1,1,26
1499878496351361,1,0,-2,69,7,4,1,-38
1499878496351361,-1,0,-16,-23,6,2,-1,31
1499878496373414,3,4,32,86,-1,-3,-4,15
1499878496373414,-1,5,39,-85,-3,-1,1,17
1499878496374357,-2,-1,-21,-12,0,-2,-3,10
1499878496374357,1,-1,-14,17,4,-2,4,-35
1499878496388362,-1,-6,4,60,-1,6,-1,31
1499878496388362,26,5,2,-116,-8,-5,-6,88
1499878496388362,-17,-11,-18,69,1,-4,-2,-14
1499878496388362,4,1,-29,9,4,2,0,6
1499878496410421,2,4,49,42,-3,-10,-1,-16
1499878496410421,-6,1,-18,11,-17,-1,-1,27
1499878496411352,7,1,-8,3,6,3,-1,18
1499878496411352,0,0,40,67,12,2,2,20
1499878496433421,-17,-12,-29,-72,-6,-7,-5,-77
1499878496433421,-4,-10,-9,0,-2,1,2,-6
1499878496434378,9,13,34,63,7,2,0,13
1499878496434378,-1,-7,-18,30,7,4,0,-5
1499878496448394,4,1,-11,-31,-6,-1,-2,4
1499878496448394,-14,-10,-9,-66,-20,-12,-6,-36
1499878496448394,0,2,50,27,1,-1,2,20
1499878496448394,3,-1,-32,39,6,0,-1,4
1499878496470421,-3,6,39,10,0,1,0,10
1499878496470421,-2,-14,-70,46,4,1,0,-52
1499878496471389,0,-1,13,-62,-13,-6,-4,-3
1499878496471389,-1,3,-4,6,4,3,-1,23
1499878496493417,5,-6,-18,-9,-10,-2,0,21
1499878496493417,-1,0,4,69,8,0,-2,-15
1499878496494381,-3,2,5,-44,-6,-1,1,-27
1499878496494381,5,1,-24,27,2,-2,1,63
1499878496507409,-6,-6,-18,-22,-6,-1,-6,-59
1499878496507409,7,15,68,27,3,3,9,-16
