timestamp,x,y,z,w
1499878434145222,-0.659546,-0.160095,0.0996704,0.7276
1499878434161222,-0.662048,-0.156494,0.0969849,0.726501
1499878434184223,-0.663696,-0.1521,0.0944214,0.726257
1499878434205223,-0.666443,-0.14801,0.0916138,0.724976
1499878434220223,-0.669556,-0.144165,0.0856934,0.723572
1499878434244231,-0.671753,-0.138794,0.0759277,0.723694
1499878434265287,-0.674561,-0.130859,0.0653687,0.723633
1499878434321276,-0.677612,-0.122559,0.0553589,0.723022
1499878434323270,-0.679871,-0.115662,0.0453491,0.722717
1499878434328241,-0.680603,-0.109314,0.0361938,0.723572
1499878434349278,-0.681824,-0.103027,0.0286865,0.723694
1499878434367271,-0.684448,-0.0970459,0.0228271,0.722168
1499878434395238,-0.6875,-0.0916748,0.0180054,0.720154
1499878434441251,-0.689636,-0.0878906,0.0148315,0.718628
1499878434441251,-0.690552,-0.0865479,0.012146,0.718018
1499878434448241,-0.691345,-0.0861816,0.0101929,0.717285
1499878434462252,-0.692444,-0.0862427,0.00878906,0.716248
1499878434484251,-0.693176,-0.0863037,0.00823975,0.715515
1499878434515280,-0.693115,-0.0862427,0.00756836,0.715637
1499878434531245,-0.692871,-0.0856323,0.00689697,0.715881
1499878434553248,-0.693604,-0.0844727,0.00683594,0.715332
1499878434575282,-0.694763,-0.083252,0.00671387,0.714355
1499878434589266,-0.695435,-0.0819702,0.0065918,0.713867
1499878434612268,-0.695435,-0.0808716,0.00665283,0.713989
1499878434635251,-0.69574,-0.0803223,0.0067749,0.713745
1499878434649273,-0.696167,-0.0802612,0.00732422,0.713379
1499878434672275,-0.69635,-0.0803833,0.00811768,0.713135
1499878434695256,-0.69635,-0.0804443,0.0090332,0.713135
1499878434709274,-0.696045,-0.0801392,0.00982666,0.71344
1499878434732277,-0.695801,-0.0795288,0.0106201,0.713745
1499878434755258,-0.695801,-0.0790405,0.0115967,0.713806
1499878434776299,-0.695923,-0.0789795,0.0126953,0.713684
1499878434792299,-0.695862,-0.0793457,0.0133667,0.713684
1499878434815262,-0.695618,-0.0796509,0.0140381,0.713867
1499878434836302,-0.69519,-0.0799561,0.0146484,0.714233
1499878434852284,-0.694946,-0.0803223,0.0150146,0.714417
1499878434875282,-0.695007,-0.0805054,0.0155029,0.714294
1499878434896306,-0.695251,-0.0807495,0.0158081,0.71405
1499878434912268,-0.69574,-0.0809326,0.0160522,0.713562
1499878434941313,-0.695923,-0.0808716,0.0163574,0.713379
1499878434956311,-0.696106,-0.0809326,0.0168457,0.713135
1499878434972293,-0.69635,-0.0809937,0.017334,0.712891
1499878434995305,-0.696411,-0.0810547,0.0178833,0.71283
1499878435016284,-0.696594,-0.0809326,0.0184326,0.712646
1499878435032300,-0.696777,-0.0807495,0.0192261,0.712463
1499878435055276,-0.697205,-0.0805664,0.0202026,0.712036
1499878435076301,-0.697571,-0.0805054,0.0210571,0.71167
1499878435092301,-0.697998,-0.0802612,0.0219727,0.711243
1499878435115280,-0.698364,-0.079895,0.0227661,0.710876
1499878435120322,-0.698486,-0.0795898,0.0233154,0.710815
1499878435143293,-0.698608,-0.0792847,0.0238647,0.710693
1499878435165314,-0.698792,-0.0792236,0.024353,0.71051
1499878435180348,-0.699036,-0.0792236,0.0245972,0.710266
1499878435203350,-0.69928,-0.0792236,0.0249023,0.710022
1499878435225350,-0.69928,-0.0792236,0.0249023,0.710022
1499878435240333,-0.699219,-0.0792236,0.0249023,0.710022
1499878435263332,-0.699524,-0.0792847,0.0250854,0.709778
1499878435285353,-0.699646,-0.0793457,0.0253906,0.709595
1499878435300323,-0.699707,-0.0795898,0.0256348,0.709534
1499878435323331,-0.699646,-0.079895,0.0256958,0.709534
1499878435345354,-0.699524,-0.0800171,0.0259399,0.709656
1499878435360339,-0.699463,-0.0801392,0.026123,0.709717
1499878435383365,-0.699585,-0.0802612,0.0264282,0.709534
1499878435405329,-0.699646,-0.0802612,0.0266724,0.709473
1499878435422336,-0.699707,-0.0802612,0.0266724,0.709412
1499878435443298,-0.699707,-0.0801392,0.0269165,0.709412
1499878435465362,-0.699768,-0.079895,0.0270386,0.709351
1499878435482311,-0.699768,-0.0796509,0.0273438,0.709412
1499878435503374,-0.699768,-0.0796509,0.0273438,0.709412
1499878435525346,-0.699524,-0.0795898,0.0275879,0.709656
1499878435543305,-0.699524,-0.0795898,0.0275879,0.709595
1499878435563348,-0.699524,-0.0795898,0.0275879,0.709595
1499878435585378,-0.699402,-0.0794067,0.0275269,0.709717
1499878435603316,-0.699341,-0.0789795,0.02771,0.7099
1499878435623381,-0.699341,-0.0786133,0.0279541,0.7099
1499878435645335,-0.699219,-0.0783691,0.0281372,0.710022
1499878435663312,-0.698914,-0.078064,0.0283813,0.710327
1499878435683377,-0.698914,-0.0776978,0.0286255,0.710388
1499878435705355,-0.698853,-0.0773926,0.0288696,0.710449
1499878435723326,-0.698914,-0.0772095,0.0291748,0.710449
1499878435743357,-0.698914,-0.0770874,0.0293579,0.710449
1499878435765356,-0.69873,-0.0769043,0.0293579,0.710632
1499878435783317,-0.698669,-0.0766602,0.029541,0.710693
1499878435803365,-0.698853,-0.076416,0.0297241,0.710571
1499878435825385,-0.699097,-0.0760498,0.0299072,0.710327
1499878435848364,-0.699097,-0.0758057,0.0299683,0.710388
1499878435863386,-0.698914,-0.0755005,0.0299683,0.710571
1499878435885364,-0.698853,-0.0750732,0.0300293,0.710693
1499878435908367,-0.698975,-0.074707,0.0300903,0.710632
1499878435923371,-0.699036,-0.0742798,0.0303345,0.710571
1499878435945375,-0.698853,-0.0739136,0.0304565,0.710815
1499878435968373,-0.698608,-0.0737305,0.0304565,0.71106
1499878435983380,-0.698364,-0.0734253,0.0306396,0.711304
1499878436005391,-0.698547,-0.0731812,0.0307617,0.711182
1499878436028383,-0.698608,-0.072876,0.0308838,0.71106
1499878436043375,-0.698669,-0.072876,0.0308838,0.71106
1499878436065394,-0.698547,-0.0726929,0.0308838,0.711243
1499878436088378,-0.698547,-0.0724487,0.0310669,0.711182
1499878436103398,-0.698792,-0.0722656,0.031189,0.710999
1499878436125383,-0.698669,-0.0722046,0.031189,0.711121
1499878436148382,-0.698547,-0.0722046,0.0311279,0.711243
1499878436163402,-0.698486,-0.0722046,0.0311279,0.711243
1499878436185408,-0.698486,-0.0722046,0.0311279,0.711243
1499878436208373,-0.698486,-0.0722046,0.0311279,0.711243
1499878436223388,-0.698547,-0.0722046,0.0311279,0.711243
1499878436245404,-0.698547,-0.0722046,0.0311279,0.711243
1499878436268354,-0.698547,-0.0722046,0.0311279,0.711182
1499878436283412,-0.698547,-0.0718384,0.0311279,0.711304
1499878436305412,-0.698547,-0.0715942,0.03125,0.711243
1499878436328390,-0.698547,-0.0715942,0.031189,0.711304
1499878436344361,-0.698547,-0.0715942,0.031189,0.711243
1499878436365417,-0.698486,-0.0715942,0.03125,0.711365
1499878436388391,-0.698486,-0.0715942,0.03125,0.711365
1499878436404365,-0.698425,-0.0716553,0.031189,0.711365
1499878436425419,-0.698425,-0.0715942,0.03125,0.711365
1499878436448392,-0.698425,-0.0715942,0.03125,0.711365
1499878436464366,-0.698486,-0.0716553,0.031189,0.711365
1499878436485397,-0.698425,-0.0716553,0.031189,0.711365
1499878436508393,-0.698425,-0.0714722,0.0310669,0.711426
1499878436524373,-0.698425,-0.0712891,0.0309448,0.711487
1499878436545405,-0.698364,-0.071228,0.0310059,0.711487
1499878436568392,-0.698425,-0.071228,0.0310059,0.711487
1499878436584371,-0.698425,-0.071228,0.0310059,0.711487
1499878436607366,-0.698364,-0.0710449,0.0308838,0.711548
1499878436628371,-0.698364,-0.0708008,0.0307007,0.711548
1499878436646368,-0.698303,-0.0704346,0.0305786,0.71167
1499878436665376,-0.698181,-0.0701904,0.0304565,0.711792
1499878436688403,-0.698181,-0.0701904,0.0304565,0.711792
1499878436706370,-0.698181,-0.0701904,0.0304565,0.711792
1499878436733373,-0.698242,-0.0701904,0.0304565,0.711792
1499878436748373,-0.698242,-0.0701904,0.0304565,0.711731
1499878436766385,-0.69812,-0.0701294,0.0304565,0.711914
1499878436785387,-0.697998,-0.0702515,0.0303345,0.711975
1499878436808395,-0.697937,-0.0704956,0.0302124,0.712036
1499878436826412,-0.697937,-0.0705566,0.0302124,0.712036
1499878436845420,-0.698242,-0.0706177,0.0302734,0.711731
1499878436868393,-0.698303,-0.0706787,0.0302734,0.71167
1499878436885393,-0.698242,-0.0706787,0.0302734,0.71167
1499878436905451,-0.698242,-0.0703735,0.0303345,0.711731
1499878436928394,-0.698242,-0.0703735,0.0303345,0.711731
1499878436946398,-0.698242,-0.0704346,0.0303345,0.711731
1499878436965449,-0.698242,-0.0704346,0.0303345,0.711731
1499878436988398,-0.698242,-0.0704346,0.0303345,0.711731
1499878437005390,-0.698242,-0.0704346,0.0303345,0.711731
1499878437025429,-0.698242,-0.0704346,0.0302734,0.711731
1499878437048402,-0.698242,-0.0704956,0.0302734,0.711731
1499878437066399,-0.698242,-0.0704956,0.0302734,0.711731
1499878437085458,-0.698303,-0.0704956,0.0302734,0.71167
1499878437108404,-0.698303,-0.0704956,0.0302734,0.71167
1499878437125395,-0.698364,-0.0704956,0.0300293,0.711609
1499878437145438,-0.698425,-0.0702515,0.0299072,0.711609
1499878437168408,-0.698303,-0.0699463,0.0297852,0.711792
1499878437186400,-0.69812,-0.0697021,0.0296021,0.711975
1499878437205466,-0.698059,-0.069397,0.029541,0.712036
1499878437228411,-0.698059,-0.0691528,0.02948,0.712097
1499878437245412,-0.698059,-0.0691528,0.02948,0.712097
1499878437265444,-0.697998,-0.0689697,0.0293579,0.712219
1499878437288445,-0.697815,-0.0686035,0.0292969,0.712402
1499878437306406,-0.697815,-0.0682373,0.0292969,0.712402
1499878437327418,-0.697876,-0.0682373,0.0292969,0.712402
1499878437350408,-0.697815,-0.0680542,0.0291748,0.712463
1499878437365410,-0.697754,-0.0678101,0.0291138,0.712524
1499878437387411,-0.697754,-0.0678101,0.0291138,0.712524
1499878437408422,-0.697754,-0.0678101,0.0291138,0.712524
1499878437426413,-0.697754,-0.0678101,0.0291138,0.712524
1499878437447414,-0.697693,-0.0678101,0.0291748,0.712585
1499878437468434,-0.697693,-0.0678101,0.0291748,0.712585
1499878437485417,-0.697632,-0.0678101,0.0292358,0.712646
1499878437507418,-0.697632,-0.0678101,0.0292358,0.712585
1499878437528429,-0.697754,-0.067627,0.0291748,0.712524
1499878437546420,-0.697754,-0.0673218,0.0291138,0.712585
1499878437567421,-0.697754,-0.0672607,0.0291748,0.712585
1499878437588434,-0.697754,-0.0672607,0.0291748,0.712585
1499878437605433,-0.697815,-0.0673828,0.0292969,0.712463
1499878437628435,-0.697815,-0.0673828,0.0292969,0.712463
1499878437648435,-0.697815,-0.0673828,0.0292969,0.712463
1499878437665426,-0.697815,-0.0673828,0.0292969,0.712524
1499878437688428,-0.697815,-0.0673828,0.0292969,0.712524
1499878437708440,-0.697815,-0.0673828,0.0292969,0.712524
1499878437726429,-0.697815,-0.0673828,0.0292969,0.712524
1499878437748443,-0.697815,-0.0673828,0.0292969,0.712524
1499878437768432,-0.697815,-0.0673828,0.0292969,0.712463
1499878437786433,-0.697815,-0.0672607,0.0294189,0.712524
1499878437808434,-0.697815,-0.0672607,0.02948,0.712524
1499878437828446,-0.697632,-0.0670776,0.0296021,0.712708
1499878437845452,-0.697632,-0.0670776,0.0296021,0.712708
1499878437868448,-0.69751,-0.0668335,0.0296021,0.71283
1499878437888450,-0.697388,-0.0666504,0.0297241,0.712952
1499878437905440,-0.697327,-0.0665894,0.0297852,0.713013
1499878437928444,-0.697449,-0.0664063,0.0297241,0.712952
1499878437948453,-0.697388,-0.0661011,0.0296021,0.713013
1499878437966454,-0.697266,-0.065918,0.0296021,0.713135
1499878437988457,-0.697327,-0.065918,0.0296021,0.713135
1499878438008457,-0.697327,-0.065918,0.0296021,0.713135
1499878438026446,-0.697327,-0.065918,0.0296021,0.713074
1499878438048456,-0.697327,-0.065918,0.0296021,0.713074
1499878438071450,-0.697327,-0.065918,0.0296021,0.713074
1499878438085462,-0.697327,-0.065918,0.0296021,0.713074
1499878438108452,-0.697266,-0.0661011,0.029541,0.713135
1499878438128464,-0.697266,-0.0661011,0.029541,0.713135
1499878438146453,-0.697266,-0.0661011,0.029541,0.713135
1499878438168456,-0.697571,-0.065918,0.0296631,0.712891
1499878438188468,-0.697632,-0.0656128,0.0296631,0.71283
1499878438205458,-0.697388,-0.0652466,0.0297241,0.713074
1499878438228469,-0.697327,-0.0650024,0.0299072,0.713135
1499878438249494,-0.697327,-0.0649414,0.0301514,0.713135
1499878438265462,-0.697388,-0.0648804,0.0303345,0.713135
1499878438288474,-0.697266,-0.0648193,0.0304565,0.713196
1499878438309497,-0.697266,-0.0648193,0.0304565,0.713196
1499878438325467,-0.697327,-0.0648804,0.0304565,0.713196
1499878438348466,-0.697327,-0.0648804,0.0304565,0.713196
1499878438369499,-0.697327,-0.0648804,0.0303955,0.713135
1499878438386468,-0.697327,-0.0649414,0.0303955,0.713135
1499878438408469,-0.697388,-0.0649414,0.0303955,0.713135
1499878438429503,-0.697266,-0.0648193,0.0302124,0.713196
1499878438446471,-0.697327,-0.0646973,0.0299683,0.713196
1499878438468472,-0.697388,-0.0646362,0.0298462,0.713135
1499878438489508,-0.697388,-0.0646362,0.0298462,0.713135
1499878438505477,-0.697388,-0.0645752,0.0296021,0.713196
1499878438528488,-0.697388,-0.0645752,0.0296021,0.713196
1499878438550519,-0.697388,-0.0645752,0.0296021,0.713196
1499878438565506,-0.697449,-0.0645142,0.0293579,0.713135
1499878438588493,-0.697449,-0.0643311,0.0291748,0.713135
1499878438610493,-0.697327,-0.064209,0.0290527,0.713257
1499878438626482,-0.697388,-0.0641479,0.0290527,0.713257
1499878438648485,-0.697327,-0.0641479,0.0290527,0.713257
1499878438671484,-0.697388,-0.0641479,0.0290527,0.713257
1499878438686486,-0.697388,-0.0641479,0.0290527,0.713257
1499878438708491,-0.697388,-0.064209,0.0290527,0.713257
1499878438730490,-0.697388,-0.064209,0.0290527,0.713196
1499878438751517,-0.697388,-0.064209,0.0290527,0.713196
1499878438768490,-0.697388,-0.064209,0.0290527,0.713196
1499878438790492,-0.697388,-0.064209,0.0290527,0.713196
1499878438811494,-0.697388,-0.064209,0.0290527,0.713196
1499878438828497,-0.697449,-0.064209,0.0290527,0.713196
1499878438850496,-0.697449,-0.064209,0.0290527,0.713196
1499878438871518,-0.697449,-0.06427,0.0289917,0.713196
1499878438887537,-0.697449,-0.06427,0.0289917,0.713196
1499878438910502,-0.697449,-0.06427,0.0289917,0.713135
1499878438931517,-0.697632,-0.0643311,0.0289917,0.712952
1499878438947541,-0.697693,-0.0643311,0.0289917,0.712952
1499878438970501,-0.697693,-0.0643311,0.0289917,0.712952
1499878438991518,-0.697693,-0.0643921,0.0289917,0.712891
1499878439007504,-0.697693,-0.0643921,0.0289917,0.712891
1499878439030505,-0.697754,-0.0643311,0.0288696,0.71283
1499878439051507,-0.697754,-0.0643311,0.0288696,0.71283
1499878439067508,-0.697754,-0.0643311,0.0288696,0.71283
1499878439090510,-0.697754,-0.0643311,0.0288696,0.71283
1499878439111544,-0.697754,-0.0641479,0.0287476,0.712891
1499878439127548,-0.697876,-0.0639038,0.0286255,0.712769
1499878439150515,-0.697937,-0.0636597,0.0286255,0.712769
1499878439171525,-0.697937,-0.0636597,0.0286255,0.712769
1499878439187528,-0.697937,-0.0636597,0.0286255,0.712769
1499878439210517,-0.697815,-0.0635376,0.0284424,0.712891
1499878439231529,-0.697693,-0.0631714,0.0284424,0.713074
1499878439247531,-0.697876,-0.0629272,0.0283813,0.712891
1499878439270527,-0.697876,-0.0629272,0.0283813,0.712891
1499878439291530,-0.697876,-0.0629272,0.0283813,0.712891
1499878439307554,-0.697693,-0.0629883,0.0283813,0.713013
1499878439330525,-0.697693,-0.0629883,0.0283813,0.713013
1499878439351534,-0.697754,-0.0629883,0.0283813,0.713013
1499878439367537,-0.697815,-0.0632324,0.0283813,0.712952
1499878439390535,-0.697815,-0.0632935,0.0283813,0.712891
1499878439410536,-0.697876,-0.0634766,0.0281982,0.71283
1499878439427530,-0.697937,-0.0635376,0.0281982,0.712769
1499878439450530,-0.698059,-0.0635986,0.0280762,0.712646
1499878439471541,-0.698059,-0.0635986,0.0280762,0.712646
1499878439487567,-0.698059,-0.0636597,0.0280151,0.712646
1499878439510534,-0.698059,-0.0636597,0.0280151,0.712646
1499878439532545,-0.698059,-0.0636597,0.0280151,0.712646
1499878439547543,-0.698059,-0.0636597,0.0280151,0.712646
1499878439570537,-0.698059,-0.0637207,0.0280151,0.712646
1499878439592544,-0.698059,-0.0637207,0.0279541,0.712646
1499878439607562,-0.698059,-0.0637207,0.0279541,0.712646
1499878439630542,-0.698059,-0.0637817,0.0279541,0.712646
1499878439652551,-0.69812,-0.0637817,0.0278931,0.712585
1499878439667554,-0.69812,-0.0637817,0.0278931,0.712585
1499878439690543,-0.69812,-0.0637817,0.0278931,0.712585
1499878439712551,-0.697998,-0.0640259,0.0279541,0.712708
1499878439726555,-0.697937,-0.06427,0.0280151,0.712708
