timestamp,roll,pitch,yaw
1499878375999119,-1.59065,-0.0596822,0.570297
1499878376021057,-1.59062,-0.0596796,0.567946
1499878376036097,-1.59025,-0.0598003,0.565605
1499878376060104,-1.59055,-0.0600875,0.562931
1499878376081096,-1.59097,-0.0604946,0.559886
1499878376096100,-1.59157,-0.0608623,0.556316
1499878376151101,-1.59268,-0.0607449,0.55205
1499878376153098,-1.59597,-0.0603784,0.548032
1499878376160089,-1.60205,-0.0592948,0.545415
1499878376173099,-1.6074,-0.0578963,0.54656
1499878376195083,-1.608,-0.0544461,0.55242
1499878376216101,-1.60013,-0.0484121,0.561991
1499878376233103,-1.59511,-0.0452276,0.57033
1499878376286111,-1.59093,-0.0466333,0.575119
1499878376287088,-1.58148,-0.0468957,0.577392
1499878376294082,-1.57803,-0.0475521,0.57605
1499878376314103,-1.58428,-0.0500176,0.570659
1499878376337115,-1.58756,-0.0487949,0.565245
1499878376361088,-1.58194,-0.0479875,0.563012
1499878376382098,-1.57389,-0.0489985,0.563829
1499878376398099,-1.57231,-0.0501623,0.566116
1499878376421099,-1.57376,-0.0499401,0.568136
1499878376442118,-1.57468,-0.0496966,0.569608
1499878376458081,-1.57472,-0.0501331,0.570418
1499878376481082,-1.57558,-0.0509813,0.57118
1499878376502101,-1.57722,-0.0520821,0.57067
1499878376518091,-1.58009,-0.0515896,0.570016
1499878376541096,-1.58285,-0.050602,0.569541
1499878376555104,-1.58722,-0.0492623,0.569389
1499878376578105,-1.59166,-0.0475111,0.569748
1499878376601089,-1.59459,-0.0469277,0.57045
1499878376615090,-1.59752,-0.0468697,0.570614
1499878376638131,-1.59964,-0.0464332,0.570304
1499878376661093,-1.60043,-0.045681,0.569601
1499878376682093,-1.60197,-0.0449412,0.568253
1499878376698099,-1.6054,-0.0435397,0.566809
1499878376721095,-1.60873,-0.0430187,0.565161
1499878376742097,-1.60915,-0.0437356,0.562944
1499878376758130,-1.60691,-0.0443198,0.560469
1499878376781111,-1.60588,-0.0442763,0.559005
1499878376802147,-1.60478,-0.0446012,0.558085
1499878376818106,-1.60461,-0.0446488,0.558081
1499878376841113,-1.60372,-0.0444686,0.558333
1499878376862143,-1.60341,-0.046341,0.558358
1499878376878129,-1.60318,-0.0471297,0.558011
1499878376901107,-1.60186,-0.0472244,0.557154
1499878376922171,-1.60164,-0.0476605,0.556625
1499878376938148,-1.60259,-0.0480425,0.555865
1499878376961152,-1.603,-0.047939,0.55498
1499878376982121,-1.60319,-0.0481267,0.554156
1499878376998152,-1.60309,-0.0481912,0.553277
1499878377021126,-1.60283,-0.0477216,0.552895
1499878377042128,-1.60305,-0.048286,0.552462
1499878377058155,-1.6038,-0.0475601,0.552121
1499878377081128,-1.6038,-0.0474502,0.552195
1499878377103157,-1.60391,-0.0473468,0.552119
1499878377118126,-1.60469,-0.0474912,0.552148
1499878377141140,-1.60404,-0.0471173,0.551566
1499878377163121,-1.60373,-0.0463975,0.551269
1499878377178121,-1.60457,-0.045969,0.551456
1499878377201135,-1.60457,-0.045969,0.551456
1499878377223134,-1.60412,-0.0461082,0.551635
1499878377237144,-1.60333,-0.0460639,0.552065
1499878377267166,-1.60332,-0.0459706,0.55269
1499878377283129,-1.60369,-0.0460331,0.553236
1499878377306142,-1.60369,-0.0460331,0.553236
1499878377327174,-1.60319,-0.0460906,0.553317
1499878377343141,-1.60351,-0.0461805,0.553691
1499878377366170,-1.60399,-0.0465752,0.55425
1499878377387172,-1.60414,-0.0472319,0.554618
1499878377403143,-1.6035,-0.0477972,0.554992
1499878377426150,-1.60272,-0.0481737,0.55496
1499878377447205,-1.60267,-0.0480075,0.554954
1499878377463147,-1.60327,-0.0482241,0.554997
1499878377486140,-1.60289,-0.0483201,0.554798
1499878377507174,-1.60206,-0.0483718,0.554411
1499878377523148,-1.60156,-0.0485135,0.554399
1499878377546144,-1.60151,-0.0484311,0.5543
1499878377568145,-1.60112,-0.0483593,0.554286
1499878377583154,-1.60018,-0.048289,0.554272
1499878377606148,-1.59902,-0.0482411,0.554045
1499878377628161,-1.59835,-0.0482625,0.554214
1499878377643155,-1.59784,-0.0482368,0.554387
1499878377666172,-1.59719,-0.0479635,0.554266
1499878377688159,-1.59641,-0.0476528,0.554424
1499878377703161,-1.59607,-0.0477398,0.554949
1499878377726154,-1.59611,-0.0480916,0.555321
1499878377748157,-1.59527,-0.0482446,0.555394
1499878377762173,-1.5944,-0.0477692,0.555356
1499878377786195,-1.5944,-0.0477692,0.555356
1499878377808158,-1.59406,-0.0478638,0.555348
1499878377822178,-1.59356,-0.0478964,0.555412
1499878377845162,-1.59373,-0.047875,0.555434
1499878377868162,-1.59373,-0.047875,0.555434
1499878377882205,-1.59356,-0.0478129,0.555504
1499878377906176,-1.59356,-0.0478129,0.555504
1499878377928174,-1.59356,-0.0478129,0.555504
1499878377942177,-1.59356,-0.0478129,0.555504
1499878377966168,-1.59356,-0.0478129,0.555504
1499878377988177,-1.59366,-0.0477279,0.555979
1499878378002191,-1.5942,-0.0483484,0.556431
1499878378026172,-1.59463,-0.0485859,0.55645
1499878378048214,-1.59463,-0.0485024,0.556543
1499878378062192,-1.59463,-0.0485024,0.556543
1499878378086174,-1.59463,-0.0485024,0.556543
1499878378108176,-1.59463,-0.0485024,0.556543
1499878378129176,-1.59463,-0.0485024,0.556543
1499878378146179,-1.59458,-0.0483362,0.556537
1499878378168180,-1.59458,-0.0483362,0.556537
1499878378189223,-1.59458,-0.0483362,0.556537
1499878378206195,-1.59458,-0.0483362,0.556537
1499878378228189,-1.59458,-0.0483362,0.556537
1499878378249198,-1.59453,-0.0482536,0.556439
1499878378266204,-1.59453,-0.0482536,0.556439
1499878378288195,-1.59453,-0.0482536,0.556439
1499878378309232,-1.59453,-0.0482536,0.556439
1499878378333202,-1.59453,-0.0482536,0.556439
1499878378348218,-1.59453,-0.0482536,0.556439
1499878378369230,-1.59441,-0.04882,0.556621
1499878378386194,-1.59473,-0.0490206,0.55692
1499878378408201,-1.59482,-0.0497057,0.557111
1499878378429228,-1.59559,-0.0497646,0.557231
1499878378445228,-1.59581,-0.0497736,0.557316
1499878378468204,-1.59625,-0.050011,0.557335
1499878378489237,-1.59642,-0.0499896,0.557358
1499878378506202,-1.5962,-0.0499284,0.557237
1499878378528205,-1.59637,-0.0498809,0.557241
1499878378551202,-1.59637,-0.0498809,0.557241
1499878378573203,-1.59637,-0.0498809,0.557241
1499878378588206,-1.59581,-0.0497736,0.557316
1499878378611204,-1.59581,-0.0497736,0.557316
1499878378626211,-1.59576,-0.0496911,0.557217
1499878378648221,-1.59576,-0.0496911,0.557217
1499878378670268,-1.59581,-0.0497736,0.557316
1499878378685237,-1.59565,-0.0499046,0.557219
1499878378708209,-1.59565,-0.0499046,0.557219
1499878378731224,-1.5956,-0.049822,0.557121
1499878378745217,-1.5956,-0.0497385,0.557213
1499878378768214,-1.5956,-0.0497385,0.557213
1499878378790254,-1.5956,-0.0497385,0.557213
1499878378805237,-1.5956,-0.0497385,0.557213
1499878378828216,-1.5956,-0.0497385,0.557213
1499878378850275,-1.59554,-0.0496559,0.557115
1499878378865223,-1.59571,-0.049551,0.55723
1499878378888220,-1.59521,-0.0495838,0.557292
1499878378910287,-1.59521,-0.0495838,0.557292
1499878378925222,-1.59521,-0.0495838,0.557292
1499878378948228,-1.59493,-0.0497353,0.557365
1499878378971229,-1.59509,-0.049714,0.557387
1499878378985239,-1.59509,-0.049714,0.557387
1499878379008230,-1.59514,-0.0501494,0.557666
1499878379031230,-1.59501,-0.0507158,0.557848
1499878379052234,-1.59478,-0.0511431,0.557851
1499878379068233,-1.59511,-0.0514844,0.557948
1499878379090261,-1.59577,-0.0519498,0.557903
1499878379112234,-1.59587,-0.0524491,0.557729
1499878379128236,-1.59614,-0.0529271,0.557578
1499878379151238,-1.5962,-0.0532602,0.557399
1499878379172264,-1.59603,-0.0535582,0.557117
1499878379188247,-1.5962,-0.053537,0.557139
1499878379210239,-1.5962,-0.053537,0.557139
1499878379232240,-1.5962,-0.053537,0.557139
1499878379248243,-1.5962,-0.053537,0.557139
1499878379270271,-1.59615,-0.0533446,0.557115
1499878379292250,-1.59615,-0.0533446,0.557115
1499878379308285,-1.59631,-0.0533234,0.557138
1499878379331247,-1.59631,-0.0533234,0.557138
1499878379352284,-1.59631,-0.0533234,0.557138
1499878379368281,-1.59648,-0.0532759,0.557142
1499878379391251,-1.59648,-0.0532759,0.557142
1499878379412251,-1.59648,-0.0531924,0.557235
1499878379428254,-1.59648,-0.0531924,0.557235
1499878379451255,-1.59643,-0.0531097,0.557136
1499878379472255,-1.59643,-0.0531097,0.557136
1499878379488266,-1.59643,-0.0530835,0.557118
1499878379511257,-1.59643,-0.0530835,0.557118
1499878379533293,-1.59659,-0.0530623,0.55714
1499878379548270,-1.59659,-0.0530623,0.55714
1499878379571263,-1.59659,-0.0530623,0.55714
1499878379593271,-1.59665,-0.0531186,0.557221
1499878379608270,-1.59665,-0.0531186,0.557221
1499878379630283,-1.59714,-0.0534386,0.55734
1499878379653300,-1.59696,-0.0539223,0.557425
1499878379667289,-1.59639,-0.0544632,0.557971
1499878379690268,-1.59665,-0.0553697,0.558443
1499878379713281,-1.59752,-0.0560031,0.558834
1499878379727306,-1.59845,-0.0565599,0.558977
1499878379750320,-1.59868,-0.056929,0.558711
1499878379773271,-1.59884,-0.0568244,0.558826
1499878379794317,-1.59879,-0.0567418,0.558727
1499878379810322,-1.59879,-0.0567418,0.558727
1499878379833312,-1.59879,-0.0567418,0.558727
1499878379847311,-1.59879,-0.0567418,0.558727
1499878379870347,-1.59879,-0.0567153,0.558709
1499878379893290,-1.59879,-0.0567153,0.558709
1499878379907300,-1.59895,-0.0566942,0.558731
1499878379930285,-1.59895,-0.0566942,0.558731
1499878379953283,-1.59896,-0.0566677,0.558714
1499878379967303,-1.59896,-0.0566677,0.558714
1499878379990327,-1.59896,-0.0566677,0.558714
1499878380013286,-1.59917,-0.0570816,0.559017
1499878380018296,-1.59917,-0.0570816,0.559017
1499878380036297,-1.59917,-0.0570816,0.559017
1499878380056326,-1.59917,-0.0570551,0.558999
1499878380078354,-1.59917,-0.0570551,0.558999
1499878380096291,-1.59917,-0.0569715,0.559092
1499878380116311,-1.59917,-0.0569715,0.559092
1499878380138344,-1.59917,-0.056998,0.559109
1499878380156296,-1.59917,-0.056998,0.559109
1499878380176304,-1.59922,-0.0573313,0.558931
1499878380198337,-1.59928,-0.0573873,0.559012
1499878380221337,-1.59894,-0.0576762,0.558836
1499878380236334,-1.59911,-0.0576551,0.558859
1499878380258301,-1.59911,-0.0576551,0.558859
1499878380281343,-1.59911,-0.0576286,0.558841
1499878380296347,-1.59911,-0.0576286,0.558841
1499878380318303,-1.59894,-0.0581121,0.558926
1499878380341344,-1.59876,-0.0586223,0.559029
1499878380356346,-1.59876,-0.0586223,0.559029
1499878380378318,-1.59925,-0.0589419,0.559151
1499878380401319,-1.59925,-0.0588318,0.559225
1499878380416353,-1.59926,-0.0589153,0.559133
1499878380438353,-1.59942,-0.0588943,0.559155
1499878380461351,-1.59942,-0.0588943,0.559155
1499878380476353,-1.59942,-0.0588943,0.559155
1499878380498360,-1.59992,-0.0588264,0.559611
1499878380521328,-1.60002,-0.0592336,0.560066
1499878380536355,-1.60018,-0.0592125,0.560089
1499878380558317,-1.60018,-0.0592125,0.560089
1499878380581341,-1.60084,-0.0594576,0.560198
1499878380596323,-1.60139,-0.0598327,0.560402
1499878380618390,-1.60139,-0.0598327,0.560402
1499878380641322,-1.60139,-0.0598327,0.560402
1499878380656324,-1.60139,-0.0598327,0.560402
1499878380678329,-1.60139,-0.0598327,0.560402
1499878380701325,-1.60139,-0.0598594,0.56042
1499878380716356,-1.60139,-0.0598327,0.560402
1499878380738368,-1.60139,-0.0598594,0.56042
1499878380761339,-1.60139,-0.0598327,0.560402
1499878380776358,-1.60079,-0.0599211,0.560115
1499878380798332,-1.60079,-0.0599211,0.560115
1499878380821361,-1.6009,-0.0598176,0.560039
1499878380836343,-1.60095,-0.0599001,0.560138
1499878380858335,-1.60095,-0.0598734,0.56012
1499878380881346,-1.60095,-0.0598734,0.56012
1499878380896336,-1.60112,-0.0598524,0.560143
1499878380918338,-1.60112,-0.0598257,0.560125
1499878380941368,-1.60112,-0.0598257,0.560125
1499878380956375,-1.60112,-0.0598257,0.560125
1499878380978384,-1.6015,-0.0602486,0.560324
1499878381001382,-1.60155,-0.06071,0.560624
1499878381016384,-1.60155,-0.06071,0.560624
1499878381038386,-1.60155,-0.0606833,0.560606
1499878381061386,-1.60155,-0.0606833,0.560606
1499878381077387,-1.60155,-0.0606833,0.560606
1499878381098361,-1.60155,-0.0606833,0.560606
1499878381121389,-1.60155,-0.0606833,0.560606
1499878381137390,-1.60155,-0.0606833,0.560606
1499878381158353,-1.60155,-0.0606833,0.560606
1499878381181382,-1.60155,-0.0607669,0.560514
1499878381197355,-1.60155,-0.0607669,0.560514
1499878381218366,-1.60155,-0.0607669,0.560514
1499878381241358,-1.60155,-0.0607669,0.560514
1499878381257398,-1.60172,-0.0607459,0.560537
1499878381278393,-1.60193,-0.0612164,0.560732
1499878381301361,-1.60193,-0.0612164,0.560732
1499878381317367,-1.60193,-0.0613,0.56064
1499878381338364,-1.60193,-0.0613,0.56064
1499878381361404,-1.60193,-0.0613,0.56064
1499878381379368,-1.60193,-0.0612164,0.560732
1499878381398406,-1.6016,-0.0610434,0.560447
