timestamp,roll,pitch,yaw
1499878477660272,-1.52626,-0.0986098,-0.00115807
1499878477682281,-1.51193,-0.106302,0.00118964
1499878477705331,-1.50758,-0.108432,0.00262149
1499878477720328,-1.51288,-0.10737,0.00224554
1499878477744270,-1.51412,-0.107144,0.000591751
1499878477765337,-1.51148,-0.108857,-0.00011926
1499878477780314,-1.50998,-0.112233,-4.27372e-005
1499878477804291,-1.5138,-0.113129,0.00118246
1499878477834279,-1.51643,-0.114271,0.00207954
1499878477843312,-1.51546,-0.114878,0.00209481
1499878477864302,-1.51561,-0.114531,0.00211428
1499878477879322,-1.51759,-0.1135,0.00242495
1499878477900345,-1.51903,-0.111776,0.00272215
1499878477924294,-1.52046,-0.109537,0.00320323
1499878477970346,-1.51993,-0.108263,0.00416089
1499878477971289,-1.51908,-0.107417,0.00482942
1499878477984324,-1.52037,-0.105612,0.00555126
1499878477998326,-1.52217,-0.104059,0.00585398
1499878478021299,-1.52376,-0.102743,0.00536342
1499878478044310,-1.52503,-0.10186,0.00475688
1499878478059291,-1.52597,-0.100979,0.00413178
1499878478082292,-1.52709,-0.0993394,0.0044842
1499878478104311,-1.52889,-0.0974477,0.00512979
1499878478125357,-1.53018,-0.0957223,0.0055743
1499878478142296,-1.53082,-0.0944304,0.00588886
1499878478164342,-1.53164,-0.0933178,0.00655368
1499878478185367,-1.53262,-0.0921929,0.00688281
1499878478202299,-1.53396,-0.0911621,0.00748109
1499878478224322,-1.53395,-0.0905685,0.00792128
1499878478246328,-1.53377,-0.0898832,0.00827218
1499878478262303,-1.53495,-0.0890285,0.00903072
1499878478284304,-1.53646,-0.0885859,0.00902059
1499878478306331,-1.53709,-0.087969,0.00862828
1499878478322339,-1.53653,-0.0871924,0.00835533
1499878478344328,-1.5372,-0.0865024,0.00874294
1499878478365378,-1.53788,-0.0861627,0.00912127
1499878478382345,-1.53739,-0.0864252,0.00935766
1499878478404312,-1.5376,-0.0868614,0.00961787
1499878478425376,-1.53832,-0.0872974,0.0100739
1499878478442324,-1.53936,-0.0877229,0.0100261
1499878478464330,-1.54005,-0.0879772,0.00996608
1499878478486333,-1.54005,-0.0879772,0.00996608
1499878478502335,-1.54005,-0.0879772,0.00996608
1499878478524350,-1.54037,-0.0877995,0.00981069
1499878478547358,-1.54037,-0.0877995,0.00981069
1499878478562321,-1.53953,-0.0879774,0.00977013
1499878478584340,-1.53902,-0.0882386,0.00965679
1499878478607324,-1.53832,-0.088319,0.00901897
1499878478621331,-1.5374,-0.0877896,0.00812356
1499878478644368,-1.53685,-0.0874399,0.00776025
1499878478667338,-1.53685,-0.0874399,0.00776025
1499878478682338,-1.53617,-0.08727,0.00773292
1499878478704339,-1.53477,-0.0870047,0.00724772
1499878478727330,-1.53389,-0.0865751,0.00695486
1499878478741343,-1.53321,-0.086574,0.00692829
1499878478764353,-1.53287,-0.0864057,0.00708961
1499878478787339,-1.53254,-0.0863298,0.00733257
1499878478801341,-1.53171,-0.0864212,0.00755658
1499878478832345,-1.53121,-0.0863422,0.00779547
1499878478847337,-1.53071,-0.0865213,0.00794279
1499878478861339,-1.53071,-0.0865213,0.00794279
1499878478884350,-1.53056,-0.0866139,0.00819325
1499878478907342,-1.53108,-0.0866996,0.00830058
1499878478921363,-1.53108,-0.0866996,0.00830058
1499878478951343,-1.53125,-0.0866988,0.00830808
1499878478967347,-1.53125,-0.0866988,0.00830808
1499878478989364,-1.5314,-0.086691,0.00796938
1499878479010416,-1.5314,-0.086691,0.00796938
1499878479027359,-1.5314,-0.086691,0.00796938
1499878479049363,-1.53226,-0.0868641,0.00800027
1499878479072352,-1.53275,-0.0869398,0.00758843
1499878479087362,-1.53253,-0.0867467,0.00672202
1499878479109389,-1.53249,-0.0866451,0.00594473
1499878479132364,-1.53249,-0.0866451,0.00594473
1499878479147366,-1.53249,-0.0866451,0.00594473
1499878479177356,-1.53198,-0.0869017,0.00565767
1499878479192360,-1.53143,-0.0867168,0.0049461
1499878479206364,-1.53087,-0.0863585,0.00423805
1499878479229394,-1.52965,-0.0859205,0.00376184
1499878479252371,-1.52912,-0.0856569,0.00348528
1499878479266368,-1.52912,-0.0856569,0.00348528
1499878479289364,-1.52875,-0.0852196,0.00321985
1499878479312379,-1.52753,-0.0849575,0.00273767
1499878479326364,-1.52666,-0.0846096,0.00253544
1499878479349395,-1.52664,-0.0841712,0.00246187
1499878479372381,-1.52662,-0.0838251,0.00229296
1499878479386404,-1.5256,-0.0835697,0.00251828
1499878479409369,-1.52461,-0.0836685,0.00290552
1499878479432370,-1.52496,-0.0833374,0.00344361
1499878479446379,-1.52512,-0.0829103,0.00372018
1499878479469416,-1.52493,-0.0823879,0.00372813
1499878479492385,-1.52426,-0.0824821,0.00378083
1499878479506386,-1.52426,-0.0824821,0.00378083
1499878479529412,-1.52461,-0.0825699,0.00405598
1499878479552377,-1.52495,-0.0826534,0.00398178
1499878479573444,-1.52513,-0.0828297,0.0039817
1499878479589401,-1.52493,-0.0824762,0.00363632
1499878479612393,-1.52473,-0.0821188,0.00329436
1499878479633444,-1.52473,-0.0821226,0.00329103
1499878479649421,-1.52473,-0.0821226,0.00329103
1499878479672396,-1.52473,-0.0821226,0.00329103
1499878479693434,-1.52473,-0.0821226,0.00329103
1499878479709425,-1.52471,-0.0821951,0.00268345
1499878479732399,-1.52503,-0.0821864,0.00235161
1499878479753435,-1.52586,-0.0822613,0.00195265
1499878479769427,-1.52671,-0.0824288,0.00163496
1499878479792402,-1.52755,-0.0828506,0.00140518
1499878479813433,-1.52725,-0.0837126,0.00137555
1499878479829416,-1.52591,-0.0843992,0.000956004
1499878479852428,-1.52608,-0.0844874,0.00104791
1499878479873438,-1.52708,-0.084136,0.00092627
1499878479889419,-1.52774,-0.0840467,0.000694155
1499878479912403,-1.52671,-0.084125,0.000215959
1499878479933442,-1.52635,-0.0838561,-0.000225464
1499878479949438,-1.52683,-0.0835867,-0.000453984
1499878479972413,-1.52767,-0.0834168,-0.000417619
1499878479993467,-1.52768,-0.0835051,-0.000332964
1499878480009444,-1.52767,-0.0834168,-0.000417619
1499878480032417,-1.52767,-0.0834168,-0.000417619
1499878480054446,-1.52834,-0.0828198,-0.000119821
1499878480069447,-1.52867,-0.0825581,-9.988e-006
1499878480092423,-1.52916,-0.0819611,0.000280114
1499878480114412,-1.5283,-0.0815275,0.000167315
1499878480129411,-1.52811,-0.0809276,0.000256267
1499878480152412,-1.52828,-0.0806734,0.000528325
1499878480174421,-1.52914,-0.0805949,0.000997585
1499878480189430,-1.52914,-0.080676,0.000912655
1499878480212418,-1.52898,-0.0807646,0.000990378
1499878480234418,-1.52916,-0.0808563,0.0010787
1499878480249418,-1.52935,-0.0810362,0.00142817
1499878480272420,-1.52937,-0.0809623,0.00203555
1499878480294422,-1.52889,-0.0809742,0.00270996
1499878480309425,-1.52876,-0.0810811,0.00365276
1499878480332422,-1.52864,-0.0815306,0.00441535
1499878480354427,-1.529,-0.0814521,0.00486381
1499878480369429,-1.52918,-0.0815437,0.00495235
1499878480392474,-1.52901,-0.0815405,0.00494854
1499878480414430,-1.52901,-0.0815405,0.00494854
1499878480429432,-1.52952,-0.081627,0.00505444
1499878480452464,-1.52952,-0.081627,0.00505444
1499878480474451,-1.52953,-0.0817153,0.0051392
1499878480489435,-1.52936,-0.0818006,0.00504385
1499878480512471,-1.52936,-0.0818006,0.00504385
1499878480534458,-1.52887,-0.0825717,0.00475026
1499878480555491,-1.52836,-0.0830815,0.00419886
1499878480572475,-1.52854,-0.0836811,0.00393383
1499878480594448,-1.52909,-0.0847143,0.00376106
1499878480615504,-1.52909,-0.0853071,0.00331934
1499878480632477,-1.52891,-0.0857275,0.00269724
1499878480654439,-1.52908,-0.0859777,0.0022666
1499878480675505,-1.52956,-0.0860506,0.00168138
1499878480692481,-1.52953,-0.0858668,0.00116571
1499878480714469,-1.52934,-0.0858599,0.000812125
1499878480735502,-1.52899,-0.0857684,0.000539453
1499878480752485,-1.52965,-0.0853331,0.0004915
1499878480774477,-1.53048,-0.0848167,0.000535296
1499878480795515,-1.52995,-0.0843864,0.000608621
1499878480812489,-1.52961,-0.0843021,0.000682318
1499878480834449,-1.52961,-0.0843868,0.00059401
1499878480855517,-1.5303,-0.0842202,0.000796249
1499878480872491,-1.53114,-0.0842192,0.0008327
1499878480894453,-1.53096,-0.0844666,0.000391142
1499878480915515,-1.53094,-0.0842869,-0.000128173
1499878480932494,-1.53125,-0.0839337,-0.000452846
1499878480954478,-1.53156,-0.0835839,-0.000604565
1499878480977499,-1.53157,-0.083757,-0.000607968
1499878480992483,-1.53157,-0.083757,-0.000607968
1499878481014476,-1.53106,-0.0837536,-0.000626144
1499878481037487,-1.53123,-0.0837572,-0.000622473
1499878481058505,-1.53156,-0.0837536,-0.000781025
1499878481074493,-1.53156,-0.0837536,-0.000781025
1499878481097491,-1.53156,-0.0837536,-0.000781025
1499878481111470,-1.53157,-0.0838418,-0.000696199
1499878481134486,-1.53157,-0.0839267,-0.000784431
1499878481157471,-1.5314,-0.0839231,-0.000788102
1499878481171472,-1.5314,-0.0839231,-0.000788102
1499878481194474,-1.53137,-0.0835738,-0.00113097
1499878481217474,-1.53137,-0.083489,-0.00104273
1499878481231485,-1.53083,-0.0831325,-0.00139999
1499878481254483,-1.53081,-0.0826983,-0.00165445
1499878481277488,-1.53081,-0.0826983,-0.00165445
1499878481291479,-1.53081,-0.0826983,-0.00165445
1499878481314490,-1.53098,-0.0826983,-0.00164729
1499878481337509,-1.53098,-0.0826983,-0.00164729
1499878481351482,-1.53098,-0.0826983,-0.00164729
1499878481374489,-1.53098,-0.0826983,-0.00164729
1499878481397519,-1.53098,-0.0826983,-0.00164729
1499878481411487,-1.53098,-0.0826983,-0.00164729
1499878481434494,-1.53098,-0.0826983,-0.00164729
1499878481457488,-1.53098,-0.0827866,-0.0015625
1499878481478531,-1.53118,-0.0829665,-0.00121269
1499878481494490,-1.53121,-0.0834076,-0.000788659
1499878481517491,-1.53104,-0.0834041,-0.000792307
1499878481538536,-1.53104,-0.0834041,-0.000792307
1499878481554502,-1.53173,-0.0837501,-0.00094683
1499878481577508,-1.53173,-0.0837501,-0.00094683
1499878481598551,-1.53173,-0.0837501,-0.00094683
1499878481614503,-1.53155,-0.0837465,-0.000950487
1499878481637498,-1.53155,-0.0837465,-0.000950487
1499878481658542,-1.53156,-0.0837502,-0.000954083
1499878481674510,-1.53205,-0.0834006,-0.00109865
1499878481697501,-1.53255,-0.0833971,-0.00125004
1499878481718544,-1.53255,-0.0834853,-0.00116517
1499878481734515,-1.53188,-0.0834855,-0.00119409
1499878481757506,-1.53188,-0.0835703,-0.00128231
1499878481778548,-1.53188,-0.0835703,-0.00128231
1499878481794520,-1.53188,-0.0835703,-0.00128231
1499878481817510,-1.53171,-0.0835703,-0.00128955
1499878481838550,-1.5317,-0.0835667,-0.00128594
1499878481854517,-1.53171,-0.0836585,-0.00120472
1499878481877550,-1.53102,-0.0834822,-0.00140329
1499878481899513,-1.53015,-0.083387,-0.00187031
1499878481914514,-1.53015,-0.083387,-0.00187031
1499878481937522,-1.53082,-0.0832988,-0.0019262
1499878481959525,-1.53082,-0.0832988,-0.0019262
1499878481974525,-1.53014,-0.0832952,-0.00212811
1499878481997520,-1.53014,-0.0832952,-0.00212811
1499878482019533,-1.53013,-0.0832916,-0.00212449
1499878482034521,-1.53013,-0.0832916,-0.00212449
1499878482057556,-1.53013,-0.0832916,-0.00212449
1499878482079538,-1.52964,-0.0836376,-0.0021533
1499878482094526,-1.52981,-0.0835565,-0.00206138
1499878482117560,-1.53015,-0.0835565,-0.0020469
1499878482139535,-1.53015,-0.0835565,-0.0020469
1499878482153548,-1.52981,-0.0837259,-0.00206131
1499878482177566,-1.52933,-0.0841603,-0.00200557
1499878482199544,-1.5295,-0.0841639,-0.00200194
1499878482213564,-1.5295,-0.0841603,-0.00199828
1499878482237534,-1.5295,-0.0841603,-0.00199828
1499878482259547,-1.5295,-0.084245,-0.00208661
1499878482273536,-1.52933,-0.084245,-0.0020939
1499878482297536,-1.5295,-0.084245,-0.00208661
1499878482319546,-1.5295,-0.084245,-0.00208661
1499878482334541,-1.52933,-0.084245,-0.0020939
1499878482357540,-1.52915,-0.0840719,-0.00209757
1499878482362573,-1.52947,-0.0835564,-0.00207585
1499878482385563,-1.52947,-0.0835564,-0.00207585
1499878482401542,-1.52879,-0.083468,-0.00201282
1499878482422601,-1.52846,-0.0835563,-0.0019426
1499878482445551,-1.52846,-0.0835563,-0.0019426
1499878482462546,-1.52846,-0.0835563,-0.0019426
1499878482482580,-1.52846,-0.0835563,-0.0019426
1499878482505569,-1.52864,-0.0836447,-0.00185067
1499878482522550,-1.52864,-0.0836447,-0.00185067
1499878482542608,-1.52864,-0.0836447,-0.00185067
1499878482565574,-1.52864,-0.0836447,-0.00185067
1499878482582554,-1.52864,-0.0836447,-0.00185067
1499878482602602,-1.52864,-0.0836447,-0.00185067
1499878482625578,-1.52863,-0.0835563,-0.00193536
1499878482642558,-1.52863,-0.0835563,-0.00193536
1499878482662607,-1.52863,-0.0835563,-0.00193536
1499878482685580,-1.52864,-0.0836447,-0.00185067
1499878482707602,-1.52864,-0.0836447,-0.00185067
1499878482722616,-1.52864,-0.0836447,-0.00185067
1499878482745580,-1.52864,-0.0836447,-0.00185067
1499878482767626,-1.52797,-0.0836483,-0.0017066
1499878482782637,-1.52833,-0.083744,-0.00126133
1499878482805569,-1.52851,-0.0837513,-0.000907981
1499878482827606,-1.52769,-0.0839359,-0.00042883
1499878482842626,-1.52704,-0.0842863,-0.000115806
1499878482865590,-1.52704,-0.0842901,-0.00011938
1499878482887616,-1.52705,-0.0843785,-3.47465e-005
1499878482902639,-1.52705,-0.0843748,-3.11724e-005
1499878482925595,-1.52705,-0.0844594,-0.000119591
1499878482947637,-1.52705,-0.0844594,-0.000119591
1499878482962584,-1.52705,-0.0841246,0.000230524
1499878482985615,-1.52672,-0.0838749,0.000654315
1499878483007632,-1.52623,-0.0838834,0.00115519
1499878483022647,-1.52575,-0.0838113,0.00174101
1499878483044581,-1.52577,-0.0837385,0.0023486
1499878483067644,-1.5263,-0.0834951,0.00297831
1499878483082646,-1.52596,-0.0832423,0.00340563
1499878483105606,-1.52596,-0.0832423,0.00340563
1499878483127651,-1.52599,-0.0834231,0.00374787
1499878483142654,-1.52585,-0.0835277,0.00434104
1499878483165610,-1.52623,-0.0836306,0.00513231
1499878483187654,-1.52577,-0.0839942,0.00597149
1499878483202636,-1.52415,-0.0847135,0.00674828
