timestamp,x,y,z,w
1499878477660272,-0.690369,-0.0352173,-0.0344849,0.721741
1499878477682281,-0.684998,-0.0390625,-0.0360107,0.726624
1499878477705331,-0.68335,-0.0404053,-0.0361328,0.728088
1499878477720328,-0.685303,-0.0397949,-0.0360107,0.726318
1499878477744270,-0.685791,-0.0391235,-0.0365601,0.72583
1499878477765337,-0.684814,-0.0395508,-0.0373535,0.726685
1499878477780314,-0.684204,-0.0408325,-0.0384521,0.727112
1499878477804291,-0.685547,-0.0415039,-0.0383911,0.72583
1499878477834279,-0.686462,-0.0421753,-0.0385132,0.724915
1499878477843312,-0.686096,-0.0424194,-0.0386963,0.72522
1499878477864302,-0.686157,-0.0422974,-0.0385742,0.725159
1499878477879322,-0.68689,-0.0419922,-0.038147,0.724548
1499878477900345,-0.687439,-0.0414429,-0.0374756,0.724121
1499878477924294,-0.687988,-0.0407715,-0.0365601,0.723694
1499878477970346,-0.687805,-0.0406494,-0.0357666,0.723877
1499878477971289,-0.6875,-0.0405884,-0.0352173,0.724182
1499878477984324,-0.687988,-0.0401611,-0.0343628,0.723755
1499878477998326,-0.68866,-0.0396729,-0.0337524,0.723206
1499878478021299,-0.68927,-0.0390015,-0.0335083,0.722656
1499878478044310,-0.689758,-0.0384521,-0.0334473,0.722229
1499878478059291,-0.690125,-0.0379028,-0.0333862,0.721924
1499878478082292,-0.690552,-0.0374146,-0.0327148,0.721558
1499878478104311,-0.691223,-0.0369263,-0.0318604,0.721008
1499878478125357,-0.691711,-0.036438,-0.0311279,0.720581
1499878478142296,-0.691956,-0.0360718,-0.0305786,0.720398
1499878478164342,-0.692261,-0.0358887,-0.0299683,0.720154
1499878478185367,-0.692627,-0.0355835,-0.02948,0.719788
1499878478202299,-0.693115,-0.0354004,-0.0289307,0.71936
1499878478224322,-0.693115,-0.0353394,-0.0285645,0.719421
1499878478246328,-0.693054,-0.0352173,-0.0281982,0.719482
1499878478262303,-0.693481,-0.0351563,-0.0276489,0.719116
1499878478284304,-0.694031,-0.0349731,-0.0275269,0.718567
1499878478306331,-0.694275,-0.0346069,-0.0274658,0.718323
1499878478322339,-0.694092,-0.0342407,-0.0272827,0.718567
1499878478344328,-0.694336,-0.0341187,-0.0269165,0.718323
1499878478365378,-0.69458,-0.0341187,-0.0266724,0.71814
1499878478382345,-0.694397,-0.0343018,-0.0266724,0.718262
1499878478404312,-0.694458,-0.0345459,-0.0267334,0.718201
1499878478425376,-0.694702,-0.0348511,-0.0267334,0.717957
1499878478442324,-0.695068,-0.0349731,-0.0269165,0.71759
1499878478464330,-0.695313,-0.0350342,-0.0270386,0.717346
1499878478486333,-0.695313,-0.0350342,-0.0270386,0.717346
1499878478502335,-0.695313,-0.0350342,-0.0270386,0.717346
1499878478524350,-0.695435,-0.0349121,-0.0270386,0.717224
1499878478547358,-0.695435,-0.0349121,-0.0270386,0.717224
1499878478562321,-0.695129,-0.0349731,-0.0270996,0.717529
1499878478584340,-0.694946,-0.0350342,-0.0272217,0.717712
1499878478607324,-0.694702,-0.0348511,-0.0274658,0.717957
1499878478621331,-0.694397,-0.0343628,-0.0275879,0.718262
1499878478644368,-0.694214,-0.0341187,-0.0275879,0.718445
1499878478667338,-0.694214,-0.0341187,-0.0275879,0.718445
1499878478682338,-0.69397,-0.0340576,-0.0275269,0.718689
1499878478704339,-0.693481,-0.0338135,-0.0275879,0.719116
1499878478727330,-0.693176,-0.0335693,-0.0275269,0.719482
1499878478741343,-0.692932,-0.0335693,-0.0275269,0.719666
1499878478764353,-0.69281,-0.0335693,-0.0274048,0.719788
1499878478787339,-0.692688,-0.0336304,-0.0272827,0.719971
1499878478801341,-0.692383,-0.0337524,-0.0272217,0.720215
1499878478832345,-0.6922,-0.0338135,-0.0270996,0.720398
1499878478847337,-0.692017,-0.0339355,-0.0270996,0.720581
1499878478861339,-0.692017,-0.0339355,-0.0270996,0.720581
1499878478884350,-0.691956,-0.0340576,-0.0270386,0.720642
1499878478907342,-0.692139,-0.0341187,-0.0270386,0.720459
1499878478921363,-0.692139,-0.0341187,-0.0270386,0.720459
1499878478951343,-0.6922,-0.0341187,-0.0270386,0.720398
1499878478967347,-0.6922,-0.0341187,-0.0270386,0.720398
1499878478989364,-0.692261,-0.0339966,-0.0271606,0.720337
1499878479010416,-0.692261,-0.0339966,-0.0271606,0.720337
1499878479027359,-0.692261,-0.0339966,-0.0271606,0.720337
1499878479049363,-0.692566,-0.0340576,-0.0272217,0.720093
1499878479072352,-0.692749,-0.0339355,-0.0274048,0.71991
1499878479087362,-0.692688,-0.0335693,-0.0276489,0.71991
1499878479109389,-0.692688,-0.0332642,-0.0278931,0.71991
1499878479132364,-0.692688,-0.0332642,-0.0278931,0.71991
1499878479147366,-0.692688,-0.0332642,-0.0278931,0.71991
1499878479177356,-0.692505,-0.0332642,-0.0280762,0.720093
1499878479192360,-0.692322,-0.032959,-0.0282593,0.720276
1499878479206364,-0.692139,-0.0325928,-0.0283813,0.720459
1499878479229394,-0.691711,-0.0322876,-0.0283813,0.720886
1499878479252371,-0.691528,-0.0321045,-0.0283813,0.721069
1499878479266368,-0.691528,-0.0321045,-0.0283813,0.721069
1499878479289364,-0.691406,-0.0318604,-0.0283203,0.721191
1499878479312379,-0.690979,-0.0316162,-0.0283813,0.72168
1499878479326364,-0.690674,-0.0314331,-0.0283203,0.721985
1499878479349395,-0.690674,-0.03125,-0.0281982,0.721924
1499878479372381,-0.690674,-0.0310669,-0.0281372,0.721985
1499878479386404,-0.690308,-0.0310669,-0.0279541,0.72229
1499878479409369,-0.689941,-0.03125,-0.027832,0.722656
1499878479432370,-0.690063,-0.031311,-0.0275269,0.722595
1499878479446379,-0.690125,-0.03125,-0.0272827,0.722534
1499878479469416,-0.690063,-0.0310669,-0.0270996,0.722534
1499878479492385,-0.689819,-0.0311279,-0.0270996,0.722839
1499878479506386,-0.689819,-0.0311279,-0.0270996,0.722839
1499878479529412,-0.689941,-0.03125,-0.0270386,0.722656
1499878479552377,-0.690063,-0.03125,-0.0270996,0.722534
1499878479573444,-0.690125,-0.031311,-0.0271606,0.722534
1499878479589401,-0.690063,-0.0310669,-0.0271606,0.722595
1499878479612393,-0.690002,-0.0308228,-0.0271606,0.722595
1499878479633444,-0.690002,-0.0308228,-0.0271606,0.722656
1499878479649421,-0.690002,-0.0308228,-0.0271606,0.722656
1499878479672396,-0.690002,-0.0308228,-0.0271606,0.722656
1499878479693434,-0.690002,-0.0308228,-0.0271606,0.722656
1499878479709425,-0.690002,-0.0306396,-0.0274048,0.722656
1499878479732399,-0.690125,-0.0305176,-0.0275269,0.722534
1499878479753435,-0.69043,-0.0303955,-0.02771,0.722229
1499878479769427,-0.690735,-0.0303345,-0.0278931,0.721985
1499878479792402,-0.69104,-0.0303955,-0.0281372,0.721619
1499878479813433,-0.690918,-0.0307007,-0.0284424,0.72168
1499878479829416,-0.69043,-0.0308228,-0.0288086,0.722168
1499878479852428,-0.690491,-0.0308838,-0.0288086,0.722107
1499878479873438,-0.690857,-0.0307007,-0.0287476,0.721741
1499878479889419,-0.691101,-0.0305786,-0.0288086,0.721558
1499878479912403,-0.690735,-0.0304565,-0.0289917,0.721924
1499878479933442,-0.690613,-0.0302124,-0.0290527,0.722046
1499878479949438,-0.690796,-0.0300293,-0.0290527,0.721802
1499878479972413,-0.691101,-0.0299683,-0.0289917,0.721558
1499878479993467,-0.691101,-0.0300293,-0.0289917,0.721558
1499878480009444,-0.691101,-0.0299683,-0.0289917,0.721558
1499878480032417,-0.691101,-0.0299683,-0.0289917,0.721558
1499878480054446,-0.691345,-0.0298462,-0.0286865,0.721375
1499878480069447,-0.691467,-0.0297852,-0.0285645,0.721191
1499878480092423,-0.69165,-0.0296631,-0.0282593,0.721069
1499878480114412,-0.691345,-0.02948,-0.0281372,0.721375
1499878480129411,-0.691284,-0.0292969,-0.0278931,0.721497
1499878480152412,-0.691345,-0.0292969,-0.02771,0.721436
1499878480174421,-0.69165,-0.0294189,-0.0275269,0.72113
1499878480189430,-0.69165,-0.0294189,-0.0275879,0.721069
1499878480212418,-0.691589,-0.02948,-0.0275879,0.72113
1499878480234418,-0.69165,-0.029541,-0.0275879,0.72113
1499878480249418,-0.691711,-0.0297241,-0.0275269,0.721069
1499878480272420,-0.691711,-0.0299072,-0.0272827,0.721069
1499878480294422,-0.691528,-0.0301514,-0.0270386,0.721191
1499878480309425,-0.691467,-0.0305176,-0.0267334,0.721252
1499878480332422,-0.691406,-0.0309448,-0.0266113,0.721313
1499878480354427,-0.691528,-0.0310669,-0.0264282,0.721191
1499878480369429,-0.691589,-0.0311279,-0.0264282,0.721191
1499878480392474,-0.691528,-0.0311279,-0.0264282,0.721191
1499878480414430,-0.691528,-0.0311279,-0.0264282,0.721191
1499878480429432,-0.691711,-0.031189,-0.0264282,0.721008
1499878480452464,-0.691711,-0.031189,-0.0264282,0.721008
1499878480474451,-0.691711,-0.03125,-0.0264282,0.721008
1499878480489435,-0.69165,-0.03125,-0.0264893,0.721069
1499878480512471,-0.69165,-0.03125,-0.0264893,0.721069
1499878480534458,-0.691467,-0.0314331,-0.0268555,0.721191
1499878480555491,-0.691284,-0.0314331,-0.0272217,0.721375
1499878480572475,-0.691345,-0.0315552,-0.0275269,0.721313
1499878480594448,-0.691528,-0.0318604,-0.0279541,0.72113
1499878480615504,-0.691528,-0.0319214,-0.0283203,0.721069
1499878480632477,-0.691467,-0.0318604,-0.0286865,0.72113
1499878480654439,-0.691528,-0.0317993,-0.0289307,0.721069
1499878480675505,-0.691711,-0.0316162,-0.0291748,0.720886
1499878480692481,-0.691711,-0.0313721,-0.0292969,0.720886
1499878480714469,-0.69165,-0.03125,-0.0294189,0.720947
1499878480735502,-0.691528,-0.0311279,-0.02948,0.721069
1499878480752485,-0.691772,-0.0309448,-0.0293579,0.720825
1499878480774477,-0.692078,-0.0307617,-0.0291748,0.720581
1499878480795515,-0.691895,-0.0306396,-0.0289917,0.720764
1499878480812489,-0.691772,-0.0306396,-0.0289307,0.720886
1499878480834449,-0.691772,-0.0306396,-0.0289917,0.720886
1499878480855517,-0.692017,-0.0306396,-0.0288696,0.720703
1499878480872491,-0.692322,-0.0306396,-0.0288696,0.720398
1499878480894453,-0.692261,-0.0305786,-0.0291138,0.720398
1499878480915515,-0.692261,-0.0303345,-0.0292358,0.720459
1499878480932494,-0.692383,-0.0300903,-0.0292358,0.720337
1499878480954478,-0.692505,-0.0299072,-0.0291748,0.720215
1499878480977499,-0.692505,-0.0299683,-0.0292358,0.720215
1499878480992483,-0.692505,-0.0299683,-0.0292358,0.720215
1499878481014476,-0.692322,-0.0299683,-0.0292358,0.720337
1499878481037487,-0.692383,-0.0299683,-0.0292358,0.720337
1499878481058505,-0.692505,-0.0299072,-0.0292969,0.720215
1499878481074493,-0.692505,-0.0299072,-0.0292969,0.720215
1499878481097491,-0.692505,-0.0299072,-0.0292969,0.720215
1499878481111470,-0.692505,-0.0299683,-0.0292969,0.720215
1499878481134486,-0.692505,-0.0299683,-0.0293579,0.720215
1499878481157471,-0.692444,-0.0299683,-0.0293579,0.720215
1499878481171472,-0.692444,-0.0299683,-0.0293579,0.720215
1499878481194474,-0.692444,-0.0297241,-0.0293579,0.720276
1499878481217474,-0.692444,-0.0297241,-0.0292969,0.720276
1499878481231485,-0.692261,-0.02948,-0.0292969,0.720398
1499878481254483,-0.692261,-0.0292358,-0.0292358,0.720459
1499878481277488,-0.692261,-0.0292358,-0.0292358,0.720459
1499878481291479,-0.692261,-0.0292358,-0.0292358,0.720459
1499878481314490,-0.692322,-0.0292358,-0.0292358,0.720398
1499878481337509,-0.692322,-0.0292358,-0.0292358,0.720398
1499878481351482,-0.692322,-0.0292358,-0.0292358,0.720398
1499878481374489,-0.692322,-0.0292358,-0.0292358,0.720398
1499878481397519,-0.692322,-0.0292358,-0.0292358,0.720398
1499878481411487,-0.692322,-0.0292358,-0.0292358,0.720398
1499878481434494,-0.692322,-0.0292358,-0.0292358,0.720398
1499878481457488,-0.692322,-0.0292969,-0.0292358,0.720398
1499878481478531,-0.692383,-0.02948,-0.0291748,0.720337
1499878481494490,-0.692383,-0.0297852,-0.0291748,0.720337
1499878481517491,-0.692322,-0.0297852,-0.0291748,0.720337
1499878481538536,-0.692322,-0.0297852,-0.0291748,0.720337
1499878481554502,-0.692566,-0.0298462,-0.0293579,0.720154
1499878481577508,-0.692566,-0.0298462,-0.0293579,0.720154
1499878481598551,-0.692566,-0.0298462,-0.0293579,0.720154
1499878481614503,-0.692505,-0.0298462,-0.0293579,0.720154
1499878481637498,-0.692505,-0.0298462,-0.0293579,0.720154
1499878481658542,-0.692505,-0.0298462,-0.0293579,0.720215
1499878481674510,-0.692688,-0.0296631,-0.0292969,0.720032
1499878481697501,-0.692871,-0.0296021,-0.0293579,0.719849
1499878481718544,-0.692871,-0.0296631,-0.0293579,0.719849
1499878481734515,-0.692627,-0.0296631,-0.0293579,0.720093
1499878481757506,-0.692627,-0.0296631,-0.0294189,0.720093
1499878481778548,-0.692627,-0.0296631,-0.0294189,0.720093
1499878481794520,-0.692627,-0.0296631,-0.0294189,0.720093
1499878481817510,-0.692566,-0.0296631,-0.0294189,0.720154
1499878481838550,-0.692566,-0.0296631,-0.0294189,0.720093
1499878481854517,-0.692566,-0.0297241,-0.0294189,0.720154
1499878481877550,-0.692322,-0.0296021,-0.0294189,0.720398
1499878481899513,-0.692017,-0.0294189,-0.029541,0.720703
1499878481914514,-0.692017,-0.0294189,-0.029541,0.720703
1499878481937522,-0.692261,-0.0293579,-0.029541,0.720459
1499878481959525,-0.692261,-0.0293579,-0.029541,0.720459
1499878481974525,-0.692017,-0.0292969,-0.0296021,0.720703
1499878481997520,-0.692017,-0.0292969,-0.0296021,0.720703
1499878482019533,-0.692017,-0.0292969,-0.0296021,0.720642
1499878482034521,-0.692017,-0.0292969,-0.0296021,0.720642
1499878482057556,-0.692017,-0.0292969,-0.0296021,0.720642
1499878482079538,-0.691833,-0.0294189,-0.0297241,0.720825
1499878482094526,-0.691895,-0.0294189,-0.0296631,0.720825
1499878482117560,-0.692017,-0.0294189,-0.0296631,0.720703
1499878482139535,-0.692017,-0.0294189,-0.0296631,0.720703
1499878482153548,-0.691895,-0.02948,-0.0297241,0.720764
1499878482177566,-0.691711,-0.0296631,-0.0298462,0.720947
1499878482199544,-0.691772,-0.0296631,-0.0298462,0.720947
1499878482213564,-0.691772,-0.0296631,-0.0298462,0.720886
1499878482237534,-0.691772,-0.0296631,-0.0298462,0.720886
1499878482259547,-0.691772,-0.0296631,-0.0299072,0.720886
1499878482273536,-0.691711,-0.0296631,-0.0299072,0.720947
1499878482297536,-0.691772,-0.0296631,-0.0299072,0.720886
1499878482319546,-0.691772,-0.0296631,-0.0299072,0.720886
1499878482334541,-0.691711,-0.0296631,-0.0299072,0.720947
1499878482357540,-0.69165,-0.0296021,-0.0298462,0.721008
1499878482362573,-0.691772,-0.0294189,-0.0296631,0.720947
1499878482385563,-0.691772,-0.0294189,-0.0296631,0.720947
1499878482401542,-0.691528,-0.0294189,-0.0296021,0.72113
1499878482422601,-0.691406,-0.02948,-0.0296021,0.721252
1499878482445551,-0.691406,-0.02948,-0.0296021,0.721252
1499878482462546,-0.691406,-0.02948,-0.0296021,0.721252
1499878482482580,-0.691406,-0.02948,-0.0296021,0.721252
1499878482505569,-0.691467,-0.029541,-0.0296021,0.721191
1499878482522550,-0.691467,-0.029541,-0.0296021,0.721191
1499878482542608,-0.691467,-0.029541,-0.0296021,0.721191
1499878482565574,-0.691467,-0.029541,-0.0296021,0.721191
1499878482582554,-0.691467,-0.029541,-0.0296021,0.721191
1499878482602602,-0.691467,-0.029541,-0.0296021,0.721191
1499878482625578,-0.691467,-0.02948,-0.0296021,0.721191
1499878482642558,-0.691467,-0.02948,-0.0296021,0.721191
1499878482662607,-0.691467,-0.02948,-0.0296021,0.721191
1499878482685580,-0.691467,-0.029541,-0.0296021,0.721191
1499878482707602,-0.691467,-0.029541,-0.0296021,0.721191
1499878482722616,-0.691467,-0.029541,-0.0296021,0.721191
1499878482745580,-0.691467,-0.029541,-0.0296021,0.721191
1499878482767626,-0.691223,-0.0296021,-0.029541,0.721436
1499878482782637,-0.691345,-0.0297852,-0.0294189,0.721313
1499878482805569,-0.691406,-0.0299072,-0.0292969,0.721252
1499878482827606,-0.691101,-0.0301514,-0.0291748,0.721558
1499878482842626,-0.690857,-0.0303955,-0.0291748,0.721741
1499878482865590,-0.690857,-0.0303955,-0.0291748,0.721802
1499878482887616,-0.690857,-0.0304565,-0.0291748,0.721802
1499878482902639,-0.690857,-0.0304565,-0.0291748,0.721741
1499878482925595,-0.690857,-0.0304565,-0.0292358,0.721741
1499878482947637,-0.690857,-0.0304565,-0.0292358,0.721741
1499878482962584,-0.690857,-0.0304565,-0.0289917,0.721802
1499878482985615,-0.690735,-0.0305176,-0.0287476,0.721924
1499878483007632,-0.690552,-0.0307007,-0.0285645,0.722046
1499878483022647,-0.690369,-0.0308838,-0.0283203,0.722229
1499878483044581,-0.690369,-0.0310669,-0.0280762,0.722229
1499878483067644,-0.690552,-0.031189,-0.027771,0.722107
1499878483082646,-0.69043,-0.03125,-0.0275269,0.722168
1499878483105606,-0.69043,-0.03125,-0.0275269,0.722168
1499878483127651,-0.69043,-0.0314331,-0.0274658,0.722168
1499878483142654,-0.690369,-0.0316772,-0.0272827,0.72229
1499878483165610,-0.690491,-0.0319824,-0.0270386,0.722168
1499878483187654,-0.690308,-0.0324097,-0.0268555,0.72229
1499878483202636,-0.689697,-0.032959,-0.0267944,0.7229
