timestamp,emg1,emg2,emg3,emg4,emg5,emg6,emg7,emg8
1499894914899508,-6,-1,-11,3,2,1,-4,7
1499894914899508,2,-5,-2,-17,-3,-3,1,-16
1499894914901515,-3,-2,11,25,-2,-1,-5,-1
1499894914901515,0,-2,6,-37,-1,-1,0,20
1499894914921508,5,1,-6,-9,-2,0,9,-23
1499894914921508,-5,0,-5,-25,-3,-1,-4,2
1499894914922510,-1,-2,-29,29,1,-2,-4,-6
1499894914922510,-2,-2,7,-56,-6,-3,-8,41
1499894914936512,-5,1,12,44,3,2,10,17
1499894914936512,-4,-7,-17,-36,-1,0,-2,3
1499894914937511,5,3,1,-21,1,1,-2,-2
1499894914937511,1,2,-4,30,5,4,1,2
1499894914958511,0,-2,-1,-31,-4,-5,-4,-4
1499894914958511,13,4,9,35,-1,0,-2,50
1499894914960515,-10,-7,-8,-17,-2,-3,-6,-3
1499894914960515,-1,-2,2,36,-4,-5,-2,-12
1499894914981512,-5,-2,-1,9,0,0,-2,-17
1499894914981512,-1,1,0,8,3,3,0,13
1499894914982515,2,1,9,-27,-3,-2,-2,-3
1499894914982515,2,0,-2,41,0,-2,-1,-13
1499894914995527,1,-1,-4,-16,-8,-4,-2,8
1499894914995527,0,-1,24,58,2,-1,2,-11
1499894915002514,-2,-4,-24,-64,-8,-2,-1,-4
1499894915002514,9,-5,-3,-21,-8,-4,11,12
1499894915018519,-7,2,3,42,3,-2,-11,-37
1499894915018519,-12,-6,-22,-76,-8,-4,-7,-23
1499894915020516,2,2,11,60,8,5,20,60
1499894915020516,-9,2,-3,-25,1,0,-6,-64
1499894915041516,23,1,-7,-15,-1,1,5,39
1499894915041516,26,3,2,9,-3,2,-3,0
1499894915042517,-17,-1,-1,61,5,1,-10,-54
1499894915042517,8,-2,10,-3,-2,-4,3,-55
1499894915055530,-5,1,1,22,1,2,-1,-7
1499894915055530,-51,-11,-19,-38,-10,-8,2,-6
1499894915062518,8,-10,-36,-3,-6,-5,-5,18
1499894915062518,11,2,1,4,2,-1,-4,85
1499894915077520,-6,1,22,41,-1,-1,-12,-37
1499894915077520,3,9,23,30,9,4,5,2
1499894915086520,-5,-4,-1,-1,0,-1,-3,1
1499894915086520,-29,-5,-31,-25,-6,-2,-9,-61
1499894915101519,29,4,41,-111,-3,2,16,11
1499894915101519,28,5,2,111,3,-3,-6,-5
1499894915102519,-43,-1,34,-113,-10,-4,-1,23
1499894915102519,1,-13,-37,69,-13,-5,-6,18
1499894915115520,-16,4,-1,36,7,0,5,-48
1499894915115520,-10,1,7,28,6,2,-8,35
1499894915122528,4,6,15,27,16,7,0,-76
1499894915122528,8,4,0,-58,-7,-1,5,35
1499894915138524,-7,-9,-13,-5,-7,-6,-9,26
1499894915138524,0,-5,-5,-22,-5,-4,-1,27
1499894915140526,21,-1,-11,55,-2,-2,0,-3
1499894915140526,-43,1,13,6,7,2,3,-13
1499894915161524,42,-4,-17,-8,-3,0,-5,83
1499894915161524,5,-3,-23,-59,-5,1,3,-27
1499894915162526,-17,10,18,-20,6,0,-17,49
1499894915162526,22,-10,-5,-10,-9,-4,7,-5
1499894915175525,-40,-4,-20,0,-3,-3,3,-88
1499894915175525,8,-3,-13,-11,-1,-2,-10,11
1499894915182552,0,-3,-5,26,-8,-3,-3,20
1499894915182552,-1,5,19,-39,5,4,4,23
1499894915198527,-17,3,-21,91,0,0,-2,45
1499894915198527,-2,-7,5,3,-4,0,15,-35
1499894915200525,12,9,29,3,1,-2,0,-42
1499894915200525,7,-12,-23,-27,2,-4,-9,4
1499894915221557,-5,-7,12,-6,-9,-6,-4,5
1499894915221557,1,4,2,10,7,1,-5,-53
1499894915222530,6,-2,-19,-57,-9,0,9,14
1499894915222530,-1,10,16,76,13,10,11,74
1499894915236528,-16,-1,16,-25,2,0,-10,-3
1499894915236528,22,0,-10,66,-3,-1,18,41
1499894915249550,-20,-3,7,-47,-3,-1,-8,-87
1499894915249550,-6,3,6,-82,-2,-3,-14,-63
1499894915258529,-10,2,-1,21,3,3,5,29
1499894915258529,20,6,15,-50,2,1,-8,-60
1499894915260532,-9,-9,-2,30,-6,-6,5,35
1499894915260532,2,1,-2,7,-2,2,1,-16
1499894915281532,-6,-8,-34,-3,3,-2,-3,2
1499894915281532,-3,4,39,68,12,0,-8,-90
1499894915282539,15,1,-23,-44,-10,3,15,24
1499894915282539,-3,8,2,-50,-5,-5,-11,-51
1499894915295545,1,-10,-2,-32,-4,-1,1,6
1499894915295545,-14,-5,-21,-19,-7,-2,-5,13
1499894915302531,15,-1,0,40,2,0,-14,26
1499894915302531,1,-4,12,12,-1,-2,0,-74
1499894915318538,-16,0,-17,-11,1,3,4,-61
1499894915318538,13,2,23,-26,2,-4,-3,22
1499894915320534,-10,0,3,55,-1,-3,-4,-15
1499894915320534,6,6,10,36,4,0,5,-24
1499894915341545,13,-8,-23,-57,-10,-1,-6,34
1499894915341545,-23,-7,-13,-60,-3,-2,-5,53
1499894915342534,9,6,41,78,7,2,7,-36
1499894915342534,-3,-4,-21,16,0,0,4,65
1499894915354549,16,3,15,77,5,-3,-5,-25
1499894915354549,-7,-5,1,-80,-17,-3,-1,-16
1499894915363536,16,-6,-8,12,-6,-3,-1,51
1499894915363536,-6,2,18,55,11,6,5,6
1499894915378539,-2,0,-9,-33,-2,1,1,-4
1499894915378539,-2,4,-16,-38,-3,-2,0,31
1499894915380537,-1,3,22,-66,6,-1,-3,-8
1499894915380537,11,-6,-5,117,0,-3,-6,3
1499894915401537,-19,3,2,-33,-4,-3,4,24
1499894915401537,-14,3,18,-38,5,3,-3,40
1499894915402537,27,1,-23,-30,-5,1,0,0
1499894915402537,-8,-14,8,46,0,-2,-2,59
1499894915414540,7,-3,-25,-40,-4,-5,-4,-88
1499894915414540,-10,7,22,-12,4,0,2,18
1499894915423540,-14,-9,-8,48,1,2,2,6
1499894915423540,11,2,5,-56,-9,-4,-10,-59
1499894915438540,5,-3,9,-39,-1,1,3,32
1499894915438540,-28,-11,-27,14,1,-3,-2,-41
1499894915440540,4,7,7,-10,3,0,-3,-69
1499894915440540,-8,1,13,16,-3,4,3,-41
1499894915461579,6,-2,-17,40,-4,-1,-2,-4
1499894915461579,-13,-3,-8,-36,-12,-6,1,-9
1499894915462543,-8,-8,-15,-6,0,-3,0,-25
1499894915462543,-5,7,3,-61,-4,-2,-2,18
1499894915474562,3,5,23,76,7,5,14,28
1499894915474562,14,-4,-16,87,2,2,-1,-6
1499894915483543,5,2,-18,-101,-6,0,-5,-28
1499894915483543,-6,-5,-19,-2,-2,0,5,10
1499894915498544,14,6,33,-34,-1,-2,-2,-45
1499894915498544,-4,4,7,31,1,0,-1,-76
1499894915500544,-25,-13,-28,-15,-15,-6,0,29
1499894915500544,10,6,11,34,11,2,-2,8
1499894915521544,5,5,28,7,4,0,-3,44
1499894915521544,14,-8,-14,28,-4,-3,4,36
1499894915522546,14,0,-1,20,8,3,0,-5
1499894915522546,-9,-2,-4,-60,-7,-1,-1,-6
1499894915534544,1,-5,5,29,-5,-5,-7,56
1499894915534544,-4,-6,-29,-3,0,-1,-4,2
1499894915543564,3,2,16,4,3,-1,4,30
1499894915543564,11,3,5,-9,-1,1,-1,28
1499894915558546,-11,-9,-48,43,2,3,-2,-10
1499894915558546,24,8,20,-44,0,1,3,1
1499894915560546,5,-1,7,64,0,-5,11,51
1499894915560546,5,3,0,15,6,-2,-5,89
1499894915581547,-5,-3,-1,-77,-11,-5,-5,-53
1499894915581547,-8,-7,7,68,1,2,1,10
1499894915582558,3,8,6,36,3,1,-6,42
1499894915582558,1,-11,-22,-24,2,0,-3,23
1499894915594611,14,1,7,57,-8,-7,-1,19
1499894915594611,-25,-5,-11,-84,-4,0,5,5
1499894915603550,16,-10,-20,10,-4,-4,-8,13
1499894915603550,1,2,-17,29,1,-1,3,-18
1499894915618550,-2,-3,-6,-19,5,4,-4,11
1499894915618550,-2,8,24,3,-2,-2,-2,-9
1499894915620553,-14,-17,-64,-12,-5,-4,-8,-76
1499894915620553,-8,-3,-1,-35,-11,-4,-3,-33
1499894915641551,8,-6,14,-31,-1,-2,6,100
1499894915641551,-5,9,15,-53,2,0,-4,-16
1499894915642552,-4,-2,-19,-1,-3,0,10,-35
1499894915642552,-1,-6,-5,29,-7,-6,-9,8
1499894915654584,-7,2,3,-18,1,1,-1,0
1499894915654584,2,0,-10,127,6,1,1,15
1499894915663552,-10,7,13,-71,-13,-5,-1,0
1499894915663552,13,-19,-22,3,-1,-2,-4,-38
1499894915678552,-18,12,56,11,7,2,1,-28
1499894915678552,2,-14,-53,35,-5,-5,-5,11
1499894915680554,-7,-4,-13,-42,-7,-4,-9,-51
1499894915680554,-1,9,12,6,1,3,7,4
1499894915701556,-6,-4,-6,-3,1,0,-2,32
1499894915701556,25,7,12,44,3,4,-5,-86
1499894915702554,-5,3,39,-14,2,-5,1,39
1499894915702554,2,-7,-7,-78,-8,-1,0,29
1499894915714555,-10,-6,-34,-18,-2,-2,-3,-30
1499894915714555,12,1,16,26,4,0,3,55
1499894915723555,4,8,31,-16,3,4,4,20
1499894915723555,-11,4,15,52,1,-1,3,-103
1499894915746568,-7,-5,-35,-65,-4,-1,-5,30
1499894915746568,25,9,12,-3,-4,1,7,72
1499894915747557,-16,-14,-7,115,-2,-5,-4,15
1499894915747557,-1,7,19,-84,-11,0,-2,53
1499894915761567,-2,3,13,79,1,3,15,82
1499894915761567,-10,-7,-36,-22,1,-1,-4,-77
1499894915762578,-3,1,8,18,5,0,-4,19
1499894915762578,0,5,-3,12,10,4,2,3
1499894915783565,4,-3,-4,0,-4,-5,-6,-37
1499894915783565,-18,-12,-9,-100,-9,-4,-3,21
1499894915785579,0,5,13,26,-1,0,0,-20
1499894915785579,-3,-2,-17,43,4,-2,-2,1
1499894915798599,-4,0,0,-63,-5,1,-4,-66
1499894915798599,-2,-5,22,71,2,-2,0,2
1499894915800560,12,5,6,-70,2,1,-3,10
1499894915800560,1,-2,-8,-15,-3,-3,1,2
1499894915821566,-6,7,27,127,6,2,3,-6
1499894915821566,-13,1,-7,-101,-5,-1,-1,31
1499894915822561,14,-7,-11,49,2,2,9,42
1499894915822561,-20,-1,6,-3,-6,0,-3,26
1499894915851567,9,9,6,-21,7,2,-4,-17
1499894915851567,-19,-17,-30,30,-9,-8,-3,5
1499894915852563,16,3,13,-23,2,0,1,30
1499894915852563,-5,-1,10,16,-1,-3,0,-15
1499894915858585,13,-14,-41,-26,-6,-2,-2,31
1499894915858585,-22,6,39,49,3,-1,-4,-42
1499894915860597,-1,2,-29,-17,2,1,-3,9
1499894915860597,3,4,-1,76,6,3,1,5
1499894915881566,6,-5,9,-111,-15,-5,-4,-24
1499894915881566,7,1,9,9,-7,-2,0,-6
1499894915882581,-9,-9,-1,16,0,-2,-4,-9
1499894915882581,4,8,14,0,7,0,0,6
1499894915903566,-1,-4,15,63,1,-1,0,-28
1499894915903566,-5,1,-47,-67,-5,-3,-3,-8
1499894915905569,2,0,35,24,1,1,-2,-10
1499894915905569,19,-9,-26,-7,-11,-4,-2,6
1499894915917567,-33,-2,4,28,-1,-3,10,-33
1499894915917567,17,-7,2,4,-4,-3,-10,-23
1499894915924568,8,10,12,-46,3,3,2,68
1499894915924568,-5,-9,-35,33,-1,-5,-3,-7
1499894915941572,3,3,-7,11,3,-2,-3,-13
1499894915941572,0,-5,6,17,3,1,1,-22
1499894915942575,-18,2,-6,-30,-2,0,-2,-25
1499894915942575,-2,-3,26,75,2,-2,-4,-3
1499894915963606,1,-5,-16,-32,-9,-5,-5,14
1499894915963606,-7,8,8,13,9,3,3,-23
1499894915965607,-2,-7,5,-9,-4,-4,-8,-95
1499894915965607,1,-2,-31,-40,-4,-1,3,9
1499894915977570,-2,-5,-1,39,0,-4,-7,5
1499894915977570,17,4,15,-10,3,1,5,32
1499894915984573,-9,3,-6,5,0,1,1,11
1499894915984573,-11,-8,0,-34,0,-5,-6,-70
1499894916001572,2,4,5,5,3,1,0,-3
1499894916001572,4,4,27,81,-3,2,12,39
1499894916002572,-9,0,-20,-70,-3,-4,-11,-23
1499894916002572,8,-6,-3,42,-4,-1,0,27
1499894916023578,4,2,-11,-30,3,1,-1,10
1499894916023578,-3,2,30,36,4,1,-1,12
1499894916025594,-11,-4,-33,2,-7,-3,2,13
1499894916025594,1,6,9,-20,6,3,2,17
1499894916037574,0,-3,-7,-44,-10,-7,-8,-13
1499894916037574,2,-16,-67,-39,-10,-3,-2,29
1499894916044606,3,-4,16,12,-1,-1,2,-29
1499894916044606,3,6,27,-13,1,1,-5,-11
1499894916061584,-5,-9,-27,8,-3,-3,-2,3
1499894916061584,-3,5,6,-48,-5,-4,-4,18
1499894916062575,5,-3,21,36,2,0,1,7
1499894916062575,-7,-9,-20,43,3,0,2,-6
1499894916083577,4,17,51,-36,2,3,4,0
1499894916083577,-18,-10,-3,-44,-10,-6,-10,-72
1499894916085597,30,6,-17,2,4,0,-2,4
1499894916085597,-1,-6,15,-20,-6,-3,-7,19
1499894916097642,-3,3,-5,23,5,0,-1,-17
1499894916097642,6,3,-6,-24,0,-2,-4,9
1499894916105578,-14,4,17,119,3,-1,4,9
1499894916105578,-5,2,-2,-40,-6,0,1,-5
1499894916121584,21,2,-8,-81,-10,-1,-1,12
1499894916121584,-12,-19,-25,18,-6,-4,-1,66
1499894916122579,-5,2,22,27,1,-2,-3,8
1499894916122579,3,2,-5,-1,-1,0,4,32
1499894916143625,-11,0,24,39,7,2,2,-14
1499894916143625,13,-4,-40,-41,-1,-1,1,41
1499894916145585,-3,-6,0,19,1,0,-1,7
1499894916145585,0,5,6,-76,-7,-2,0,-1
1499894916157627,2,-3,-12,22,0,-2,1,9
1499894916157627,-9,3,14,19,13,9,5,17
1499894916164638,-3,-10,-33,-85,-22,-9,-8,43
1499894916164638,3,-4,-9,29,0,-4,-2,-6
1499894916181585,-3,-1,6,53,6,0,-1,9
1499894916181585,-1,5,39,35,0,-2,0,-13
1499894916182584,-4,-3,-16,-47,2,2,4,-44
1499894916182584,1,9,13,39,2,4,3,34
1499894916203586,0,-5,10,-39,-13,-4,-3,-7
1499894916203586,10,2,7,79,5,1,1,-20
1499894916205584,2,-4,-14,-55,-7,-2,0,-9
1499894916205584,-9,-4,-9,-3,-4,-2,-2,-55
1499894916217584,-1,1,-6,30,0,0,-1,-10
1499894916217584,5,4,-14,-47,1,2,0,6
1499894916224602,-16,-6,43,33,0,-1,0,-9
1499894916224602,-4,-1,-15,23,0,-4,0,-23
1499894916241586,3,-8,-33,-45,1,2,0,30
1499894916241586,-5,6,23,18,-10,-4,-5,-12
1499894916242587,1,8,-14,18,8,3,5,32
1499894916242587,-3,-5,0,-7,-2,-2,-3,4
1499894916263587,0,-8,-24,12,2,-4,-2,7
1499894916263587,2,4,-5,2,3,2,1,30
1499894916265607,2,-8,-42,-25,-5,-3,-4,-23
1499894916265607,1,-1,19,25,-3,-2,0,-2
1499894916277587,-2,-4,1,-27,-3,-2,-4,-17
1499894916277587,-2,0,-7,36,2,-2,-1,1
1499894916286592,-2,2,7,-17,2,2,0,5
1499894916286592,2,-1,-1,6,-5,-2,-2,21
1499894916300590,-3,-1,-8,-14,1,-2,-7,-93
1499894916300590,-6,0,18,9,0,1,2,-18
1499894916302588,5,-5,-4,60,-4,-4,-2,-17
1499894916302588,-3,3,0,-101,-2,1,0,-4
1499894916323590,2,-6,9,57,-4,-1,-1,28
1499894916323590,-3,-9,-46,-22,-4,0,2,-3
1499894916325593,7,11,47,-12,5,-2,-3,-12
1499894916325593,-1,-2,1,-8,1,-1,-5,9
1499894916337593,-1,-2,5,32,0,0,-1,21
1499894916337593,-5,-2,-2,-45,-3,-2,0,-5
1499894916346597,-19,-8,-17,54,-1,0,1,15
1499894916346597,8,9,26,6,3,0,-2,-26
1499894916361607,0,-4,-24,-51,-1,0,-2,23
1499894916361607,-2,-7,-26,-4,-7,-7,-5,-11
1499894916362592,-7,-6,23,50,0,-1,-3,-11
1499894916362592,-5,0,-2,-39,0,1,4,5
1499894916383594,13,4,18,81,7,2,1,-12
1499894916383594,-7,0,-23,-27,3,-1,-4,-9
1499894916385595,-12,-3,-2,-11,-4,-1,3,53
1499894916385595,-4,6,27,-13,6,3,5,38
1499894916397615,-1,-8,-28,2,-2,-1,0,54
1499894916397615,2,2,23,-14,-2,1,2,-38
1499894916406600,-4,4,-4,-26,-4,-3,1,3
1499894916406600,-1,-3,-21,21,1,-3,-4,4
1499894916421602,-4,-3,17,16,2,-2,3,-3
1499894916421602,-2,-1,18,-32,-2,0,1,7
1499894916422609,2,7,-18,3,3,4,2,-42
1499894916422609,12,0,-1,27,-4,-2,-3,-12
1499894916443625,-6,0,-5,-23,-2,-1,1,-14
1499894916443625,7,-1,2,57,0,-2,-6,-14
1499894916445599,-3,4,1,-61,3,4,4,53
1499894916445599,-6,-12,-26,-34,-2,-1,1,-1
1499894916457600,-6,-2,-17,-11,-5,-3,-3,-14
1499894916457600,-6,-3,12,8,-2,-2,-4,-1
1499894916466600,2,-1,11,-10,0,-2,-1,5
1499894916466600,-5,-2,-24,4,-1,0,3,2
1499894916481601,-6,4,29,37,4,0,-7,-100
1499894916481601,9,2,4,-38,-7,-3,0,27
1499894916482610,11,-1,-10,-30,1,-5,-4,-3
1499894916482610,-11,-6,9,24,-12,-7,-4,-13
1499894916503600,1,-6,-10,26,2,0,3,27
1499894916503600,-10,10,13,27,8,3,-6,-2
1499894916505603,7,-1,9,1,-3,-3,4,-21
1499894916505603,4,-3,-23,28,3,2,-3,8
1499894916517603,-8,4,-7,-91,-7,0,-2,-44
1499894916517603,8,3,21,71,5,-1,0,0
1499894916526618,0,-16,-52,-103,-18,-7,-3,2
1499894916526618,-20,-4,20,12,2,-1,-1,-18
1499894916541603,5,6,16,33,3,1,1,-16
1499894916541603,5,-4,-12,-17,-3,-1,0,-5
1499894916542604,-3,1,10,42,5,4,-3,-21
1499894916542604,4,2,4,-37,-2,-1,-1,12
1499894916563606,-2,3,-5,30,0,0,-1,28
1499894916563606,-4,-8,-1,-14,-3,-2,0,14
1499894916565605,7,13,27,87,9,5,3,18
1499894916565605,1,-14,-15,-78,-13,-9,-7,-17
1499894916577608,-4,3,-26,-73,-1,-3,1,14
1499894916577608,10,-8,-12,2,-4,-2,1,4
1499894916586608,-17,-7,-16,19,-1,0,-3,-33
1499894916586608,-23,2,30,30,7,4,8,34
1499894916600626,11,5,28,38,-5,-3,-7,-37
1499894916600626,-11,-1,-22,-71,-11,-6,-5,-28
1499894916602608,2,-2,-3,26,2,0,-2,-17
1499894916602608,2,9,10,22,12,6,4,25
1499894916623623,-18,-14,-18,-15,-8,-6,-3,19
1499894916623623,0,4,18,24,1,0,1,-2
1499894916625629,3,0,7,-4,0,-1,0,20
1499894916625629,1,3,-19,26,3,-1,-2,-6
1499894916637609,19,-4,5,-6,-3,1,5,71
1499894916637609,8,2,6,34,4,0,-1,43
1499894916646613,2,-1,3,-80,-6,-4,-6,-54
1499894916646613,-14,-5,-20,45,3,1,-3,-68
1499894916661610,13,0,7,1,-3,-2,-4,-58
1499894916661610,1,1,6,15,1,0,3,6
1499894916667630,-2,-9,-34,-83,-10,-2,-4,14
1499894916667630,11,14,62,75,-6,-4,-1,14
1499894916683612,-7,-11,-38,19,-3,-4,1,50
1499894916683612,-13,-1,12,2,8,3,1,-20
1499894916685631,4,8,6,67,7,3,3,5
1499894916685631,1,-13,-20,-64,-11,-3,-4,-7
1499894916697656,4,7,17,30,6,3,5,16
1499894916697656,4,5,4,14,-2,0,1,-33
1499894916706620,0,-2,-5,-29,-9,-4,-2,10
1499894916706620,16,-2,-14,41,-4,-3,-2,28
1499894916721624,-10,8,21,27,0,1,-2,-3
1499894916721624,-2,-10,-32,-6,-3,-3,-3,-2
1499894916722613,-9,1,31,10,5,2,0,-25
1499894916722613,4,4,-7,-37,1,-2,-2,16
1499894916743656,-5,-1,1,15,1,0,-2,25
1499894916743656,-1,2,16,-39,-2,2,-1,-23
1499894916745631,-2,-4,-7,33,0,-3,-2,13
1499894916745631,13,3,27,-31,-3,-1,1,35
1499894916765615,-3,-3,-10,-20,-3,-4,-1,-12
1499894916765615,-10,-9,-38,-14,-2,-2,1,29
1499894916767617,2,1,17,47,2,3,1,-2
1499894916767617,3,5,9,54,10,2,2,-4
1499894916780620,-5,4,9,-110,-7,-1,1,1
1499894916780620,-3,0,2,40,-1,-6,-12,-41
1499894916782622,1,-4,9,28,0,-2,-2,7
1499894916782622,-7,-3,-19,-87,-2,0,-3,-25
1499894916803617,-5,-1,14,73,6,1,1,2
1499894916803617,1,-1,-7,-23,1,-1,-1,15
1499894916805652,3,-3,-18,-72,-5,-1,0,-5
1499894916805652,-21,-6,-13,53,0,-4,-4,-7
1499894916825620,4,4,4,6,2,-1,1,27
1499894916825620,0,3,20,-46,-1,0,2,4
1499894916827622,1,-8,-16,-4,-1,-1,1,6
1499894916827622,6,0,6,4,-5,-1,1,12
1499894916840641,-6,-1,-16,4,1,0,-2,-9
1499894916840641,2,2,5,11,3,1,2,-2
1499894916842628,-1,2,5,-14,-4,-2,-2,3
1499894916842628,-3,-6,5,43,-7,-2,2,65
1499894916863660,10,-7,-31,-12,-4,-4,-5,-10
1499894916863660,-16,5,16,14,-2,1,3,-9
1499894916865627,10,-3,-10,-53,-4,-2,-3,11
1499894916865627,0,4,10,-9,3,1,1,-13
1499894916885626,-2,0,1,10,-5,-1,2,36
1499894916885626,7,-2,5,-5,0,-1,-2,-13
1499894916887624,-8,-11,-36,25,-5,-4,-5,-3
1499894916887624,-1,-4,-5,28,1,-1,-4,-13
1499894916900627,-3,6,5,3,1,1,-1,-12
1499894916900627,-1,-5,4,-37,0,1,1,18
1499894916907687,-2,1,-7,-20,-6,-4,-1,75
1499894916907687,-4,-10,-23,-72,-6,-1,-4,-33
1499894916923628,2,2,-21,-25,-1,1,-1,-22
1499894916923628,8,0,8,20,0,-4,-1,21
1499894916925647,-13,4,21,12,6,-1,0,-16
1499894916925647,2,4,-8,32,-3,-3,-1,0
1499894916946642,-6,-11,-10,-8,5,0,0,16
1499894916946642,-3,1,-8,27,-2,1,-3,-18
1499894916947632,7,-3,5,-20,-7,-3,-3,40
1499894916947632,4,5,-1,-9,3,2,-1,-11
1499894916960698,-12,-10,-7,-11,-5,-4,-4,-29
1499894916960698,-6,3,-4,21,-3,-2,2,84
1499894916967632,-4,-1,17,12,6,0,-1,-44
1499894916967632,-6,-1,-12,3,-2,0,1,-6
1499894916983633,7,6,22,-19,-1,2,-2,8
1499894916983633,-1,-7,6,-3,-3,-2,1,13
1499894916985649,-4,-7,-37,9,-3,-3,0,-17
1499894916985649,2,-1,8,16,6,-1,-1,-3
1499894917006669,-9,1,9,-25,-4,-2,-1,-4
1499894917006669,-1,0,-1,-6,0,0,0,-23
1499894917008650,13,13,16,28,3,0,-1,-23
1499894917008650,2,-18,-63,-13,-3,-6,-6,-11
1499894917020656,0,5,36,1,7,0,0,-3
1499894917020656,-5,-2,-17,0,-6,-3,-3,0
1499894917027634,-4,1,8,48,0,-4,-1,-4
1499894917027634,-24,-1,2,-71,0,0,-1,0
1499894917043671,13,1,9,12,2,-2,-2,-13
1499894917043671,11,2,-3,-17,3,1,0,24
1499894917045669,-8,-4,-16,-13,-6,-3,-2,-11
1499894917045669,1,-4,7,10,-2,-3,0,-16
1499894917065676,-11,-6,-18,-6,-7,-2,0,-1
1499894917065676,0,-1,15,17,-1,0,-4,-27
1499894917067633,-1,2,1,4,2,0,2,-3
1499894917067633,-8,5,22,8,1,1,-1,9
1499894917080700,4,-1,-6,-10,-1,1,-1,-10
1499894917080700,1,-2,-1,18,-2,-2,-3,7
1499894917087651,-5,2,21,34,-4,0,0,-10
1499894917087651,5,0,0,-96,-5,-1,2,93
1499894917103637,-11,-4,-22,24,-4,-1,-2,-16
1499894917103637,-4,-3,-13,0,0,0,0,-11
1499894917105642,3,2,16,17,4,1,-1,-15
1499894917105642,13,0,20,36,-2,-1,0,15
1499894917125640,-13,1,5,-6,1,0,-1,-57
1499894917125640,-6,-4,-16,18,0,-2,-1,11
1499894917127637,5,-4,-8,-60,-3,-2,-2,-42
1499894917127637,-8,3,8,38,4,1,1,-26
1499894917140637,9,0,5,-9,2,0,0,20
1499894917140637,-1,-2,9,61,5,-1,0,-25
1499894917147699,0,-1,-16,-94,-14,-2,-1,16
1499894917147699,6,7,11,6,-1,-1,-2,-22
1499894917163677,0,-14,-43,8,-5,-5,-4,5
1499894917163677,0,3,0,-47,0,0,-2,-5
1499894917165640,-9,-11,-26,67,-2,-6,-3,24
1499894917165640,4,3,4,-51,-8,-2,-1,-21
1499894917185640,-6,5,39,34,0,2,2,23
1499894917185640,9,-6,-28,-52,-6,-5,-1,2
1499894917187640,-3,4,13,24,6,2,-1,-20
1499894917187640,-5,-8,-30,14,2,1,-2,-35
1499894917200646,6,6,26,9,2,2,3,56
1499894917200646,2,0,-10,-29,-8,-5,-2,37
1499894917207647,-10,-4,8,22,4,1,0,-17
1499894917207647,13,0,6,19,0,-2,-3,11
1499894917223683,-3,-1,-2,52,2,-2,-1,31
1499894917223683,-1,-5,-25,-94,-14,2,-2,-15
1499894917225647,-3,1,20,94,1,-2,1,20
1499894917225647,-4,-7,-21,-11,1,0,0,-3
1499894917246651,7,2,2,9,0,-2,-3,-3
1499894917246651,-3,1,20,13,0,0,-1,-5
1499894917247643,1,-3,-32,-34,0,1,-2,-26
1499894917247643,-1,2,7,38,3,1,2,-18
1499894917259685,-2,-4,-9,-105,-12,-5,-1,-19
1499894917259685,-9,-2,7,32,3,-1,-2,-14
1499894917268646,13,4,17,0,3,1,1,64
1499894917268646,-18,1,13,58,2,0,-3,-37
1499894917284664,-5,-3,-22,-45,-6,-2,-6,-49
1499894917284664,-10,-4,6,24,-2,-1,0,-8
1499894917285646,-1,-5,-6,-18,-2,-4,-2,10
1499894917285646,10,-8,-22,46,0,1,1,18
1499894917305675,4,10,37,13,5,1,0,39
1499894917305675,-5,-16,-59,-53,-14,-4,-3,-21
1499894917307653,-12,4,11,19,0,0,0,1
1499894917307653,-7,-2,2,-44,-3,-4,-1,23
1499894917319649,6,3,4,26,0,-2,-1,-25
1499894917319649,0,0,-5,14,1,0,0,8
1499894917328649,1,1,-9,34,3,0,-1,6
1499894917328649,-5,-2,24,-104,-14,-5,-4,-9
1499894917343689,0,-6,7,45,1,-1,-1,-26
1499894917343689,-8,3,6,24,2,-1,1,-3
1499894917345668,7,0,-4,-14,-1,-3,0,5
1499894917345668,-7,4,-6,-26,3,3,0,25
1499894917365650,-7,-2,-1,9,-5,-2,1,-11
1499894917365650,8,0,7,-25,2,0,1,0
1499894917373653,1,2,10,16,1,3,-1,-6
1499894917373653,3,-7,-5,5,-8,-2,0,23
1499894917379670,-1,2,-9,7,1,0,1,23
1499894917379670,-9,-3,-2,23,2,-3,-2,-24
1499894917388652,-8,-6,-10,5,-4,-2,-4,-4
1499894917388652,7,9,11,-21,3,3,1,-16
1499894917403655,3,-4,0,-19,0,-1,1,-3
1499894917403655,-22,-12,14,6,1,-2,-1,-20
1499894917405655,6,6,16,15,1,0,-1,2
1499894917405655,1,-8,-29,-7,1,0,-2,-7
1499894917425658,2,-3,-8,27,3,3,1,5
1499894917425658,11,2,-5,15,-2,1,0,36
1499894917427655,-4,-4,8,-71,-4,-3,-2,-3
1499894917427655,-4,0,-4,38,1,-2,2,11
1499894917439656,1,-3,-17,-31,-2,-3,0,-36
1499894917439656,8,1,13,59,-1,0,-1,34
1499894917449661,-2,-4,-25,-40,-4,1,0,-5
1499894917449661,4,0,20,39,-5,-2,-2,1
1499894917463693,-7,-2,12,9,1,-1,-2,16
1499894917463693,6,4,-23,-15,2,-1,-1,-3
1499894917465658,-2,-1,3,67,6,2,0,-17
1499894917465658,-1,2,-4,-94,-6,-1,-5,-12
1499894917485657,-5,-8,-15,14,-3,-3,-2,0
1499894917485657,-3,5,13,-22,2,1,2,9
1499894917487659,-19,-2,-4,8,-3,-5,-6,-61
1499894917487659,23,-2,-7,41,3,0,-1,-7
1499894917499668,-5,5,1,-3,2,3,1,12
1499894917499668,0,1,-9,-37,-3,-2,-1,-7
1499894917508662,-3,2,30,-17,0,-3,1,27
1499894917508662,-1,-8,-23,17,2,-2,-3,-23
1499894917523669,7,1,0,2,0,-3,-2,-6
1499894917523669,17,-1,-28,-29,0,0,1,-1
1499894917525675,-8,-6,-1,-25,-9,-2,-1,12
1499894917525675,2,7,19,0,-1,-1,-2,-19
1499894917545733,-3,0,-13,5,2,3,1,13
1499894917545733,-6,-5,11,17,2,-1,-2,-58
1499894917547667,11,-3,-23,-1,-5,-3,0,28
1499894917547667,-8,-7,-14,11,-6,-3,-3,3
1499894917559670,3,-1,5,-13,0,1,1,-14
1499894917559670,-6,3,16,-8,0,-2,-3,4
1499894917568664,4,-3,1,17,-1,-1,1,-8
1499894917568664,-10,0,-2,-18,2,0,1,-54
1499894917583684,-6,-1,-9,-14,-7,-4,-2,5
1499894917583684,-1,-4,7,37,-5,-5,-3,6
1499894917585674,5,-2,-7,7,5,3,2,-11
1499894917585674,-7,-6,-21,-18,0,-1,-1,15
1499894917605672,0,3,24,57,1,0,0,10
1499894917605672,-1,1,-3,-27,-2,0,-2,-20
1499894917607671,1,2,4,-27,3,0,1,11
1499894917607671,-4,-2,-9,31,0,-2,-1,12
1499894917628709,6,1,8,-51,-9,-4,-5,-17
1499894917628709,-3,0,-6,15,3,2,0,8
1499894917630687,-6,3,4,-10,-1,0,-1,-2
1499894917630687,5,6,28,6,-1,-2,-2,3
1499894917643666,2,-14,-26,10,1,-2,-1,1
1499894917643666,-13,8,5,27,6,1,0,2
1499894917645670,-5,-4,-14,-23,-7,-3,-4,-52
1499894917645670,-2,-7,-4,6,0,1,2,31
1499894917665736,0,1,9,-1,0,-1,-1,4
1499894917665736,3,4,14,5,1,1,-1,-2
1499894917667668,-5,-14,-34,-36,-17,-7,-4,16
1499894917667668,-1,11,28,15,3,-1,-1,3
1499894917688670,-19,-2,-13,12,3,0,-2,8
1499894917688670,21,-2,-4,-10,-3,2,2,-6
1499894917690678,7,4,7,12,2,-1,-4,16
1499894917690678,3,8,2,0,1,0,0,-9
1499894917703709,-4,-12,-14,-24,-8,-5,-3,5
1499894917703709,-8,0,9,31,0,1,2,20
1499894917705674,6,9,21,10,7,5,3,4
1499894917705674,-2,-12,-39,-8,-11,-2,-3,1
1499894917733673,-1,1,20,15,1,-1,-2,0
1499894917733673,-19,-1,-2,-39,-2,-4,-6,-39
1499894917735672,9,1,12,29,2,2,1,4
1499894917735672,-7,0,-24,-34,-2,-2,-2,3
1499894917748674,9,2,-16,-13,-3,-2,0,37
1499894917748674,1,-2,34,110,4,0,-2,-25
1499894917750691,-3,1,-6,-109,-10,-2,-1,4
1499894917750691,-7,-7,1,41,-3,-2,1,-12
1499894917763714,-5,4,8,-1,1,1,2,-19
1499894917763714,-1,-9,-21,-15,-2,-3,0,24
1499894917765695,1,7,6,54,6,4,0,3
1499894917765695,-3,-7,-3,-23,-5,-3,-2,-3
1499894917785679,1,2,-7,-4,-1,1,0,-19
1499894917785679,5,2,22,-24,0,-1,1,13
1499894917792722,0,3,12,9,-2,-3,-5,-66
1499894917792722,-2,-3,-10,6,1,-1,-1,-20
1499894917808738,-12,-4,7,29,4,1,1,16
1499894917808738,0,2,-7,-36,-12,-1,2,11
1499894917810676,-7,-16,-17,-19,-9,-7,-6,61
1499894917810676,17,9,22,8,2,0,0,-11
1499894917822677,0,2,-3,2,2,1,2,-7
1499894917822677,-8,0,11,10,2,2,0,5
1499894917829691,-3,0,-17,-3,-2,0,3,-5
1499894917829691,-11,3,18,43,6,1,-1,19
1499894917845721,7,-8,-9,-60,-18,-7,-8,-43
1499894917845721,7,-5,-13,-9,-5,-3,-4,-1
1499894917847684,-7,2,0,22,8,1,1,12
1499894917847684,8,7,20,-14,9,3,0,-11
1499894917868680,4,-7,-29,2,-10,-6,-4,14
1499894917868680,1,-3,-8,-31,-1,-1,-1,3
1499894917870681,2,-7,-8,11,-4,-3,-3,-6
1499894917870681,8,1,6,-40,2,2,3,54
1499894917882700,-10,7,26,27,4,-1,-1,-26
1499894917882700,-9,-3,-27,-7,-2,-4,-8,-57
1499894917897709,-4,-2,9,-18,-7,-2,1,-9
1499894917897709,4,-8,-19,-7,-4,-2,-3,32
1499894917905727,2,7,16,13,2,-1,1,42
1499894917905727,-7,0,15,-7,-2,-4,-2,-29
1499894917907688,20,-3,-5,33,6,2,0,-28
1499894917907688,-30,1,14,-48,-9,-2,-4,-29
1499894917928706,16,-3,-20,57,3,-1,0,72
1499894917928706,-2,1,-1,-111,-8,-2,2,11
1499894917930683,-10,-4,-9,13,3,-1,0,12
1499894917930683,4,-2,-2,35,-2,-1,1,4
1499894917942691,-14,-1,-13,-49,1,3,2,8
1499894917942691,10,-3,-19,43,-1,-3,-2,41
1499894917949692,5,5,28,-14,0,0,3,26
1499894917949692,-2,-5,-25,6,-1,-2,-1,-21
1499894917965686,-2,9,20,-34,2,3,3,-22
1499894917965686,2,-1,-6,29,0,-1,-1,-1
1499894917967685,-1,-5,5,5,1,0,-1,3
1499894917967685,-9,-1,11,55,1,-3,-2,10
1499894917988686,6,-1,5,-65,-10,-1,-1,-19
1499894917988686,1,1,-1,-1,0,0,1,8
1499894917990706,6,-6,-16,68,7,1,1,6
1499894917990706,-31,-4,-3,-71,-9,-3,-3,-17
1499894918002689,37,-3,-13,-7,0,-1,0,-11
1499894918002689,-12,0,13,-29,-3,-3,-2,-14
1499894918009727,-3,-2,-16,24,-6,-4,-4,6
1499894918009727,-9,-1,5,42,4,0,-1,-3
1499894918025689,3,-2,-3,-33,-1,-1,-1,-29
1499894918025689,5,2,9,13,-2,-1,1,16
1499894918027688,-3,3,-7,1,1,0,0,-4
1499894918027688,3,2,2,-22,-2,0,1,-8
1499894918048691,-19,-13,-7,26,1,-3,-4,-2
1499894918048691,9,5,4,10,6,4,3,-35
1499894918050692,-12,0,9,47,-2,-4,1,11
1499894918050692,12,-1,-11,-36,-6,-1,-2,-26
1499894918062753,-4,4,17,27,6,1,1,6
1499894918062753,3,-1,-17,45,6,1,1,16
1499894918069716,-15,-9,-32,-122,-15,-7,-4,-20
1499894918069716,12,-2,-8,37,-1,0,-2,14
1499894918085714,-8,-1,35,27,4,-1,0,8
1499894918085714,6,-6,-29,10,-5,-3,0,-4
1499894918092755,8,6,6,-36,1,0,-3,15
1499894918092755,5,-6,-7,16,-2,-4,-1,12
1499894918108714,-14,3,6,18,-3,-1,-3,-24
1499894918108714,-7,-5,-6,3,-3,-1,0,30
1499894918110710,-2,6,34,57,5,2,1,-58
1499894918110710,6,-8,-15,-52,-3,-5,-3,-6
1499894918122695,12,-1,-7,9,-5,-3,-2,-11
1499894918122695,1,4,-3,1,1,-1,-1,7
1499894918129694,-3,-4,-11,-28,1,4,0,16
1499894918129694,4,4,3,19,0,0,0,11
1499894918145741,-6,-5,3,22,2,0,0,-2
1499894918145741,4,-6,0,-17,-7,-4,-4,0
1499894918147701,2,5,10,17,5,3,4,30
1499894918147701,2,3,10,-4,3,0,-3,-6
1499894918168698,5,-3,-14,-31,-3,-1,-2,2
1499894918168698,-17,0,14,19,1,0,0,9
1499894918170697,7,-2,-2,-62,-3,-3,-2,20
1499894918170697,5,6,25,16,2,2,1,3
1499894918182757,0,-4,-56,22,5,-1,1,68
1499894918182757,10,-4,14,-54,-12,-4,-6,1
1499894918191723,-3,-7,-18,-2,2,-3,-4,-19
1499894918191723,-5,-4,-4,-2,0,0,0,-2
1499894918206701,-1,9,51,-7,-2,-2,-1,-7
1499894918206701,0,-9,-48,61,8,2,0,-5
1499894918207699,2,3,-2,-94,-8,-3,-3,1
1499894918207699,-6,-4,-5,37,-7,-4,-3,5
1499894918228702,-11,2,0,29,6,1,-3,-33
1499894918228702,-14,2,22,-2,1,4,0,-7
1499894918230720,17,-1,0,8,-1,2,0,-5
1499894918230720,-9,3,-1,-3,1,2,0,6
1499894918242708,1,1,-12,-16,-5,-3,-1,-15
1499894918242708,1,-2,9,-6,-4,-5,1,23
1499894918251703,-9,-1,14,25,0,-1,-2,-49
1499894918251703,8,-4,-17,39,1,0,-1,25
1499894918265703,-11,-7,-10,-74,-9,-2,-1,75
1499894918265703,-7,3,-1,-35,-3,-3,-5,-28
1499894918267703,-20,-1,29,91,-1,-2,-2,7
1499894918267703,8,-4,-5,-7,-1,-2,0,11
1499894918288707,4,4,-10,26,4,2,1,-18
1499894918288707,-2,-10,-10,-18,5,0,0,-5
1499894918290725,1,3,-9,9,-5,-2,-3,19
1499894918290725,-4,-4,-7,-19,2,1,2,-28
1499894918310784,-3,-1,8,7,-4,-2,-1,-9
1499894918310784,3,5,19,-9,4,1,0,-22
1499894918312705,-4,-3,-16,13,-2,-2,-2,4
1499894918312705,6,4,7,-12,0,0,1,12
1499894918325706,-3,-1,-11,4,1,1,-1,-25
1499894918325706,-7,4,9,19,2,0,-1,12
1499894918327706,14,-9,-2,-10,-8,-4,-5,7
1499894918327706,2,5,0,17,2,1,0,-7
1499894918348708,-10,-4,-11,-40,-4,-1,-2,-28
1499894918348708,3,-2,0,-11,-1,-2,0,-9
1499894918349710,-3,3,13,3,-2,1,0,9
1499894918349710,-5,-6,-23,-12,0,-1,-2,-30
1499894918362782,-12,-4,9,20,4,1,4,-20
1499894918362782,8,1,-28,19,1,1,0,7
1499894918371709,-7,-3,-7,-15,-1,-1,0,-13
1499894918371709,6,4,29,8,-2,1,-1,19
1499894918385713,-3,-7,-20,13,0,0,-1,-4
1499894918385713,0,5,1,-19,-4,-2,-1,4
1499894918387710,2,0,5,5,5,2,2,10
1499894918387710,-3,-1,6,12,-6,-3,-1,-3
1499894918408746,1,-2,9,-21,-6,-2,-2,-1
1499894918408746,-1,-10,-20,-34,-1,-3,0,-3
1499894918409711,7,-6,-22,3,-5,-4,-2,29
1499894918409711,-11,3,14,7,4,1,0,-10
1499894918422711,4,-5,-22,3,-1,-2,-1,-16
1499894918422711,3,3,31,72,-3,-2,-1,5
1499894918431716,-6,-1,-27,-88,-3,0,2,-5
1499894918431716,-6,-10,-1,88,-2,-3,-1,3
1499894918445784,6,6,12,-57,-3,1,-5,-31
1499894918445784,-6,3,14,-3,-1,0,-2,4
1499894918447727,-2,-2,-2,29,7,3,-1,-2
1499894918447727,-1,2,2,-78,-4,-1,-1,-21
1499894918468716,2,2,-7,50,-3,-3,-2,9
1499894918468716,-17,-3,12,-32,3,5,2,7
1499894918470720,1,-9,-23,-2,-7,-6,-4,-44
1499894918470720,23,6,-8,6,3,0,1,55
1499894918482785,-2,0,0,-37,-2,-2,1,1
1499894918482785,-3,-2,-6,-36,-10,0,0,-1
1499894918491716,13,-3,1,20,5,1,1,-14
1499894918491716,-7,1,3,1,1,-1,-2,1
1499894918505757,1,-8,-20,26,-4,-3,-1,11
1499894918505757,-1,-3,1,24,1,-3,-3,-16
1499894918507717,-11,3,19,0,1,0,2,3
1499894918507717,-6,3,-16,-6,-3,-2,-3,-18
1499894918528739,6,1,18,18,4,3,0,1
1499894918528739,3,1,-9,-100,-10,-2,-1,6
1499894918530729,-2,-2,10,62,1,-2,-4,5
1499894918530729,-5,-3,4,-22,-3,-2,-1,2
1499894918542756,-3,1,-9,16,2,-1,0,1
1499894918542756,8,-8,-15,28,0,-2,-2,7
1499894918551719,-1,3,12,-3,1,1,0,15
1499894918551719,-2,-6,-3,-19,-4,-1,-1,-19
1499894918566721,-1,-2,0,-15,2,-1,-1,-18
1499894918566721,10,3,14,80,5,-1,1,3
1499894918567741,-28,-6,-33,-70,-8,-3,0,-18
1499894918567741,3,-1,16,-8,-6,-3,-4,7
1499894918588737,6,-2,-8,25,-1,-2,-2,15
1499894918588737,5,4,4,-7,0,0,1,19
1499894918590742,0,5,7,19,5,4,2,1
1499894918590742,-10,-2,6,-14,5,3,2,-26
1499894918610784,-11,-5,-14,-9,-7,-5,-2,6
1499894918610784,5,-3,2,45,0,-2,4,56
1499894918612728,0,-6,5,13,-1,-3,-4,-55
1499894918612728,8,2,15,14,-2,-1,1,26
1499894918625744,2,0,14,-33,3,2,-2,-29
1499894918625744,-15,2,-5,26,-1,2,-2,-18
1499894918627724,6,-2,5,-10,-5,-3,-3,27
1499894918627724,0,7,5,-18,-7,-4,-3,0
1499894918648725,-4,-9,12,25,3,-2,-1,-2
1499894918648725,1,0,-32,-12,-1,0,0,-15
1499894918650729,-2,2,26,28,-1,-4,-3,3
1499894918650729,-1,-2,-19,28,3,0,0,-11
1499894918670729,14,-1,0,-55,-7,0,2,28
1499894918670729,-25,0,9,-10,1,-1,-2,-25
1499894918672726,9,6,-1,5,4,2,3,19
1499894918672726,-14,-14,-32,-8,-3,-5,-3,-31
1499894918684733,11,2,17,5,-6,-3,-4,18
1499894918684733,-3,-6,6,18,2,-2,-2,-5
1499894918693730,10,2,-6,-16,2,2,0,6
1499894918693730,-9,-6,-16,-2,0,-1,-1,10
1499894918708728,1,6,15,21,3,1,1,-7
1499894918708728,-6,-9,-8,-21,-5,-4,-2,-3
1499894918709729,-3,-5,-7,41,0,0,1,41
1499894918709729,0,-1,7,-121,-5,1,-1,-20
1499894918730801,1,0,-7,-3,-2,-1,0,5
1499894918730801,-7,4,14,31,-1,-1,-1,-4
1499894918732757,13,5,3,-10,-1,0,0,12
1499894918732757,8,-4,-21,-15,-1,-1,0,25
1499894918745734,-8,1,20,46,1,-2,-1,-9
1499894918745734,5,-2,4,-15,2,0,-1,-5
1499894918747738,-16,1,-10,-16,-1,-1,-1,-16
1499894918747738,16,-3,14,20,-2,-1,-3,-7
1499894918767759,-1,-2,-15,-1,-9,-2,-1,17
1499894918767759,7,-1,-16,-12,2,-1,-1,0
1499894918776771,11,-6,5,-15,-5,-4,-2,-9
1499894918776771,-17,2,6,59,4,-2,0,0
1499894918790736,-5,-3,-27,-2,0,-2,0,0
1499894918790736,1,-3,0,-53,-1,1,0,-7
1499894918792734,11,-1,-6,8,-3,-1,-1,-4
1499894918792734,-1,2,-12,31,0,0,0,3
1499894918805760,0,1,18,33,3,-1,-3,-7
1499894918805760,12,3,-3,-63,-5,0,-1,19
1499894918812775,-23,0,-7,28,5,1,1,-20
1499894918812775,2,1,26,-24,-3,-3,-1,0
1499894918828735,-4,-6,-30,-18,-4,-4,-4,-5
1499894918828735,15,2,-9,32,0,-1,-2,1
1499894918829739,-6,-2,8,-15,-2,-2,-2,10
1499894918829739,-6,-5,-11,1,-2,-2,0,4
1499894918850737,0,2,3,-2,2,2,0,-9
1499894918850737,1,-2,3,15,-5,-5,-3,-5
1499894918852736,1,1,-3,1,1,1,0,4
1499894918852736,2,2,5,15,1,4,0,1
1499894918865738,-2,0,-5,-49,-3,0,2,11
1499894918865738,-10,-4,6,63,0,-4,-2,-12
1499894918871738,0,-1,-10,-86,-2,-1,-1,-4
1499894918871738,13,-2,3,73,-4,-3,-2,15
1499894918888742,-1,1,15,-3,1,0,0,-18
1499894918888742,1,3,7,-24,0,2,0,0
1499894918889742,-1,1,1,79,6,0,-1,-13
1499894918889742,1,-4,-21,-114,-8,-1,1,7
1499894918911780,-7,-2,6,14,-2,-2,-1,2
1499894918911780,3,1,1,11,-1,-2,0,-10
1499894918913747,-1,-4,-5,5,-1,-1,0,12
1499894918913747,-1,0,-5,-27,-2,0,-1,-11
1499894918925762,-7,0,-11,-7,-1,-1,0,2
1499894918925762,5,-7,2,-18,0,-2,-3,9
1499894918932827,3,4,5,34,-1,2,3,34
1499894918932827,11,7,3,7,1,1,-3,-43
1499894918948743,-21,-8,7,0,-2,-3,-2,6
1499894918948743,3,-2,-13,-2,-1,-3,-3,0
1499894918949741,3,-4,-14,-43,-8,0,-1,8
1499894918949741,-5,-2,-8,45,4,-3,-2,1
1499894918970744,4,4,18,18,3,0,1,7
1499894918970744,-2,-5,-15,-52,-8,1,2,-28
1499894918972744,-14,0,15,12,-5,-6,-4,-11
1499894918972744,9,2,8,-17,4,1,1,7
1499894918985751,7,1,-11,54,1,-1,-1,-7
1499894918985751,-21,-9,-17,-32,-9,-3,-4,6
1499894918991764,6,8,13,-26,2,1,2,-11
1499894918991764,-3,-11,-10,10,-1,1,4,70
1499894919008818,1,-3,-14,-24,-1,0,-2,-20
1499894919008818,-5,-2,-3,61,1,-3,-3,5
1499894919009747,-5,-1,-12,-25,-1,-3,0,-14
1499894919009747,-9,0,11,53,-2,-2,-2,5
1499894919030768,4,1,-1,-82,-8,-1,0,8
1499894919030768,-4,1,13,-10,0,0,2,-2
1499894919032768,-1,-2,-17,12,2,1,-2,-12
1499894919032768,-9,-4,1,9,-3,-3,-4,-12
1499894919045781,-7,-2,-4,-34,2,0,-1,-5
1499894919045781,8,4,8,77,4,1,0,-12
1499894919052752,4,-2,10,-26,-1,-3,-3,12
1499894919052752,-10,-1,-13,-59,-9,-3,-1,-4
1499894919068755,1,-7,-3,16,-3,-2,-1,4
1499894919068755,5,4,10,-12,2,2,1,6
1499894919070774,2,2,11,15,2,1,0,1
1499894919070774,-18,-1,-5,35,1,-1,-1,23
1499894919090752,5,-2,-15,-11,-5,-4,-6,-10
1499894919090752,5,-5,5,11,3,1,2,8
1499894919092752,-11,1,7,-23,-3,0,0,6
1499894919092752,11,-3,-3,10,-1,-3,-3,-26
1499894919104752,-18,1,3,15,2,0,1,6
1499894919104752,11,0,10,29,-2,-2,-2,-7
1499894919114752,1,-1,0,-52,-5,-3,-3,8
1499894919114752,-5,0,4,-6,-2,-2,-2,-14
1499894919128768,0,1,6,38,2,0,1,8
1499894919128768,-12,2,-10,-15,1,-1,-1,-14
1499894919129789,9,0,-5,10,1,-1,2,28
1499894919129789,-3,0,13,26,2,1,0,-11
1499894919150754,6,-2,-4,-22,-5,-2,-3,-5
1499894919150754,-8,-3,-6,-19,-5,-4,-1,-1
1499894919152755,5,-3,-7,12,-3,0,-1,7
1499894919152755,-2,1,-1,-26,1,3,-1,-14
1499894919164774,11,3,18,74,2,2,0,26
1499894919164774,-1,-2,-33,-84,-4,0,-2,-1
1499894919173755,-6,-6,3,26,-6,-4,-2,-15
1499894919173755,4,0,0,-7,2,2,0,-11
1499894919188783,4,2,7,4,1,1,1,20
1499894919188783,1,1,-6,-11,-2,1,3,-30
1499894919190757,-1,-11,-14,-36,-11,-5,-6,-18
1499894919190757,-3,-1,0,4,3,1,-2,6
1499894919210824,3,-4,-16,-20,-2,-4,-3,-3
1499894919210824,-5,3,13,32,2,0,0,4
1499894919212764,1,5,2,-4,1,0,2,-15
1499894919212764,1,-5,2,10,-4,-3,1,0
1499894919224758,-22,2,3,0,1,-3,-1,-27
1499894919224758,28,-11,-15,-11,-5,-4,-4,46
1499894919233758,7,0,0,43,5,1,1,12
1499894919233758,-5,3,20,-34,-3,0,0,0
1499894919248760,-2,-1,-18,-78,-3,2,1,-6
1499894919248760,-11,2,26,54,2,-1,-2,39
1499894919249761,-14,-7,-15,-8,-3,-3,-4,-14
1499894919249761,11,1,3,3,1,-3,-3,2
1499894919270762,-6,0,8,-7,1,2,1,-18
1499894919270762,2,-1,-9,-22,-5,-2,-1,14
1499894919272762,-3,-1,11,42,-3,0,0,-15
1499894919272762,-2,-2,-12,3,-1,-1,-3,-12
1499894919284778,8,-2,6,-4,-2,0,-1,2
1499894919284778,-25,5,4,21,5,0,0,-9
1499894919293762,-5,-9,-19,-58,-14,-3,-4,-12
1499894919293762,3,-1,-19,-3,0,-3,0,11
1499894919308810,11,-3,-7,29,2,-1,0,18
1499894919308810,4,1,12,0,3,1,0,-27
1499894919309783,-8,0,-4,-22,0,-1,0,-8
1499894919309783,-7,1,2,0,-1,0,2,8
1499894919330783,2,2,14,30,-1,-1,-2,0
1499894919330783,-3,2,4,36,3,2,0,-12
1499894919332774,1,7,28,-14,7,1,0,8
1499894919332774,-1,-13,-42,-52,-13,-7,-1,-8
1499894919344765,0,6,21,38,2,-1,-2,-18
1499894919344765,-24,-6,-19,-22,-5,-2,-2,-25
1499894919353766,20,10,9,18,10,3,1,-20
1499894919353766,-4,-3,-2,24,-1,-2,-4,-9
1499894919368768,-1,-9,-24,-48,-7,-2,-2,-8
1499894919368768,1,3,15,3,1,-1,0,15
1499894919370767,-7,-9,-25,8,-2,0,-2,6
1499894919370767,0,4,7,0,1,0,1,-7
1499894919390771,-6,-1,-1,6,-1,-1,0,14
1499894919390771,15,3,19,6,2,-1,-1,-7
1499894919392768,2,-5,-5,74,1,-1,0,-5
1499894919392768,-8,-3,6,-55,-4,-1,-4,-7
1499894919404796,3,3,6,-51,-2,2,1,9
1499894919404796,0,-1,2,-5,1,1,0,3
1499894919414769,-9,-1,3,2,-3,-1,-1,-7
1499894919414769,2,4,-3,7,0,-2,-2,-2
1499894919428788,-3,-7,-19,14,1,-2,-2,1
1499894919428788,0,1,-7,-25,-3,0,0,-10
1499894919430791,0,-2,7,6,-4,-4,-3,20
1499894919430791,-8,0,4,36,4,0,-1,-10
1499894919450772,2,-2,-15,-36,-10,-4,-2,-4
1499894919450772,3,0,-14,0,-2,-2,-2,-1
1499894919452771,-3,0,13,-11,4,1,1,-3
1499894919452771,-3,-2,10,15,-5,-2,-3,-3
1499894919464836,5,-2,-14,-3,-3,-3,-1,-1
1499894919464836,-3,-2,-5,9,1,-2,-2,-10
1499894919473781,-2,-2,-4,-8,-2,-1,0,-5
1499894919473781,3,4,2,-22,3,2,0,-4
1499894919487794,-15,-2,13,59,4,1,-1,-3
1499894919487794,1,-2,-3,-29,-14,-4,-1,13
1499894919488793,18,-3,-3,15,-1,-3,-2,-8
1499894919488793,3,3,-3,-16,1,1,0,8
1499894919510840,-6,2,15,71,6,2,0,-2
1499894919510840,-5,-3,6,-11,1,-1,-2,27
1499894919510840,-10,0,-1,-30,-2,-3,-1,7
1499894919510840,0,-4,-9,34,-2,-3,-1,4
1499894919532852,3,2,6,-5,-2,-3,-3,-6
1499894919532852,4,-9,-11,-35,-11,-4,-3,-15
1499894919533776,-8,2,7,-1,2,1,-4,-8
1499894919533776,1,-2,-7,-4,2,2,-1,6
1499894919547815,-2,3,3,15,3,2,1,4
1499894919547815,0,-5,-19,-2,-1,-1,-2,3
1499894919548778,-4,-2,-6,2,-1,-3,0,-12
1499894919548778,-6,-2,-4,-11,-2,-2,0,-9
1499894919570808,-7,-4,-3,-4,-5,-1,-5,-27
1499894919570808,4,0,2,8,2,-1,0,4
1499894919571782,-4,0,-7,-14,-2,1,0,-18
1499894919571782,-1,-3,-11,43,4,-1,-1,2
1499894919592783,-2,-3,16,-52,-6,-4,-1,8
1499894919592783,0,7,13,32,6,1,1,-9
1499894919593779,0,-3,-8,20,-1,0,-1,31
1499894919593779,-2,-2,-5,-35,-6,-3,-5,-48
1499894919607805,10,-6,-21,-59,-9,-3,-1,9
1499894919607805,-10,1,21,25,2,-1,-2,-9
1499894919608780,4,-5,-16,-17,0,-2,0,8
1499894919608780,-6,2,17,34,3,2,0,21
1499894919630804,5,1,-5,-5,-3,0,-1,2
1499894919630804,-1,-1,-2,5,-1,-1,-1,-7
1499894919630804,-5,-2,8,33,1,0,0,-2
1499894919630804,0,-4,-9,-101,-6,-2,-3,-13
1499894919652783,-2,1,9,30,2,0,-1,-26
1499894919652783,-10,1,-6,-6,0,0,1,13
1499894919653783,-2,1,7,20,-2,-1,-3,-28
1499894919653783,11,-3,5,0,-2,-2,1,52
1499894919667783,-3,-1,-9,7,0,0,1,-24
1499894919667783,0,-2,-4,1,-1,0,-1,6
1499894919668784,-1,1,-2,-33,-1,-1,-2,6
1499894919668784,-3,-1,17,38,-3,-1,0,6
1499894919690786,2,0,-16,34,5,1,-1,0
1499894919690786,1,-2,-4,-15,-5,-2,-2,-2
1499894919690786,0,3,8,-34,1,-1,0,16
1499894919690786,8,-3,-7,41,-4,-2,1,-7
1499894919712824,-7,-1,5,-34,-4,0,0,0
1499894919712824,-2,-6,-9,4,2,1,1,-13
1499894919714786,0,2,-1,9,-1,-1,0,17
1499894919714786,1,2,-4,30,4,0,-1,-17
1499894919727787,2,-2,-6,-3,4,-1,-1,15
1499894919727787,1,2,-13,-15,-8,-2,-1,-5
1499894919728787,-15,-7,12,26,-3,-3,-1,-6
1499894919728787,2,2,4,-4,0,-1,0,8
1499894919750822,4,-4,-11,18,2,3,4,81
1499894919750822,9,3,14,-13,3,0,-1,-58
1499894919750822,1,1,-5,-50,-1,0,-2,-5
1499894919750822,-11,2,11,26,-3,-2,0,-26
1499894919780857,-2,-2,-17,-27,-2,-4,-5,26
1499894919780857,4,-5,3,14,2,0,-1,16
1499894919781791,3,3,-13,46,1,0,2,0
1499894919781791,-3,-1,4,-60,2,1,-1,-6
1499894919787790,6,6,-2,-1,-5,-1,-1,-4
1499894919787790,-15,-14,-20,37,-4,-4,-3,2
1499894919802792,-3,0,5,-12,-1,1,-1,-16
1499894919802792,2,2,6,10,4,4,0,23
1499894919810817,1,2,6,-18,2,0,-1,-34
1499894919810817,11,-7,-9,-29,-8,-4,-3,22
1499894919810817,-5,-3,-11,-14,-7,-4,-2,4
1499894919810817,1,0,-8,-19,-2,-2,-2,-5
1499894919832801,-2,-6,3,29,0,-2,-3,-3
1499894919832801,1,3,5,33,3,3,1,2
1499894919833793,-3,-6,-13,-60,-3,-3,-1,0
1499894919833793,1,2,15,11,1,-2,0,39
1499894919855853,4,-2,-12,12,-1,-1,-2,-20
1499894919855853,-4,5,8,-72,1,-1,1,2
1499894919856800,-17,-1,4,33,4,2,0,-7
1499894919856800,25,-11,-20,-4,-6,-4,-2,30
1499894919870798,-33,0,15,-6,-3,-1,-1,3
1499894919870798,23,-4,-4,20,0,0,-1,2
1499894919870798,5,2,-4,13,1,-1,1,-2
1499894919870798,2,5,14,-55,-3,0,0,-11
1499894919892800,-19,-8,-8,42,-2,-1,-1,-25
1499894919892800,-7,-3,2,-4,3,0,-1,-11
1499894919893796,4,0,3,6,-2,1,0,40
1499894919893796,-3,1,8,18,-2,-2,-1,-7
1499894919907843,7,-8,-1,-16,-1,-2,0,-1
1499894919907843,-9,3,6,-2,0,-1,0,-5
1499894919908798,7,2,-2,7,0,0,-3,-7
1499894919908798,-4,3,2,62,11,4,3,-16
1499894919930806,4,-9,-11,-77,-13,-6,-3,33
1499894919930806,-2,0,-9,33,-4,-4,0,2
1499894919930806,-5,6,18,0,1,0,0,-30
1499894919930806,-8,-4,-7,-7,-1,-1,-1,-11
1499894919952807,4,-1,-25,5,5,2,0,-19
1499894919952807,-7,2,18,73,0,-3,-1,8
1499894919953828,1,-4,-12,-75,-7,-4,-2,1
1499894919953828,0,-1,4,-2,0,0,-1,-1
1499894919969802,-2,1,-2,15,6,4,2,-14
1499894919969802,-6,1,5,-32,-3,-3,-1,17
1499894919970809,3,-7,-11,21,-9,-2,-2,-1
1499894919970809,-3,-6,-13,-10,-3,-1,-3,-7
1499894919990822,-11,3,8,-12,3,1,-1,-8
1499894919990822,5,0,7,4,0,1,-2,7
1499894919990822,-8,-4,-1,19,1,-4,0,10
1499894919990822,3,-3,-2,-13,-3,-2,0,2
1499894920012844,27,5,-3,0,-3,-1,-2,-39
1499894920012844,-7,0,-17,-51,-2,-1,0,8
1499894920014804,3,1,-1,57,2,0,-1,1
1499894920014804,-10,-2,-19,-64,-2,-2,-3,-11
1499894920027808,-5,1,24,23,-1,-2,-2,1
1499894920027808,9,-1,-3,7,-1,1,-1,16
1499894920028804,5,-2,-21,-30,0,1,-1,-11
1499894920028804,-7,4,-3,51,0,-1,-3,-13
1499894920050808,-1,-2,12,4,-5,-2,2,19
1499894920050808,-5,-3,0,-39,-4,-3,-2,-11
1499894920050808,-3,0,15,28,5,0,-1,-1
1499894920050808,-4,1,-6,10,0,0,-1,0
1499894920072808,-8,1,0,-9,0,-1,-1,-3
1499894920072808,7,-3,-14,-59,-10,-3,-5,-12
1499894920073807,5,-1,9,-19,-3,-3,1,2
1499894920073807,9,1,20,-3,2,1,1,12
1499894920086811,-10,-3,-10,25,-2,0,0,-5
1499894920086811,-1,-1,1,31,4,0,1,45
1499894920095827,-2,-3,-7,-5,-1,-1,-2,-23
1499894920095827,-8,-1,2,-8,-4,-2,-1,1
1499894920110810,12,-2,4,46,6,0,-2,-8
1499894920110810,-1,6,3,-45,-8,-5,-6,25
1499894920110810,5,-3,-5,-20,-1,2,0,16
1499894920110810,-7,-5,-1,32,-2,-1,-2,-10
1499894920132874,-2,1,-4,-10,-3,0,-1,2
1499894920132874,-6,0,-3,23,3,-1,1,-31
1499894920133829,7,5,9,-1,2,4,1,10
1499894920133829,-6,-13,-38,-45,-12,-7,-5,-29
1499894920147821,-5,-7,-3,19,0,-1,-2,14
1499894920147821,16,3,-2,-16,-1,2,-1,-19
1499894920155882,4,0,-19,-24,-1,-1,0,10
1499894920155882,-3,0,3,17,-2,-2,0,3
1499894920170813,5,0,12,-13,-1,0,1,7
1499894920170813,-15,-1,-1,26,3,1,-1,-20
1499894920170813,-6,1,14,31,2,-1,0,-7
1499894920170813,9,0,-6,-46,-2,0,0,16
1499894920192813,-14,1,-5,-16,3,-3,-2,-17
1499894920192813,-5,-5,4,51,-5,-4,-1,2
1499894920193819,-4,-9,-8,-20,-4,-3,-3,-3
1499894920193819,5,3,4,39,3,1,2,1
1499894920207826,-8,0,2,-65,-8,-2,-2,16
1499894920207826,3,-1,-5,23,6,3,2,-13
1499894920215834,4,6,11,-42,-5,-3,-6,2
1499894920215834,-3,-4,24,23,0,-2,0,-3
1499894920230837,4,0,-14,25,2,1,2,63
1499894920230837,-13,-3,-9,-15,1,-1,-3,-43
1499894920230837,-2,-3,-15,-3,-6,-1,1,3
1499894920230837,-2,9,12,-8,3,1,1,-4
1499894920252852,3,-3,-1,7,-4,-2,-1,1
1499894920252852,-1,-2,-6,-4,2,-1,-1,9
1499894920253818,1,5,7,40,6,1,1,-7
1499894920253818,-4,-2,-9,-52,-6,-1,-2,15
1499894920267819,-5,-1,8,11,-6,-4,-1,-45
1499894920267819,11,-9,-32,-40,-4,-1,-2,10
1499894920275892,8,7,17,37,2,-1,-2,-6
1499894920275892,-5,-6,-16,13,1,-1,-2,-16
1499894920290823,3,2,4,1,1,-2,-2,-8
1499894920290823,-6,2,18,-19,2,0,1,-4
1499894920290823,-6,-4,-4,21,-4,-2,0,-6
1499894920290823,1,-3,-8,3,-1,-2,1,3
1499894920312857,-4,2,10,38,3,1,-3,1
1499894920312857,16,-3,-13,-62,1,3,1,20
1499894920314821,-3,-2,-3,24,-4,-3,-3,-3
1499894920314821,-5,0,-10,-55,-4,-2,-1,-24
1499894920335825,-1,1,6,17,2,-1,1,-17
1499894920335825,-6,1,1,15,1,0,1,9
1499894920336823,1,-2,-1,-20,-2,0,-2,4
1499894920336823,0,0,4,18,1,0,-3,2
1499894920350825,-3,-2,-1,-1,-2,-1,0,1
1499894920350825,8,-3,5,20,-4,-7,-5,-26
1499894920350825,-8,-1,-1,-23,-2,-1,0,-6
1499894920350825,-3,1,2,23,1,1,-1,-4
1499894920372866,6,3,-7,-15,-1,1,1,3
1499894920372866,-1,-1,1,11,-6,-3,-2,27
1499894920373825,-5,-10,-10,-12,-1,-2,-3,-36
1499894920373825,-17,2,4,28,2,0,-2,-4
1499894920386825,8,-2,3,-47,-5,-2,-1,-4
1499894920386825,-21,0,12,13,3,2,0,-4
1499894920395836,1,1,4,61,3,1,2,53
1499894920395836,17,-8,-28,-62,-14,-9,-8,-26
1499894920410835,2,-1,-10,30,1,-1,0,-2
1499894920410835,-10,1,4,-2,3,1,1,-10
1499894920410835,-3,0,2,-8,1,2,0,15
1499894920410835,-11,0,11,36,4,1,-2,-5
