timestamp,emg1,emg2,emg3,emg4,emg5,emg6,emg7,emg8
1499879288412233,7,-1,52,-104,10,-3,-40,-102
1499879288412233,-35,88,-3,32,9,19,37,73
1499879288413221,-61,-102,-13,-14,-17,-31,-95,-30
1499879288413221,-20,22,-3,65,-2,6,4,85
1499879288415274,29,-18,-26,31,1,-16,-20,-27
1499879288415274,7,30,12,92,-20,6,8,32
1499879288416221,32,-30,-44,-128,13,4,10,-27
1499879288416221,-62,-53,45,75,28,2,6,-8
1499879288422271,52,-26,61,44,-9,-6,-12,39
1499879288422271,-23,-80,-40,23,24,8,28,-63
1499879288429260,-5,-17,-33,-21,-13,1,-9,-37
1499879288429260,68,51,-25,4,-33,-6,-7,75
1499879288440262,-56,59,50,-94,16,-9,-34,-69
1499879288440262,76,-51,-40,6,-38,-4,5,5
1499879288461269,-77,-7,-34,85,34,-9,-13,-43
1499879288461269,-12,-8,20,-62,-9,3,8,-42
1499879288464231,-36,-59,-61,60,-10,-5,-23,24
1499879288464231,32,37,-2,-46,21,15,37,-8
1499879288483236,-48,9,34,-55,-10,-5,18,25
1499879288483236,40,-8,5,-12,10,0,-7,2
1499879288484244,-31,95,7,102,-5,13,13,19
1499879288484244,-97,-119,66,-33,-15,-20,-22,-60
1499879288496294,49,47,-61,101,-2,11,-13,-20
1499879288496294,47,48,74,-30,-11,-16,57,20
1499879288537247,-12,-67,47,-41,0,6,-3,-24
1499879288537247,-8,80,-77,-15,-17,-7,17,-13
1499879288542269,-64,-40,44,24,-39,-9,-12,44
1499879288542269,23,19,-41,48,21,-1,-12,-40
1499879288543248,12,77,-8,-74,-8,-12,-26,106
1499879288543248,-15,27,51,-2,-5,5,19,13
1499879288544248,10,121,-50,-76,-1,0,8,-22
1499879288544248,-51,3,2,-44,-13,-5,-15,-17
1499879288557275,-28,-80,-33,107,-39,-1,-5,3
1499879288557275,-27,5,8,-39,35,-8,-14,36
1499879288559230,41,86,13,-34,0,-5,-19,-67
1499879288559230,-62,-109,-63,25,-3,6,13,-42
1499879288571270,-28,30,108,8,-20,-6,-2,-15
1499879288571270,-10,-16,-71,75,-13,4,22,16
1499879288580237,20,-39,30,-35,-31,3,17,67
1499879288580237,-22,-21,31,-55,73,-4,-15,-14
1499879288586267,70,79,-5,5,25,7,8,20
1499879288586267,-59,-124,-43,-50,-47,-2,26,32
1499879288609305,47,-71,-23,58,33,4,-16,-33
1499879288609305,11,61,27,-22,-23,-1,-4,67
1499879288610252,2,-66,-22,-11,0,-6,20,31
1499879288610252,39,7,53,-37,-19,-9,-46,-88
1499879288624266,41,43,-11,104,34,8,17,47
1499879288624266,-43,-36,49,-75,-64,-15,1,-32
1499879288631283,-25,61,-18,80,76,24,14,4
1499879288631283,70,64,-2,30,-32,-6,-10,-12
1499879288647256,-17,-31,-19,-12,-7,-3,13,-46
1499879288647256,38,48,1,-11,-2,-5,-9,10
1499879288647256,-24,-63,-32,-10,-7,-2,15,-15
1499879288647256,-23,61,50,-16,-16,-5,3,8
1499879288669309,26,46,21,9,32,6,-5,25
1499879288669309,-45,-20,-62,36,-47,-7,25,27
1499879288670250,23,65,-56,-43,27,2,-39,-108
1499879288670250,15,-4,3,41,20,-4,-8,39
1499879288683272,37,27,39,-41,2,-2,1,-7
1499879288683272,24,34,73,37,-31,6,15,66
1499879288691282,-3,-25,-34,-75,8,3,7,42
1499879288691282,16,49,21,-25,8,7,-7,-9
1499879288707283,-103,-88,40,57,10,-12,3,-29
1499879288707283,32,22,-63,-10,26,9,5,-32
1499879288707283,5,19,10,105,-18,-3,15,28
1499879288707283,-21,8,28,-119,1,-1,-44,-78
1499879288729308,21,-47,-13,-19,-22,-7,14,41
1499879288729308,3,61,-2,37,-28,-4,22,87
1499879288730253,-46,-78,23,44,31,4,-37,-121
1499879288730253,-4,-60,-107,-83,5,-1,8,21
1499879288743309,-13,17,75,105,-29,-4,-29,-22
1499879288743309,-7,-9,26,-72,50,2,-1,19
1499879288751246,-4,30,-40,-19,-17,-11,-6,13
1499879288751246,-2,30,44,35,20,6,24,-33
1499879288767288,5,-14,-30,-59,-2,9,17,35
1499879288767288,32,31,-22,70,-16,3,-22,-64
1499879288767288,16,25,-4,-53,-30,-8,6,16
1499879288767288,41,-75,25,76,44,15,6,21
1499879288789306,-35,-21,-45,-61,-5,-3,-16,-37
1499879288789306,27,14,21,50,0,2,9,-12
1499879288790257,-11,-16,-2,-74,-2,-20,-24,-51
1499879288790257,1,-5,31,76,1,3,11,44
1499879288803286,24,-1,-72,-2,39,6,-2,30
1499879288803286,-15,19,5,-7,17,5,4,-100
1499879288811291,-12,-1,-20,-75,-24,0,5,121
1499879288811291,-10,38,-25,8,-43,-14,-39,-51
1499879288827258,-39,-25,49,1,-11,1,5,-68
1499879288827258,0,-56,-38,-15,39,-15,-45,17
1499879288827258,0,9,0,-2,-34,4,38,56
1499879288827258,6,26,-15,19,28,6,-4,-50
1499879288849299,6,83,12,38,-31,-9,4,49
1499879288849299,22,-8,-17,20,-4,2,-14,33
1499879288850283,-32,-61,-41,2,10,1,16,-109
1499879288850283,-1,29,92,-50,5,-9,0,49
1499879288872318,15,-16,-106,-68,-17,-4,7,17
1499879288872318,5,5,11,6,-12,-5,-20,-34
1499879288872318,47,113,61,53,40,3,-7,-10
1499879288872318,-48,-91,-23,40,-5,3,14,-11
1499879288887261,-9,25,-6,9,8,2,4,-18
1499879288887261,-2,-69,32,-23,-3,-2,6,50
1499879288887261,-5,0,5,-46,-54,-9,-15,-8
1499879288887261,10,30,-30,-37,9,3,8,-17
1499879288909317,-14,-22,21,-12,-40,-10,-13,9
1499879288909317,14,46,37,30,72,12,20,8
1499879288910287,19,49,48,82,-11,0,-11,1
1499879288910287,-13,-64,-86,-94,-7,0,6,-40
1499879288932272,-4,-13,2,24,32,-8,-27,84
1499879288932272,-16,24,-1,48,-46,-2,7,-19
1499879288932272,27,5,20,-50,6,-3,21,48
1499879288932272,3,36,-9,0,1,-4,-29,-45
1499879288947295,-7,20,39,63,15,1,0,-38
1499879288947295,12,-23,-6,-69,-33,7,30,29
1499879288947295,-21,-7,-54,-12,16,-1,-21,-86
1499879288947295,14,44,-4,-4,-39,4,7,100
1499879288969320,11,2,-57,5,-15,-6,-8,-8
1499879288969320,-7,-14,79,21,26,-10,-3,-4
1499879288970290,12,12,-34,18,14,9,8,-38
1499879288970290,-10,19,26,13,12,-3,15,5
1499879288992279,-7,-1,28,-15,-8,-1,-16,16
1499879288992279,-8,24,-48,0,-41,6,21,15
1499879288992279,-23,-54,6,14,-41,-17,-62,-59
1499879288992279,-9,-27,-14,51,41,-7,-1,-41
1499879289007290,-4,13,75,39,-12,0,-12,28
1499879289007290,26,12,-18,-6,11,10,16,23
1499879289007290,-25,-24,-13,-72,-44,-12,5,33
1499879289007290,8,10,-10,32,0,0,7,32
1499879289029288,-16,21,23,14,-6,2,-3,10
1499879289029288,3,17,-15,-44,-8,-3,-19,58
1499879289030271,-5,-14,-33,46,39,11,26,27
1499879289030271,-17,-19,-15,27,-27,-17,-13,-11
1499879289052264,3,40,-7,-23,16,8,-21,-87
1499879289052264,-5,-19,9,-14,-33,-8,-12,30
1499879289053261,26,-42,-38,-34,27,16,10,51
1499879289053261,-18,-49,46,58,-50,-15,-7,4
1499879289075328,-4,28,17,-41,60,24,35,2
1499879289075328,-4,-19,-35,-31,-21,-12,-10,-54
1499879289076278,43,41,43,39,3,1,25,79
1499879289076278,8,-3,-9,53,2,10,-9,-51
1499879289089303,-17,-52,-19,-48,-12,-8,4,-1
1499879289089303,25,44,4,-25,23,0,-11,-43
1499879289090263,-3,49,54,30,-12,5,29,48
1499879289090263,-8,-67,-9,9,17,-6,-21,52
1499879289112327,6,54,-13,37,-66,-5,7,14
1499879289112327,5,-41,-51,-42,81,15,7,-16
1499879289112327,-17,16,51,50,-9,-5,-3,-19
1499879289112327,-7,28,16,-6,-7,8,41,34
1499879289127284,45,-35,-53,-27,16,-1,-22,-47
1499879289127284,-48,-1,36,32,-38,-4,20,65
1499879289127284,0,0,-7,65,12,0,4,-48
1499879289127284,-14,-24,-11,-86,-2,-2,-17,-23
1499879289149276,22,25,-2,33,-3,1,9,-5
1499879289149276,0,-3,36,38,22,0,-4,-12
1499879289150267,-17,-60,16,-72,-9,2,-3,30
1499879289150267,-9,24,3,-9,32,-3,-17,-44
1499879289172337,1,63,1,16,-34,-12,3,22
1499879289172337,10,-33,-35,16,19,1,-11,-45
1499879289172337,-19,-9,3,-35,-5,-5,7,-21
1499879289172337,16,-6,-30,12,-16,-1,-17,1
1499879289187288,48,-30,23,-38,3,7,13,30
1499879289187288,-30,25,-1,12,49,-7,-22,-21
1499879289187288,3,-39,0,44,-11,-6,6,-49
1499879289187288,13,-53,-12,-61,-8,3,7,10
1499879289209332,-5,-18,28,14,31,-2,11,45
1499879289209332,6,89,-22,-1,-27,-2,-5,-47
1499879289210280,59,120,5,44,-22,3,5,57
1499879289210280,-11,-19,39,42,45,-4,-3,-70
1499879289232271,-20,-32,-23,-79,0,-2,-37,1
1499879289232271,-2,-47,-59,-25,-27,-9,2,1
1499879289232271,-38,-5,-2,-22,-41,-9,8,-49
1499879289232271,35,101,17,10,-26,9,6,43
1499879289247337,-20,-108,-55,3,64,4,20,-15
1499879289247337,-12,4,23,3,-30,-7,-15,-12
1499879289247337,8,-14,16,-29,10,-10,-16,2
1499879289247337,-2,-35,8,-5,-74,-9,3,22
1499879289269345,-14,-21,-39,-6,75,10,12,-30
1499879289269345,26,21,37,82,-15,3,-5,26
1499879289270281,-22,-40,19,-55,26,-2,-29,-26
1499879289270281,-14,18,1,-1,-26,-3,-3,-18
1499879289292299,-11,85,-57,-100,-24,-7,5,20
1499879289292299,-6,-33,-10,56,18,-4,-2,-11
1499879289292299,36,26,-21,-5,19,4,-13,-36
1499879289292299,-25,-31,16,28,31,2,-2,53
1499879289307337,9,84,5,11,-45,-7,-9,-27
1499879289307337,5,4,74,40,12,7,14,-1
1499879289307337,-13,7,-44,-18,9,-3,-11,22
1499879289307337,12,39,-9,3,19,0,4,8
1499879289329333,-11,-26,35,29,-24,1,16,9
1499879289329333,-32,-38,18,-36,0,-3,9,86
1499879289330278,23,3,-35,39,-21,-6,-22,-26
1499879289330278,-40,-45,-15,-22,19,-2,-16,-11
1499879289352304,-5,3,26,32,19,2,6,6
1499879289352304,12,47,-27,5,-12,4,0,-15
1499879289352304,-34,-94,-14,-70,26,0,-3,-43
1499879289352304,22,57,69,78,18,6,17,30
1499879289367299,8,-3,-56,-20,-28,-6,6,13
1499879289367299,-19,-81,-24,-14,-15,0,-11,-33
1499879289367299,14,104,15,95,29,4,7,35
1499879289367299,12,-22,8,10,-14,-2,5,6
1499879289389352,-11,4,43,42,-6,-2,9,8
1499879289389352,1,-2,-18,-94,14,-6,-17,-66
1499879289390280,25,64,31,111,7,14,22,69
1499879289390280,-3,-72,-39,-70,16,-8,-18,-13
1499879289412293,-1,37,57,75,-25,-1,-3,-21
1499879289412293,10,-40,-54,-45,-4,-6,-8,-15
1499879289412293,-35,-42,-19,-50,-3,-4,-5,-35
1499879289412293,19,95,12,50,0,5,8,12
1499879289426326,8,-52,29,27,-4,-5,2,17
1499879289426326,-24,-15,9,-36,-16,0,2,54
1499879289434327,-12,13,-3,30,-7,-8,-10,-21
1499879289434327,6,19,-48,-78,5,10,27,12
1499879289449350,-1,-4,-27,-18,-37,-12,-42,-65
1499879289449350,19,34,1,-57,54,4,8,3
1499879289450295,-3,26,47,50,-43,0,-1,0
1499879289450295,-1,-51,-33,-2,24,1,2,13
1499879289472314,-1,-38,-33,-77,16,4,2,-9
1499879289472314,4,5,56,127,-26,-6,7,-5
1499879289472314,-4,-36,-27,-56,-22,-9,-18,12
1499879289472314,22,7,38,-23,3,1,2,15
1499879289486325,-10,32,-54,-6,-19,0,-2,-12
1499879289486325,-1,23,16,93,24,6,3,10
1499879289494327,-16,-84,-36,-82,-19,-4,7,3
1499879289494327,-10,37,5,127,8,-1,-16,-35
1499879289517328,9,-25,22,-101,-38,-6,4,15
1499879289517328,-6,45,-22,11,3,1,-13,13
1499879289518301,4,13,20,34,1,0,-4,-25
1499879289518301,-10,26,-17,9,12,-3,-4,-48
1499879289531336,20,73,32,-28,-4,2,14,40
1499879289531336,-13,-54,-38,-9,-20,2,-8,-7
1499879289539350,-15,-23,-37,-65,-6,-4,-13,-35
1499879289539350,-5,-35,11,47,-41,-7,-10,25
1499879289555333,-8,2,20,2,80,1,-7,-33
1499879289555333,32,6,8,4,-28,8,32,59
1499879289555333,-5,-20,3,25,57,1,-14,2
1499879289555333,3,22,-6,-70,-9,-2,5,1
1499879289577335,-35,-53,-2,38,-30,-6,-4,-27
1499879289577335,10,31,-3,-20,13,-1,7,42
1499879289578323,19,75,-9,-66,-48,-4,21,15
1499879289578323,-28,-60,3,17,19,-11,-17,-30
1499879289592312,-1,-30,-10,41,10,12,12,36
1499879289592312,-8,46,42,16,-8,-9,-19,-58
1499879289592312,14,-3,6,-45,-15,-5,6,6
1499879289592312,3,49,11,-27,14,3,2,-12
1499879289615337,-13,7,-9,38,-35,-4,-13,45
1499879289615337,-5,-29,-49,-93,16,2,-6,-67
1499879289615337,-24,-11,18,109,0,-2,10,-33
1499879289615337,14,25,-9,-38,1,0,6,14
1499879289637333,6,-37,-27,18,20,0,-2,-36
1499879289637333,-12,-7,-10,-4,-42,-10,-7,-7
1499879289638319,22,56,20,-53,26,7,-6,82
1499879289638319,-6,-16,5,8,17,0,3,40
1499879289652344,-20,22,-50,-27,-22,-6,-8,-17
1499879289652344,-14,-38,24,-43,5,-5,15,-31
1499879289659360,-11,38,2,14,3,2,-6,-3
1499879289659360,33,-6,-27,18,-27,-3,0,-7
1499879289675340,-1,-21,41,-1,28,1,-7,11
1499879289675340,5,32,-17,28,-3,0,3,18
1499879289675340,-12,4,42,-16,-10,-2,2,-40
1499879289675340,14,-18,-28,10,18,1,-1,29
1499879289697338,9,0,5,-5,26,1,2,-6
1499879289697338,-20,-32,-21,-6,-15,3,-3,-49
1499879289698337,-12,27,-2,92,-10,5,14,27
1499879289698337,-5,9,22,-15,-10,-8,2,4
1499879289712338,6,25,-4,27,5,9,7,-50
1499879289712338,18,9,2,-66,1,-4,-4,50
1499879289719384,6,-33,8,6,15,3,20,25
1499879289719384,-1,42,-14,-43,-25,-2,-11,14
1499879289735362,-27,-52,24,71,5,-1,-5,-35
1499879289735362,5,42,2,-8,-28,-2,2,-41
1499879289735362,-12,-94,-26,-49,11,-2,-5,-34
1499879289735362,-8,6,-19,-3,-21,3,9,-13
1499879289757310,9,-9,74,12,31,-1,-12,15
1499879289757310,24,29,-22,19,-26,-2,-4,25
1499879289758303,8,-1,-12,56,19,-2,2,-3
1499879289758303,1,31,-25,-84,-3,0,-2,-57
1499879289772318,-14,-6,31,7,-41,-12,-17,-27
1499879289772318,-2,-34,23,50,2,1,12,45
1499879289772318,18,37,21,-48,21,-3,-14,9
1499879289772318,-13,49,13,46,5,10,-5,4
1499879289795367,-9,-64,-96,-35,-11,-7,6,14
1499879289795367,7,69,26,-41,-19,-3,0,18
1499879289796339,5,7,-6,49,37,3,10,-13
1499879289796339,3,3,-16,-13,-11,-4,-3,11
1499879289817348,-2,-40,2,46,-51,-4,-21,-6
1499879289817348,-16,-1,1,-38,73,1,-5,-26
1499879289818318,9,6,24,19,-29,-3,4,15
1499879289818318,5,-28,8,-10,4,-5,0,15
1499879289832334,7,5,-11,-11,15,2,1,-5
1499879289832334,-50,-32,1,6,8,-4,4,-6
1499879289832334,3,36,-25,-7,-23,1,-4,27
1499879289832334,1,-70,13,-36,17,5,6,-14
1499879289855347,3,92,-13,25,6,-5,5,36
1499879289855347,25,-36,-11,50,7,3,7,-5
1499879289855347,-39,-35,-17,-53,-6,-5,-13,-21
1499879289855347,-18,24,-12,22,-20,-11,-24,-10
1499879289877356,8,31,38,-18,35,5,6,-29
1499879289877356,11,-13,5,-70,-25,-6,-10,51
1499879289878322,-10,-9,10,45,-20,0,5,-8
1499879289878322,-23,-22,-6,-26,-8,-5,0,2
1499879289892340,5,7,-31,-10,-26,-6,3,-4
1499879289892340,3,34,18,94,19,7,4,-12
1499879289892340,9,-15,0,-84,-56,-2,3,8
1499879289892340,20,-18,1,43,54,6,2,11
1499879289915367,-7,-5,-1,18,-5,-4,1,23
1499879289915367,1,-17,22,23,-1,-1,16,30
1499879289915367,2,13,-6,-22,13,2,-31,-42
1499879289915367,-7,-8,15,-11,-29,-2,15,-9
1499879289937365,-2,2,-49,-36,14,-1,-6,-38
1499879289937365,17,12,13,19,-18,-5,-15,13
1499879289938355,-26,-64,-13,4,34,2,13,9
1499879289938355,6,5,20,19,-1,-1,-1,7
1499879289951352,-9,-32,-6,-4,0,4,13,12
1499879289951352,-4,30,18,-22,-23,-4,-7,-11
1499879289959382,33,39,14,9,-1,2,-1,-10
1499879289959382,-1,-39,-11,41,61,-2,-3,-8
1499879289975371,-8,-5,30,-61,-5,2,10,19
1499879289975371,21,58,-15,23,3,2,-5,-12
1499879289975371,-5,-69,-46,-7,-15,-4,-6,28
1499879289975371,4,-19,-6,-27,-27,-4,2,8
1499879289997356,0,26,44,4,-9,4,17,32
1499879289997356,-3,24,17,25,26,-2,-8,-25
1499879289998347,21,38,-84,26,5,1,6,6
1499879289998347,-6,-35,-23,-5,-26,-6,-11,-15
1499879290011340,1,9,20,-27,6,1,9,33
1499879290011340,-2,-41,-11,-6,-34,1,-11,5
1499879290019392,4,10,37,-12,32,-4,-6,54
1499879290019392,15,58,-19,43,0,5,4,-21
1499879290035360,-22,-7,-4,-16,2,-4,-11,-14
1499879290035360,-15,-43,-13,-69,-38,-6,-2,10
1499879290035360,15,35,31,36,2,-1,7,-7
1499879290035360,-18,-19,2,0,24,8,16,22
1499879290057366,16,11,18,48,-5,-4,-29,-21
1499879290057366,3,-4,-12,5,18,3,18,-25
1499879290058348,-30,-27,8,3,-30,-9,-20,-24
1499879290058348,3,30,26,-11,7,5,14,16
1499879290071358,11,-30,-32,-14,-20,-4,-8,-30
1499879290071358,-3,-34,24,-2,25,2,6,-3
1499879290079384,1,10,-6,-25,-64,-4,3,13
1499879290079384,-5,17,-2,26,45,0,-5,8
1499879290095364,6,-23,40,71,18,3,10,11
1499879290095364,7,12,-74,-2,6,-3,-8,1
1499879290096323,-25,-34,-41,-70,-6,-5,-6,-14
1499879290096323,8,1,-4,2,-31,-10,-11,4
1499879290117380,-11,38,-13,-24,-22,-1,-4,-8
1499879290117380,-42,-83,35,5,17,4,2,-55
1499879290118333,30,29,-18,37,34,1,-1,34
1499879290118333,-21,-55,17,-9,-62,-11,-23,-45
1499879290131361,10,-12,-29,-17,41,0,-4,11
1499879290131361,11,44,9,13,-11,-2,-5,-6
1499879290139395,-15,-6,26,-12,-1,5,13,0
1499879290139395,-7,9,-36,21,-14,3,9,-2
1499879290155391,19,20,25,-25,4,0,-12,14
1499879290155391,-16,-33,-39,11,12,-2,-13,-15
1499879290156352,5,-1,-20,-33,-3,-1,2,5
1499879290156352,0,1,72,14,1,1,13,20
1499879290177371,-25,-4,-36,8,-1,0,-6,-5
1499879290177371,24,27,-2,-102,-33,-5,-1,5
1499879290178350,-3,-60,-5,35,15,-2,4,7
1499879290178350,-7,6,33,21,-24,-3,-3,-4
1499879290191360,8,-5,-13,-38,45,1,2,-9
1499879290191360,1,17,36,43,1,2,3,6
1499879290199386,-8,21,12,40,21,-1,7,-9
1499879290199386,8,13,-46,-70,-29,-6,-16,-7
1499879290215374,5,15,4,2,-19,3,4,-1
1499879290215374,1,-22,-21,29,5,-2,7,45
1499879290215374,-8,-8,22,25,-5,2,-2,-26
1499879290215374,10,-26,-17,-20,11,7,21,24
1499879290237397,3,56,32,12,-13,-11,-22,-13
1499879290237397,2,-6,-15,8,28,1,-5,10
1499879290238339,-10,1,34,10,-23,-3,-6,-10
1499879290238339,20,15,-16,4,12,0,12,11
1499879290251369,19,16,5,-25,16,4,-13,-11
1499879290251369,-31,-74,-13,24,-30,-5,4,-25
1499879290260370,7,-5,20,-18,-3,-4,-11,5
1499879290260370,-2,30,-47,-12,11,4,1,-15
1499879290275378,-6,-12,-18,40,-17,-6,24,36
1499879290275378,-21,1,10,-30,10,0,-25,-24
1499879290275378,8,29,47,23,15,-6,-22,-4
1499879290275378,4,9,-23,-47,9,8,-4,-3
1499879290297376,-1,-16,-34,-9,-31,-3,16,11
1499879290297376,4,59,33,26,-4,-6,0,-10
1499879290298373,-7,-72,7,-23,22,0,2,-2
1499879290298373,3,25,12,-3,13,-2,0,5
1499879290320372,2,-5,1,33,8,2,-10,-3
1499879290320372,6,2,-22,-52,-12,4,11,7
1499879290320372,-7,19,-33,0,-9,1,3,-5
1499879290320372,4,-1,8,26,23,-3,0,16
1499879290335404,-4,-11,-1,-47,-18,0,6,-3
1499879290335404,4,9,6,71,-7,1,0,5
1499879290336336,27,38,-10,-32,8,4,23,9
1499879290336336,-33,-33,-1,-7,-6,0,-15,-6
1499879290357406,-15,-12,19,70,2,-2,-3,-33
1499879290357406,4,14,-21,-38,-3,1,-1,-7
1499879290358354,0,0,18,-74,-17,0,8,20
1499879290358354,10,13,4,38,-9,-4,-1,-21
1499879290380383,-2,-7,-33,-62,-9,-2,7,22
1499879290380383,0,-12,17,53,-10,-4,-12,-7
1499879290380383,0,8,-19,-55,5,1,2,-18
1499879290380383,0,-21,33,4,-3,-3,-5,45
1499879290394405,-14,-17,18,22,15,5,3,3
1499879290394405,17,2,-17,-27,-10,-2,6,-24
1499879290395375,-26,-50,-1,28,0,-7,-6,19
1499879290395375,5,15,17,45,12,7,5,-11
1499879290417406,-2,-13,13,-67,-28,-8,-4,-19
1499879290417406,-7,5,-41,-19,60,6,14,22
1499879290418372,-4,23,-11,22,-11,-2,-6,-18
1499879290418372,9,-4,-19,6,-24,-6,2,-1
1499879290440416,2,21,-9,-4,12,2,1,11
1499879290440416,13,-32,-12,1,-5,-4,7,21
1499879290440416,11,12,57,2,-4,0,-3,-3
1499879290440416,-4,-36,-75,21,7,2,-8,-5
1499879290454391,-18,5,8,-45,5,0,-9,-30
1499879290454391,-1,3,14,-64,-16,-8,-5,15
1499879290455342,-13,11,2,22,2,0,-3,-27
1499879290455342,-2,-8,-27,-8,-9,-3,2,4
1499879290477409,7,5,26,38,-15,-3,8,15
1499879290477409,1,-22,-31,-1,7,2,-14,-8
1499879290478377,-7,-43,-28,2,-5,0,9,1
1499879290478377,-4,17,81,-14,-20,2,-19,-5
1499879290500384,14,22,-13,47,23,-4,0,18
1499879290500384,-15,-6,15,-2,-5,-1,0,-30
1499879290501345,24,13,16,40,-37,-4,3,16
1499879290501345,-18,51,-23,-33,43,5,13,10
1499879290514389,-11,-76,-37,2,1,-4,-19,-7
1499879290514389,6,26,24,2,-20,-7,-4,10
1499879290515345,3,15,-10,36,14,1,4,-5
1499879290515345,4,-13,0,-18,-16,-8,-14,-17
1499879290537416,0,11,-3,-3,-25,4,9,13
1499879290537416,-1,19,4,27,25,1,-2,-18
1499879290539348,0,9,-28,5,3,-1,-4,5
1499879290539348,-5,-49,-5,-20,-3,-8,2,-5
1499879290560397,4,24,10,65,-39,-4,8,0
1499879290560397,2,-17,11,-8,41,4,-4,14
1499879290561349,-30,-58,-2,15,2,-1,-3,-1
1499879290561349,1,27,43,-75,16,-3,6,3
1499879290573416,1,-31,-8,13,8,5,-2,-27
1499879290573416,-4,10,-56,13,-44,-3,19,24
1499879290582371,-5,22,16,-36,20,-2,-21,-19
1499879290582371,6,12,47,52,20,3,0,3
1499879290597361,12,-6,-17,-34,-45,1,5,8
1499879290597361,7,-16,2,22,50,5,0,-4
1499879290599381,-10,29,-17,-13,-5,-2,-7,19
1499879290599381,-1,-33,2,11,-31,-1,4,8
1499879290620392,-1,38,18,-1,43,3,10,-7
1499879290620392,-5,29,-13,-5,-31,-9,-22,-6
1499879290621353,18,7,-12,-12,5,3,15,-6
1499879290621353,-13,-17,14,23,-3,0,-9,-21
1499879290633427,-3,17,-5,-8,-15,0,-2,15
1499879290633427,-14,-47,-1,-6,20,-1,5,6
1499879290642373,-1,-30,-29,7,13,-2,-5,-4
1499879290642373,19,27,45,16,-28,-2,1,4
1499879290657397,-16,22,-38,-40,-9,-2,-1,-19
1499879290657397,0,6,32,32,22,1,-4,14
1499879290659354,7,2,-47,-19,-19,-2,-4,-17
1499879290659354,-11,-20,39,6,16,0,15,10
1499879290680401,2,38,-26,-2,-7,-8,-20,3
1499879290680401,3,8,15,-58,-23,-4,-24,-52
1499879290681356,-2,14,35,-1,-6,-1,-2,3
1499879290681356,5,2,20,13,28,8,2,-13
1499879290693426,7,-40,-36,-25,16,-2,-6,-9
1499879290693426,-4,3,35,10,-23,-3,11,30
1499879290702375,-9,-10,-6,22,-5,1,1,-2
1499879290702375,-1,-18,-32,5,-23,-6,-7,-14
1499879290717426,-12,-48,21,-15,35,2,4,2
1499879290717426,1,-17,-25,27,4,-1,6,8
1499879290719391,8,25,21,-33,-4,1,-1,4
1499879290719391,0,21,-12,-17,3,3,15,21
1499879290740357,-6,-12,23,16,-12,-5,-7,-13
1499879290740357,6,-6,-12,-26,-34,-2,5,5
1499879290741360,-11,-1,15,15,-3,-5,-25,-30
1499879290741360,6,-12,-25,4,18,-1,5,18
1499879290753358,-10,-31,0,7,3,-1,-19,-23
1499879290753358,-2,16,17,-5,19,1,4,14
1499879290762362,3,1,-6,-26,0,-2,10,1
1499879290762362,-21,-16,-22,4,-35,-7,-17,-21
1499879290777388,10,11,3,11,28,4,15,6
1499879290777388,9,55,37,25,-13,0,-1,12
1499879290779361,-22,-68,-28,23,-4,-4,-3,-21
1499879290779361,14,27,-13,-19,-1,5,2,1
1499879290800391,-8,-1,-9,0,8,-4,5,5
1499879290800391,-1,20,-17,5,-26,-3,-1,-1
1499879290801362,8,-14,36,14,22,2,6,15
1499879290801362,-1,2,-9,31,-39,-7,-8,-6
1499879290813362,-3,-5,-14,-20,33,5,-15,-22
1499879290813362,-2,5,10,-2,-5,6,6,4
1499879290822365,-4,-23,-20,3,-9,-4,-8,10
1499879290822365,-2,24,-4,-41,-2,-6,-24,-20
1499879290837364,4,9,15,9,-7,0,8,12
1499879290837364,-13,-18,6,15,-19,0,-1,-1
1499879290839364,10,18,0,-12,8,2,0,-10
1499879290839364,0,-9,-19,5,24,1,3,2
1499879290860371,-3,4,1,-22,-7,1,8,1
1499879290860371,-11,-19,-7,-20,1,-5,-9,-5
1499879290861370,3,32,20,41,-17,0,11,21
1499879290861370,6,-18,-32,3,0,7,15,4
1499879290873369,5,2,39,3,-2,-5,-2,3
1499879290873369,2,-20,-29,15,-15,-10,-6,-13
1499879290882369,6,15,13,5,16,2,-3,6
1499879290882369,-22,-25,-3,-72,-4,-4,-2,-28
1499879290897430,-4,-5,-11,41,-24,-4,4,10
1499879290897430,12,-18,41,-2,39,11,9,6
1499879290899367,0,10,-42,33,-2,-3,-17,-14
1499879290899367,-21,-19,-16,-56,-8,-8,2,8
1499879290920410,2,-37,37,22,-13,-4,1,10
1499879290920410,-10,11,-13,-8,-7,-4,-21,-13
1499879290921369,12,31,50,54,41,8,17,20
1499879290921369,18,-29,-80,-56,-30,-3,-18,-15
1499879290933431,-16,3,18,-17,25,0,1,4
1499879290933431,4,11,14,-4,-30,-4,11,3
1499879290942388,-2,1,-11,2,5,-1,6,-1
1499879290942388,-6,26,54,59,22,1,-11,-50
1499879290957378,0,-42,-42,-29,-10,1,7,9
1499879290957378,-12,5,-8,28,-9,1,-3,-13
1499879290959371,11,15,-33,-80,-16,-1,5,39
1499879290959371,13,34,52,27,-6,-6,4,27
1499879290980420,12,33,18,-14,10,4,-5,-38
1499879290980420,-7,-87,-12,25,-16,-1,6,-8
1499879290981372,1,-8,-52,-78,14,2,-6,-16
1499879290981372,-4,-13,33,37,7,-2,2,25
1499879290993437,1,19,-15,-28,13,4,7,19
1499879290993437,4,26,24,79,22,-2,6,-9
1499879291002394,-8,-33,-12,-55,-5,3,-9,-11
1499879291002394,0,15,-58,-38,-15,-6,-1,-11
1499879291017442,5,29,35,26,-32,3,1,14
1499879291017442,6,7,2,-17,43,1,1,16
1499879291019394,1,53,51,8,-19,-2,6,8
1499879291019394,-3,-53,-60,11,11,2,2,6
1499879291040440,6,0,-24,3,-24,-6,-6,-11
1499879291040440,-11,3,-31,-58,26,-5,-3,-12
1499879291041381,-14,-48,3,19,-28,-4,-7,-3
1499879291041381,4,27,20,-7,-3,1,7,16
1499879291053447,-14,-5,-8,15,-13,-4,3,-4
1499879291053447,28,56,4,-1,6,6,-9,0
1499879291062397,-23,-62,-16,-30,9,1,17,22
1499879291062397,-7,36,23,12,-4,0,-18,-25
1499879291077439,7,-11,-9,-12,-9,-1,-1,-1
1499879291077439,4,50,27,-16,-10,-2,-10,-9
1499879291079379,1,-8,-59,6,13,-5,-4,-19
1499879291079379,-8,-16,71,49,-15,1,16,9
1499879291100418,11,2,-46,-7,1,0,-3,17
1499879291100418,-20,-31,11,-59,9,-4,-8,4
1499879291101379,-2,20,35,21,-6,-2,2,-13
1499879291101379,8,2,-6,16,2,0,9,2
1499879291113444,-15,-32,20,24,-26,-8,-35,-19
1499879291113444,-3,6,-24,-5,37,5,13,11
1499879291122402,3,-16,-1,-21,-14,-5,-14,-20
1499879291122402,6,35,14,27,17,7,9,7
1499879291137429,8,9,-7,-7,-8,-3,12,4
1499879291137429,-3,-23,-3,6,-17,-3,-5,11
1499879291139382,-5,7,1,1,27,-3,-6,-10
1499879291139382,-1,-10,2,-31,16,-1,-5,-1
1499879291160449,-3,-12,12,36,16,2,11,6
1499879291160449,-4,3,-34,-2,-34,2,10,9
1499879291161388,15,-9,-4,-11,-16,-2,-21,-25
1499879291161388,1,9,24,46,-2,-1,12,37
1499879291173451,14,20,-54,-41,-3,-1,-15,-36
1499879291173451,-29,-57,16,3,18,0,-9,-13
1499879291182421,4,23,7,28,-10,-2,3,-1
1499879291182421,-3,21,-10,-31,-7,-2,-9,-7
1499879291196426,-16,-64,2,-2,-28,-3,6,9
1499879291196426,13,24,26,18,-4,1,-2,6
1499879291205386,4,40,19,27,29,5,9,13
1499879291205386,-11,-41,-67,-29,-15,-9,-11,-17
1499879291220428,13,32,46,15,24,1,9,16
1499879291220428,0,-20,-44,-23,-21,-3,1,-25
1499879291221387,5,43,-12,16,-15,-3,-7,3
1499879291221387,-2,6,38,14,28,2,0,7
1499879291233455,-4,-6,-27,-3,17,-1,-9,-32
1499879291233455,7,-23,-7,-17,-11,-2,-3,-6
1499879291242408,-5,-9,38,15,-26,-4,13,9
1499879291242408,2,-16,-41,-27,-6,3,-8,-13
1499879291257457,0,20,34,3,-2,-1,-3,8
1499879291257457,-6,3,-12,49,27,3,-2,4
1499879291259423,13,7,14,-1,8,5,14,8
1499879291259423,-16,-37,10,-17,-18,-3,8,8
1499879291280450,-5,-5,-13,29,27,-4,-16,-2
1499879291280450,8,23,-10,-54,-11,-1,2,14
1499879291281390,11,-22,-6,15,-11,-1,-11,-18
1499879291281390,-5,-4,-10,-11,-15,-2,-2,-4
1499879291302463,-2,15,34,19,-4,2,14,12
1499879291302463,21,37,16,14,-22,2,5,3
1499879291304393,-40,-47,-65,-6,19,-7,-21,-17
1499879291304393,6,2,20,4,7,0,1,9
1499879291317451,-10,-7,-5,-27,0,-2,4,1
1499879291317451,5,-2,-11,29,-7,-2,-2,1
1499879291319393,-2,18,43,13,2,3,7,1
1499879291319393,4,17,-28,-21,-11,1,2,-9
1499879291340465,-2,-7,-10,-14,2,0,6,32
1499879291340465,-1,-8,7,1,1,-6,-18,-31
1499879291341394,5,26,6,-23,14,-3,0,-5
1499879291341394,-10,-2,-4,24,2,-3,-7,-16
1499879291362444,9,2,10,-2,-14,6,11,19
1499879291362444,0,20,-13,32,4,-4,-2,4
1499879291364411,1,-28,13,-34,20,2,3,13
1499879291364411,-2,6,8,6,5,-3,-10,-9
1499879291377442,6,13,16,-11,-5,0,11,5
1499879291377442,-8,-6,-15,23,-32,-1,-6,-7
1499879291379396,2,-5,21,-37,-18,-4,-9,14
1499879291379396,8,14,-51,10,24,-4,-6,-9
1499879291400431,-17,-9,14,20,-35,-5,-4,2
1499879291400431,5,-22,-40,-60,17,1,13,-9
1499879291401397,5,-12,8,26,18,2,-13,-6
1499879291401397,13,25,18,-1,-8,2,-2,20
1499879291422463,-18,-36,-30,7,-4,-10,-7,-12
1499879291422463,12,8,52,-19,8,-1,10,7
1499879291424398,-12,-34,-30,-20,-25,2,-3,2
1499879291424398,8,20,50,11,-18,-9,-15,-10
1499879291436439,-5,-3,-68,-24,33,5,-8,-25
1499879291436439,-6,-21,38,9,-24,-2,2,13
1499879291443432,0,23,-13,-1,4,0,14,-10
1499879291443432,-1,-21,-1,-4,-24,-1,-3,-2
1499879291460429,2,20,-3,-1,41,-3,-2,-4
1499879291460429,-8,-3,-11,5,-24,-8,-11,-2
1499879291461401,15,28,14,2,45,3,-5,5
1499879291461401,-2,13,-7,26,6,3,2,1
1499879291482448,-6,-23,6,-29,-13,0,4,-8
1499879291482448,-15,32,-12,5,-14,-1,-7,-13
1499879291484403,-8,-68,-27,25,-11,-4,8,20
1499879291484403,-4,-13,-14,-30,-7,-5,2,-13
1499879291496473,13,19,22,-28,25,4,5,-5
1499879291496473,-9,21,-33,2,-4,-2,-6,16
1499879291503441,0,8,25,4,-28,-4,-1,-16
1499879291503441,-6,-9,-9,-3,-15,-4,-1,5
1499879291520403,1,11,6,36,8,3,-5,-2
1499879291520403,20,6,7,-23,1,3,24,-3
1499879291521404,-23,-60,-29,-1,-22,-5,-30,-21
1499879291521404,-4,-26,-2,32,10,2,-2,3
1499879291542404,8,31,12,15,2,-2,0,6
1499879291542404,-13,-55,9,-27,10,-6,-16,-19
1499879291544414,9,39,-3,3,-4,-1,10,-1
1499879291544414,-3,6,17,28,7,4,10,2
1499879291556451,3,6,14,-30,7,0,-6,-1
1499879291556451,2,0,-39,3,6,0,4,7
1499879291563476,3,11,1,26,-5,1,13,25
1499879291563476,15,58,-2,-31,8,-1,-7,-28
1499879291580407,-30,-47,40,24,-18,-5,-5,-8
1499879291580407,-3,-18,0,-12,1,-3,-6,4
1499879291581410,6,22,-16,-36,-9,0,17,2
1499879291581410,-11,-3,10,-13,4,-5,-21,-17
1499879291602408,18,16,-27,5,-25,1,-2,5
1499879291602408,-4,-2,17,19,38,2,-2,-7
1499879291604408,-5,-6,4,11,-3,-2,4,7
1499879291604408,3,44,12,-4,25,6,18,16
1499879291617409,-1,-81,-20,-14,-27,-5,-16,-3
1499879291617409,-4,2,-33,3,-40,-6,-9,-23
1499879291623477,0,24,1,-29,31,3,-4,-8
1499879291623477,15,-45,22,-23,-6,3,20,16
1499879291640427,-19,-2,-12,5,3,-5,-17,7
1499879291640427,5,22,18,39,-11,4,8,14
1499879291641412,4,9,-16,-11,-6,-1,-1,1
1499879291641412,-18,-57,-1,-6,-47,-7,-2,-4
1499879291662461,3,42,29,-23,46,2,2,-6
1499879291662461,-1,6,-17,-14,-24,-3,-4,2
1499879291664413,17,17,-22,65,4,-3,-3,11
1499879291664413,-21,-50,35,-42,32,7,-2,2
1499879291677421,12,-13,-69,28,-9,-1,4,-8
1499879291677421,-2,32,54,-21,16,0,0,6
1499879291683423,-2,-18,-13,-47,-21,-1,10,12
1499879291683423,-1,31,-18,43,12,-4,-16,1
1499879291700425,0,-11,-8,-16,-9,2,7,9
1499879291700425,-3,-18,11,-9,-1,-2,-6,-20
1499879291701415,-9,-5,25,9,-11,1,2,3
1499879291701415,10,16,-4,3,4,-1,5,20
1499879291722477,-5,7,-18,-18,2,1,-18,-34
1499879291722477,-7,5,8,20,19,-2,-3,4
1499879291724425,-2,-10,-10,-1,-4,-6,-10,-5
1499879291724425,-3,-7,-42,3,-4,-5,0,-5
1499879291736457,8,33,3,20,-12,-5,12,2
1499879291736457,9,-19,10,1,4,9,1,17
1499879291743477,-11,5,15,19,-24,-6,-7,5
1499879291743477,6,48,-15,-12,70,1,0,1
1499879291760428,2,-15,27,1,-9,-2,1,4
1499879291760428,-6,9,-9,-40,-13,-2,8,7
1499879291761418,-6,-7,-5,31,1,-1,-10,-17
1499879291761418,0,-15,-16,-28,-20,-2,-8,-6
1499879291782433,5,22,22,-38,-13,3,4,12
1499879291782433,-1,-4,-11,18,58,2,8,8
1499879291784419,-2,-29,7,13,-1,-2,3,2
1499879291784419,4,5,-29,-14,-13,-5,0,5
1499879291796490,-1,14,-6,16,-5,-2,-4,-4
1499879291796490,-4,-8,-18,-2,-21,2,1,-9
1499879291805420,-6,-24,3,-23,24,6,2,-5
1499879291805420,-3,12,-18,2,-22,-8,-3,8
1499879291820474,-8,-2,23,14,1,-2,-3,-2
1499879291820474,-1,16,3,25,-21,0,-1,-6
1499879291821422,3,19,9,-34,26,5,-3,4
1499879291821422,7,19,23,9,-7,2,0,-4
1499879291842438,-18,-86,-41,-5,-30,-8,4,7
1499879291842438,9,18,41,15,26,3,11,13
1499879291844425,0,2,-20,-24,-1,-6,-7,-6
1499879291844425,-6,-23,-16,-25,-23,-1,2,0
1499879291856495,7,23,15,55,36,3,3,0
1499879291856495,2,-15,-4,-29,-11,-2,-6,1
1499879291865423,-12,11,-13,19,-8,-1,4,-3
1499879291865423,-2,-27,23,23,-11,1,2,-6
1499879291880474,10,19,17,-8,-2,-2,-1,12
1499879291880474,3,25,-35,-28,5,-3,-10,-1
1499879291881425,-8,-44,-9,34,-20,-2,0,0
1499879291881425,-5,7,20,-48,-1,-2,-9,-11
1499879291902448,7,27,-18,6,-7,-1,5,1
1499879291902448,-9,-17,-15,-40,43,-1,-7,-6
1499879291904427,17,62,0,18,-8,1,0,4
1499879291904427,-8,-54,2,24,-20,1,14,2
1499879291916466,-9,5,11,-15,13,1,-12,-11
1499879291916466,5,-28,-14,8,-32,-7,-22,-27
1499879291925440,-3,8,-13,-33,0,-4,-3,-6
1499879291925440,2,3,22,53,9,1,0,5
1499879291940462,1,36,-8,-26,15,3,17,24
1499879291940462,3,-43,17,24,-28,-5,7,-23
1499879291941429,-1,-16,-24,-11,19,0,-10,-14
1499879291941429,-1,9,16,4,-30,-5,2,3
1499879291962429,-2,0,-8,0,24,1,-7,-1
1499879291962429,1,9,6,15,-5,-3,9,1
1499879291964430,-2,-1,15,-11,-19,-1,2,8
1499879291964430,10,21,11,3,11,2,-2,-16
1499879291976498,-5,0,-14,-1,-6,-1,-10,-29
1499879291976498,-19,-48,-28,-35,5,1,-2,-4
1499879291985430,-3,3,14,-17,-19,-7,-13,-3
1499879291985430,-1,5,-18,-17,31,4,-4,10
1499879292000440,7,7,18,12,5,-5,0,-7
1499879292000440,-1,0,18,12,-16,2,-8,3
1499879292001431,7,39,-13,5,30,6,4,-7
1499879292001431,-3,-39,-13,-15,-14,-5,9,18
1499879292022475,-3,8,46,35,-51,-12,-24,-41
1499879292022475,-6,38,-17,-43,31,7,1,11
1499879292024442,9,-53,-8,-3,-14,-1,15,22
1499879292024442,7,19,4,-3,-19,-3,-3,13
1499879292036472,-8,-25,-18,-17,3,3,18,-5
1499879292036472,-2,21,11,33,2,-7,-13,4
1499879292045441,-4,10,16,3,-29,-7,-9,-22
1499879292045441,-5,3,-36,23,30,8,6,11
1499879292060442,-1,1,5,-42,-36,-4,0,19
1499879292060442,13,8,42,60,37,-1,8,4
1499879292061437,-3,13,-59,-41,-4,3,1,2
1499879292061437,-13,-11,49,15,-1,-7,-18,-24
1499879292082498,8,19,-34,-18,3,0,-16,-8
1499879292082498,-11,-59,-14,8,-22,-3,7,12
1499879292084452,-4,27,29,18,11,0,-2,-8
1499879292084452,6,14,-27,1,11,-2,2,-7
1499879292096482,5,-21,-4,-9,5,1,1,-6
1499879292096482,-8,23,3,-24,-11,-3,-4,3
1499879292105438,1,-4,13,42,-11,-3,-5,3
1499879292105438,-11,-28,-4,-38,20,6,-1,-5
1499879292120451,6,46,16,16,-11,0,18,12
1499879292120451,-6,-28,-25,-26,12,-3,-16,-17
1499879292121440,-3,-1,35,-40,8,-2,-1,6
1499879292121440,5,-2,0,14,16,3,9,-5
1499879292142440,-5,-3,0,7,-5,-2,-12,-4
1499879292142440,2,7,18,-22,-20,-1,5,-4
1499879292144450,-2,40,4,5,27,1,10,14
1499879292144450,-3,-18,-9,-12,-13,-1,-18,-33
1499879292156505,-3,-18,-15,-3,23,1,22,8
1499879292156505,-8,21,7,19,-20,-6,-33,-11
1499879292165450,0,15,21,34,-1,-1,-3,-1
1499879292165450,-3,-20,-35,-21,-39,-7,0,10
1499879292180473,0,-15,-39,-30,19,4,11,14
1499879292180473,2,10,-4,0,-2,-1,10,-18
1499879292181451,-1,9,-4,8,24,6,8,-5
1499879292181451,7,18,35,19,-4,0,6,3
1499879292202508,-5,-29,-29,-4,-17,-4,-14,-8
1499879292202508,5,-21,20,-16,-8,-2,2,27
1499879292204445,1,-14,-13,-3,-6,-4,-3,-17
1499879292204445,-3,0,-15,-10,0,-1,-2,-11
1499879292225474,0,-10,12,-6,2,1,4,17
1499879292225474,-4,-6,-1,30,5,4,7,5
1499879292226445,1,-32,-21,1,2,1,-3,-2
1499879292226445,-6,8,12,-2,-1,-3,-3,12
1499879292239458,2,8,25,-6,-16,-5,-7,-30
1499879292239458,5,38,6,41,13,2,9,6
1499879292247485,-15,-59,-11,-53,-27,-1,-17,-16
1499879292247485,7,11,17,22,17,0,4,10
1499879292262510,-4,-10,-27,-28,-5,0,1,25
1499879292262510,-6,-15,11,5,6,-4,-13,-33
1499879292264461,3,19,-22,-23,-1,-1,-3,-7
1499879292264461,5,-21,22,-18,-21,-3,1,4
1499879292285468,-4,-27,3,20,17,0,-6,-26
1499879292285468,-3,5,3,5,-8,-4,26,20
1499879292286449,5,15,7,3,11,1,-12,4
1499879292286449,0,-5,-13,10,-8,0,-5,4
1499879292299489,-7,23,5,31,-3,0,4,-4
1499879292299489,-3,-8,-12,-15,-2,-1,1,31
1499879292307478,6,3,11,-16,-8,1,17,0
1499879292307478,-3,2,-11,-3,-6,-2,-7,-5
1499879292322521,-1,-2,-4,0,1,-2,-3,10
1499879292322521,7,3,-1,23,-9,2,0,-19
1499879292324449,-9,-20,-19,-55,-27,-5,12,20
1499879292324449,-3,7,-3,12,31,0,-1,2
1499879292345473,7,8,-14,4,21,4,-4,11
1499879292345473,-1,-9,22,3,15,-3,-11,-12
1499879292346451,4,-6,-45,33,-7,-4,-4,-9
1499879292346451,-12,-2,20,20,1,-2,-7,-9
1499879292359524,0,32,-6,-40,-2,-1,-3,2
1499879292359524,8,0,5,10,-4,5,7,20
1499879292366530,-1,-24,29,27,-6,-2,6,-7
1499879292366530,-6,-13,-31,-38,11,-2,-2,-19
1499879292382467,-8,-16,18,17,-7,-2,-4,12
1499879292382467,8,40,-18,-46,-28,-3,-16,-22
1499879292384455,-8,-62,4,46,-3,-2,3,-11
1499879292384455,2,15,-9,-21,5,-3,-19,-16
1499879292405466,-2,5,9,-1,4,-1,-7,13
1499879292405466,6,17,-11,-5,-18,3,10,-5
1499879292406457,-3,-16,5,0,38,0,-5,15
1499879292406457,3,-2,-8,17,-10,-5,1,-7
1499879292419498,-6,16,11,-1,-14,2,12,12
1499879292419498,-4,-11,-12,0,-11,-1,9,12
1499879292426495,6,41,43,-3,8,2,11,19
1499879292426495,-7,-20,-47,-15,-24,1,-4,-17
1499879292442522,9,9,15,69,29,-1,-7,-20
1499879292442522,2,-18,-13,-60,-24,-5,-3,0
1499879292444483,-5,3,0,-22,26,6,2,-2
1499879292444483,3,29,48,3,8,-4,-2,-1
1499879292465476,0,-19,-27,-10,-8,0,-2,-2
1499879292465476,-3,-4,-19,15,3,-2,-10,-12
1499879292466468,-3,-20,1,7,-9,1,0,-4
1499879292466468,1,16,16,5,-6,-1,3,16
1499879292479501,0,12,-8,-5,5,0,5,16
1499879292479501,-9,-49,1,27,-10,-1,15,-1
1499879292486489,-6,10,-3,-56,-20,-2,-24,-5
1499879292486489,4,9,-5,12,23,7,5,-3
1499879292502500,1,-29,8,-37,-28,-8,-4,-3
1499879292502500,-2,16,-4,-5,13,-3,-8,-28
1499879292504470,1,11,-10,17,-14,-5,7,7
1499879292504470,-2,1,15,25,1,4,11,13
1499879292525484,-2,-1,1,0,-2,0,-3,-1
1499879292525484,-9,-1,-8,-2,21,3,5,13
1499879292526470,-2,-23,-1,29,7,-2,4,2
1499879292526470,-16,0,-6,-7,-14,1,-14,-19
1499879292539508,8,26,19,22,-4,-1,3,3
1499879292539508,-9,-27,-41,-2,-24,-5,1,4
1499879292546530,0,14,2,-30,12,1,-18,-13
1499879292546530,7,-2,-1,4,-14,-2,5,16
1499879292562504,-2,7,6,-31,14,0,0,-20
1499879292562504,3,39,31,20,-10,0,-15,-3
1499879292564465,3,4,-22,12,16,3,10,18
1499879292564465,5,-16,-7,-13,-2,-1,8,9
1499879292585476,-2,2,-1,-1,-8,-3,-16,-11
1499879292585476,-6,3,-17,6,-7,-2,3,0
1499879292586482,3,1,-12,6,-4,-3,8,6
1499879292586482,-3,13,26,-20,7,-2,-18,-10
1499879292598526,-1,-11,3,18,-8,-2,0,-6
1499879292598526,7,25,-9,-38,19,0,15,12
1499879292607499,-12,-17,-22,15,-18,-7,-28,3
1499879292607499,-4,-2,6,-7,0,-2,-2,-24
1499879292622535,9,-2,3,4,-11,-2,-5,-5
1499879292622535,6,-6,1,5,26,4,-2,2
1499879292624487,6,22,13,18,-9,-3,-1,-11
1499879292624487,-5,-18,-18,0,-2,-1,6,16
1499879292644501,-4,-21,7,3,-12,-9,4,-9
1499879292644501,1,0,5,-11,6,2,-10,-17
1499879292646468,-2,-8,12,14,5,3,-11,-24
1499879292646468,2,-5,-8,-12,-5,-4,0,9
1499879292659519,5,-1,-4,40,11,2,12,23
1499879292659519,-19,-40,7,-39,-7,-7,-2,7
1499879292666537,0,30,-3,-21,-35,-5,-15,-31
1499879292666537,-4,-15,-22,27,21,4,1,-16
1499879292682543,-9,-2,6,7,-3,0,-3,-11
1499879292682543,13,7,5,1,-7,-3,10,20
1499879292684507,-6,2,3,25,-8,-5,-11,-7
1499879292684507,4,-24,4,-25,3,1,8,10
1499879292704535,-6,6,-19,-19,-11,-3,-5,0
1499879292704535,-3,-28,-11,13,18,2,-2,-2
1499879292706472,-2,11,30,15,-7,2,16,14
1499879292706472,2,21,-29,-21,8,-1,-5,-10
1499879292718544,-2,-21,-7,-13,8,-1,6,12
1499879292718544,3,14,4,12,6,-4,-12,2
1499879292727492,-3,-3,3,-2,-10,-2,9,8
1499879292727492,-8,-10,-26,-9,-9,0,9,-8
1499879292742480,-3,6,4,-44,-32,1,-21,-20
1499879292742480,0,25,1,45,54,1,-6,-8
1499879292744485,2,-51,10,-27,16,0,0,9
1499879292744485,-7,-19,-6,16,-15,-4,2,14
1499879292765487,-4,-2,-20,-26,-2,0,7,8
1499879292765487,1,28,12,24,-14,1,2,11
1499879292766478,13,-8,20,26,-6,0,3,-5
1499879292766478,-4,0,9,-21,9,-1,-9,13
1499879292778543,-9,-10,-18,21,10,-2,-1,2
1499879292778543,0,10,-23,-17,-4,-3,0,-1
1499879292795491,7,61,14,20,-6,1,16,12
1499879292795491,-8,-38,11,-36,-19,-4,-11,-7
1499879292802510,9,-10,-4,-13,30,5,-1,14
1499879292802510,-8,-8,8,-13,-20,-2,-3,-14
1499879292804479,1,4,-27,-5,13,2,-3,0
1499879292804479,5,21,-17,12,-13,-3,-4,-8
1499879292825497,-1,-3,15,4,3,3,10,11
1499879292825497,3,-13,16,-4,-34,-2,1,-5
1499879292826482,-5,1,14,-15,23,-5,-2,-6
1499879292826482,1,6,-7,14,-1,0,6,-2
1499879292838524,6,6,8,13,25,0,-12,-6
1499879292838524,2,-23,-9,-9,-13,-3,-5,-7
1499879292847492,-9,-5,12,3,-11,-4,-5,-7
1499879292847492,6,33,-1,-18,1,1,2,7
1499879292862546,4,14,5,23,-7,1,6,-7
1499879292862546,-9,-12,4,0,12,2,-15,-13
1499879292864481,6,-12,-23,-29,-5,0,-3,4
1499879292864481,-7,-5,14,29,2,-2,-4,19
1499879292885481,1,4,22,-4,7,-1,5,-9
1499879292885481,-4,0,3,-13,-3,-2,-16,-20
1499879292886495,-2,-14,-32,-13,-13,-3,0,2
1499879292886495,2,7,4,5,4,0,0,-4
1499879292898527,2,-2,-15,22,6,0,-1,7
1499879292898527,-7,-6,-22,-32,6,-1,8,23
1499879292907526,0,13,4,9,-14,0,-1,-14
1499879292907526,1,-7,9,1,0,-3,2,5
1499879292922553,2,9,-4,-14,-2,2,2,3
1499879292922553,-11,-29,8,7,1,0,3,-8
1499879292924514,-1,9,-17,19,-3,0,1,3
1499879292924514,5,-8,18,-2,-1,-1,0,10
1499879292944525,-5,-9,-6,-12,-17,-7,-21,-22
1499879292944525,5,-4,-26,-17,-8,-1,3,13
1499879292946496,-2,-1,15,4,17,0,-1,5
1499879292946496,7,-7,2,26,2,-2,4,-4
1499879292958554,-2,-6,0,-24,-19,-2,13,2
1499879292958554,-1,16,-11,-1,5,-2,-4,5
1499879292967519,-5,-24,11,-7,-8,-3,0,-11
1499879292967519,4,-2,-8,0,4,-2,3,4
1499879292982555,-13,6,-4,19,38,2,3,0
1499879292982555,5,-34,32,1,-22,-5,-5,-21
1499879292984488,1,10,-38,-2,2,0,8,9
1499879292984488,-6,29,-4,6,-15,0,-17,-14
1499879293005501,6,-1,21,-1,-3,1,-3,-17
1499879293005501,-1,-16,-40,-9,19,-1,-3,-7
1499879293006500,-1,4,-3,-10,11,-6,-5,10
1499879293006500,5,1,19,18,-22,-8,-16,-13
1499879293018558,0,39,-1,-22,1,-2,-4,-1
1499879293018558,-6,4,-2,30,19,6,6,11
1499879293027528,1,-17,8,-22,-9,0,-1,-13
1499879293027528,-1,-4,-17,4,5,1,7,-2
1499879293042565,-1,7,-1,4,-14,-5,6,20
1499879293042565,8,27,16,-1,-10,-5,-7,-7
1499879293044502,0,-40,-3,-27,5,2,-2,-4
1499879293044502,3,19,3,8,-1,2,-2,-13
1499879293065496,-10,-43,-16,30,1,-2,-6,-15
1499879293065496,4,27,8,-34,-8,1,8,14
1499879293066492,-8,5,-19,14,-2,-3,-5,0
1499879293066492,1,3,-14,-34,-12,-1,8,17
1499879293078567,-1,-12,7,15,3,-3,-5,-26
1499879293078567,-8,-3,-17,19,2,-1,13,13
1499879293087502,-2,11,8,-12,-6,0,-10,-15
1499879293087502,1,10,0,1,13,0,1,6
1499879293102543,-5,-19,-18,-22,-11,-2,0,-2
1499879293102543,1,-14,21,34,-2,-2,2,6
1499879293104497,1,12,-17,-28,-5,1,-6,-7
1499879293104497,3,1,-5,-39,22,2,-2,-11
1499879293125512,-9,-12,27,22,19,-2,-1,6
1499879293125512,6,23,20,4,-2,-2,-2,-5
1499879293126496,8,-15,0,16,-22,-1,6,16
1499879293126496,-3,-5,-10,-2,-2,0,-6,-3
1499879293147505,10,17,3,-10,9,3,11,12
1499879293147505,-11,-24,0,-6,-7,-2,-13,4
1499879293149514,-10,5,5,15,20,1,0,-4
1499879293149514,-1,14,5,-7,-23,0,14,0
1499879293162538,-2,10,-6,-5,13,-3,-26,-7
1499879293162538,3,3,-12,-9,-16,-3,2,-12
1499879293164502,2,15,14,2,1,-5,-1,-8
1499879293164502,-1,-16,7,22,1,2,4,17
1499879293185510,-3,4,2,8,-8,-3,2,11
1499879293185510,7,18,-10,-12,-3,1,1,-3
1499879293186500,-5,18,7,-45,-4,-4,0,6
1499879293186500,1,4,4,22,16,4,4,10
1499879293207544,1,-24,-1,-12,-18,-3,8,-18
1499879293207544,-6,-14,-70,-14,3,0,-14,-19
1499879293209512,-7,-8,31,35,-3,-4,-5,1
1499879293209512,-3,15,-2,-34,-21,-2,-2,7
1499879293222579,1,11,33,-5,8,2,0,1
1499879293222579,1,-2,-9,5,-1,-2,1,0
1499879293224503,9,20,-10,8,6,1,6,1
1499879293224503,-19,-10,-1,2,-4,-2,-4,-1
1499879293245521,0,16,-20,-7,1,-2,-4,-2
1499879293245521,-7,-32,23,8,-2,2,1,-14
1499879293246514,2,-9,-5,3,-6,3,-4,1
1499879293246514,8,-7,14,1,17,-4,3,0
1499879293267538,10,7,-4,8,-2,2,8,13
1499879293267538,-13,-15,-6,-24,-19,-8,3,12
1499879293269504,2,-5,-20,-12,6,1,-4,-16
1499879293269504,7,7,20,26,9,5,0,-9
1499879293282573,-17,-23,-2,-22,-16,-2,2,5
1499879293282573,4,11,-11,11,9,-4,0,7
1499879293284527,-4,-35,-2,20,8,2,6,5
1499879293284527,-1,-19,-17,-29,-11,-2,-1,-1
1499879293304568,-2,22,-7,6,-26,-1,-4,0
1499879293304568,5,-4,8,14,46,9,7,5
1499879293306506,2,18,4,-32,-14,-1,-2,-1
1499879293306506,-3,-17,0,14,-4,-2,-1,3
1499879293327551,-7,-19,-53,2,-8,-4,-10,-26
1499879293327551,2,14,33,-18,-17,-1,3,14
1499879293329510,1,16,18,8,-2,-4,-6,-31
1499879293329510,-3,-12,-12,14,21,-1,15,-1
1499879293341553,-1,-32,-2,11,-3,-1,-20,0
1499879293341553,-6,2,-16,-5,-17,-4,-5,37
1499879293348574,-6,12,23,4,31,2,-6,-21
1499879293348574,10,11,13,6,-45,-4,1,8
1499879293365509,-6,4,-10,-31,17,3,3,-12
1499879293365509,-5,-18,-12,30,41,0,-3,-8
1499879293366512,12,-8,-7,-16,-13,3,18,41
1499879293366512,-11,9,-19,-33,-16,-7,-22,-45
1499879293395531,-2,6,7,29,11,-2,1,12
1499879293395531,3,7,12,-38,-15,4,-2,-12
1499879293396514,1,9,6,10,-12,-5,0,-4
1499879293396514,-1,8,-18,1,19,-2,-1,9
1499879293401554,3,-21,-6,-26,-43,-2,17,15
1499879293401554,-10,0,4,18,12,-4,-29,-32
1499879293408557,1,9,5,19,-2,-2,-3,8
1499879293408557,-4,-20,9,-5,5,-4,-5,-20
1499879293425534,-6,-24,-6,-3,-8,-5,2,90
1499879293425534,1,1,-7,-3,-19,2,9,-21
1499879293426515,-4,7,8,6,48,4,-4,-9
1499879293426515,0,22,7,41,-3,-3,-17,-40
1499879293447579,2,-12,1,-40,-3,-1,3,-13
1499879293447579,3,7,18,-8,-1,0,9,20
1499879293449534,-12,-11,-21,-6,-23,-6,-14,-31
1499879293449534,0,-1,2,3,13,4,10,32
1499879293461521,3,1,7,22,24,-1,-6,-23
1499879293461521,6,2,-2,0,-28,-2,-1,-5
1499879293468557,8,3,-10,-36,8,3,1,10
1499879293468557,-9,-14,-11,2,-3,0,4,12
1499879293485528,-1,1,5,3,-16,-1,6,-7
1499879293485528,-2,9,5,13,7,1,-16,-1
1499879293486528,0,-8,1,-14,-18,-4,4,-11
1499879293486528,-2,-2,-16,-5,19,2,-8,-10
1499879293507581,-2,28,-2,-25,-9,-1,-5,-12
1499879293507581,-1,-14,15,-9,-11,-8,5,-2
1499879293509528,2,-6,-3,19,2,-3,6,23
1499879293509528,3,15,-7,-31,-22,-2,-6,6
1499879293521563,0,-3,18,17,6,-1,-2,-14
1499879293521563,-3,4,6,5,8,-4,2,-12
1499879293528587,-8,-6,10,9,-21,2,2,2
1499879293528587,2,-15,-6,20,-1,-5,-1,-3
1499879293544586,0,-1,-8,-15,66,7,2,7
1499879293544586,7,7,5,-18,-25,-2,8,13
1499879293546520,-8,-7,-10,29,25,-5,-5,-3
1499879293546520,-3,-18,-12,-36,-9,2,-1,-4
1499879293567563,0,16,1,24,-10,0,0,-9
1499879293567563,16,13,17,16,3,2,18,17
1499879293569522,-8,-21,-13,-17,-5,-3,-20,-9
1499879293569522,-5,-10,17,26,0,-6,-1,6
1499879293581561,-5,-2,-20,-28,-11,3,-4,-11
1499879293581561,-2,3,-14,7,4,4,10,8
1499879293590528,6,-6,-2,1,-15,-4,-6,0
1499879293590528,-4,-6,8,6,4,1,0,-19
1499879293604602,1,-12,-5,-20,-10,-5,-1,14
1499879293604602,-2,5,0,-1,-23,-3,-4,-8
1499879293606524,2,12,-5,-3,12,1,-4,6
1499879293606524,-2,-18,-9,2,-5,0,3,11
1499879293627572,-2,-7,2,39,35,-6,-4,-18
1499879293627572,-9,-2,-19,-4,-20,3,-3,-7
1499879293629526,2,1,-2,6,6,-2,9,3
1499879293629526,-2,-21,-8,-14,-4,0,10,15
1499879293641569,2,6,20,27,-18,-1,-10,-8
1499879293641569,-2,-5,-4,7,22,-2,-5,-2
1499879293650528,2,37,27,17,-29,1,11,-1
1499879293650528,-4,2,-15,-53,4,-5,-21,-24
1499879293665545,-1,-10,-6,-5,3,6,4,16
1499879293665545,-5,-9,-1,4,-2,1,-4,-9
1499879293666538,12,24,4,13,-4,2,7,16
1499879293666538,-8,25,17,36,12,6,9,4
1499879293687571,-2,0,-7,2,-11,-4,1,-2
1499879293687571,-4,-7,0,-23,-24,-4,-11,-12
1499879293688529,-1,4,-8,3,27,0,2,5
1499879293688529,-1,-12,-4,1,-7,-2,4,6
1499879293701574,1,2,-6,5,-13,-3,-2,12
1499879293701574,5,17,5,-7,10,3,7,-7
1499879293710530,-1,-35,3,-14,0,-2,-3,4
1499879293710530,1,-1,-5,-1,7,2,7,5
1499879293725549,0,9,2,27,-1,3,-7,-19
1499879293725549,11,33,0,-21,-1,-5,2,19
1499879293726532,-7,-14,-15,-2,-1,-1,-3,-6
1499879293726532,4,-7,-5,-2,6,2,-3,-5
1499879293747595,-7,-2,32,21,-14,-1,9,11
1499879293747595,-2,5,2,8,2,-1,0,14
1499879293749533,-3,-18,-5,-24,-9,-4,-8,-27
1499879293749533,-4,10,-11,20,12,4,-5,-1
1499879293761568,1,7,-12,-43,-26,-6,-4,-8
1499879293761568,1,-7,27,22,40,0,1,1
1499879293770534,-2,-16,-17,-9,-18,1,-2,12
1499879293770534,4,9,-2,10,10,-5,-10,5
1499879293785546,-2,18,-17,-33,-11,-1,3,-4
1499879293785546,-16,-68,-13,8,0,-6,-26,-43
1499879293786545,2,12,-4,3,-5,-2,10,18
1499879293786545,4,7,27,-17,-12,-1,-9,-5
1499879293807610,6,2,-13,13,28,4,2,1
1499879293807610,6,25,-5,32,4,-1,1,-1
1499879293809569,-9,-18,-16,-39,-6,2,-2,0
1499879293809569,2,0,18,-7,-11,-3,6,8
1499879293821568,-5,-9,11,4,-9,-3,-9,-7
1499879293821568,2,10,-6,-8,-4,2,2,1
1499879293830539,2,-10,-45,18,13,1,8,2
1499879293830539,-2,24,18,-21,6,-2,1,14
1499879293844581,4,-25,-14,-7,-16,-4,-11,-46
1499879293844581,-5,-12,5,-12,-6,-5,1,3
1499879293846548,2,-5,3,29,-4,-1,-4,-5
1499879293846548,-6,-3,-2,7,32,7,10,-10
