timestamp,emg1,emg2,emg3,emg4,emg5,emg6,emg7,emg8
1499893691094997,5,1,-5,17,0,1,9,0
1499893691094997,7,-4,-11,-38,-3,-3,0,5
1499893691099024,-18,0,7,31,-3,-5,-3,-9
1499893691099024,0,-2,2,4,2,2,-1,3
1499893691099981,-2,-1,0,-7,3,1,-3,7
1499893691099981,-3,-2,-8,3,-1,2,1,-4
1499893691100981,6,0,3,15,2,-4,-1,5
1499893691100981,1,1,6,-12,0,1,5,-5
1499893691114987,-5,-2,4,16,-3,-4,-11,-3
1499893691114987,1,-1,-14,-8,-1,-1,-1,1
1499893691122021,1,-2,-3,5,-6,-3,-1,0
1499893691122021,-5,-2,5,26,2,-5,-3,0
1499893691128029,4,0,-1,-25,-2,3,1,0
1499893691128029,0,3,7,4,0,-2,-1,2
1499893691143044,5,-3,-18,-24,6,3,-1,-5
1499893691143044,0,-5,8,65,-5,-3,-1,2
1499893691153000,-2,1,8,5,-2,-7,-1,-7
1499893691153000,-4,-2,-6,-62,-2,3,-1,-8
1499893691167024,2,3,-1,-17,3,2,0,-5
1499893691167024,6,1,-16,-11,1,2,6,26
1499893691173986,1,-6,5,5,-5,-4,1,-4
1499893691173986,1,2,15,43,-5,-5,-3,-1
1499893691188027,-2,-2,-7,-14,3,1,4,-3
1499893691188027,-6,-3,-5,34,3,0,-4,-9
1499893691228996,2,-1,-11,11,0,2,1,3
1499893691228996,-3,-3,-1,0,-2,-4,-1,-6
1499893691230028,3,2,-4,-4,-1,2,-2,3
1499893691230028,-5,-5,2,14,1,-3,-5,-1
1499893691230028,-3,-2,9,14,2,2,4,0
1499893691230028,8,6,-4,-30,-4,-2,-1,-3
1499893691234004,6,0,-22,-21,-3,0,-1,8
1499893691234004,-13,4,26,10,-5,-10,-3,-9
1499893691240036,-8,-13,1,31,6,7,-4,-8
1499893691240036,0,-5,-1,-32,-4,0,4,12
1499893691257049,-2,8,-19,-3,-7,-1,-1,0
1499893691257049,-6,-1,-28,-27,12,-2,-3,-12
1499893691258014,0,-9,47,83,-7,-4,-9,4
1499893691258014,4,-18,-25,-66,-2,-6,8,-6
1499893691271061,-31,-15,14,21,-9,-1,-2,7
1499893691271061,20,27,-34,-2,2,4,-6,21
1499893691278039,33,23,-1,-3,5,8,-2,81
1499893691278039,-27,-13,17,94,4,-1,30,-95
1499893691302038,24,18,12,20,2,-1,-5,17
1499893691302038,-8,41,40,-19,-6,-10,-33,-60
1499893691303002,-25,24,-46,-84,-1,-5,-4,2
1499893691303002,36,-74,-6,47,-9,-1,18,107
1499893691324039,-51,-8,-10,-5,12,-9,-16,-115
1499893691324039,-2,-25,-17,-11,-15,7,10,48
1499893691325997,44,121,-11,-33,-6,-9,-16,6
1499893691325997,-78,-80,-83,-30,-4,-7,-30,-96
1499893691339009,-11,40,89,62,4,-1,12,-24
1499893691339009,-9,-40,-66,-37,-4,-4,-5,13
1499893691340999,-11,60,34,20,-9,-2,3,-34
1499893691340999,50,43,31,52,12,14,13,36
1499893691362041,14,35,-36,-52,-35,-9,-4,34
1499893691362041,-23,5,35,-10,51,7,-8,-81
1499893691363001,-7,-31,5,65,7,8,13,14
1499893691363001,14,113,35,-41,-1,0,-16,-13
1499893691375068,-18,-121,0,86,-9,-1,-5,23
1499893691375068,43,105,21,35,-4,9,39,65
1499893691384003,10,5,12,19,-1,-7,0,-61
1499893691384003,-51,10,-12,21,4,-2,-10,50
1499893691399029,-27,-75,4,-20,5,-5,-32,-7
1499893691399029,13,41,18,-16,-1,5,26,63
1499893691401012,-6,-105,-44,103,0,-2,9,-4
1499893691401012,60,88,25,-112,-21,-1,5,2
1499893691422048,23,82,-10,-30,12,7,10,21
1499893691422048,-85,-73,-3,-36,8,-7,-73,-108
1499893691423003,26,-84,-1,45,3,5,79,35
1499893691423003,-1,3,-5,-81,-5,0,-23,37
1499893691435044,71,34,-39,76,-6,-6,10,67
1499893691435044,-39,65,53,-65,-21,-13,-6,-6
1499893691444055,66,95,35,-44,7,11,-2,71
1499893691444055,-62,-75,47,65,19,1,-12,-89
1499893691459006,-2,34,-25,63,26,17,31,0
1499893691459006,32,-88,-41,-51,-28,-2,0,117
1499893691461006,-29,62,7,68,-12,-15,-25,-113
1499893691461006,72,-11,-17,-92,-15,-1,19,53
1499893691482013,-48,-25,5,-27,16,1,-26,-35
1499893691482013,68,83,35,78,-5,1,20,25
1499893691483008,-54,-75,-28,-64,4,0,-13,-24
1499893691483008,1,44,12,102,9,9,-1,-66
1499893691495035,-9,-36,-18,-128,-26,-13,26,-7
1499893691495035,28,-16,39,100,10,11,13,95
1499893691504042,83,-28,-73,-127,-41,-22,-17,41
1499893691504042,-105,-58,-52,102,22,-8,-27,-100
1499893691519042,20,65,21,-16,-20,-2,-35,61
1499893691519042,-11,-82,-55,5,2,-15,6,-44
1499893691521009,-3,21,1,-32,1,15,63,89
1499893691521009,-52,6,-6,-46,-27,-22,-63,-56
1499893691542017,29,10,35,45,-3,-23,-59,26
1499893691542017,33,54,-4,32,14,-15,17,-2
1499893691543012,-54,-51,15,37,62,37,-52,-62
1499893691543012,40,-87,-55,-102,-70,-16,93,127
1499893691555051,17,99,1,40,14,6,9,35
1499893691555051,-5,72,37,-8,1,16,-25,-20
1499893691564023,-116,-85,-70,-128,-55,-34,-21,-64
1499893691564023,22,62,25,30,45,11,20,109
1499893691579057,2,91,53,-2,-3,17,-46,-51
1499893691579057,-22,-128,-32,70,22,-2,58,-13
1499893691581026,6,107,20,15,-27,6,-1,-77
1499893691581026,-2,-36,15,127,26,-10,-17,12
1499893691603015,29,50,-10,-42,32,16,46,22
1499893691603015,-42,-62,-24,-27,-27,-4,4,-4
1499893691605014,33,90,59,83,22,-10,-67,-75
1499893691605014,1,2,10,98,-27,-4,6,12
1499893691616083,-16,10,17,-33,72,14,63,66
1499893691616083,-15,-24,-24,-3,-65,-12,-65,-55
1499893691624049,72,52,44,-42,19,4,48,85
1499893691624049,6,-72,-49,-49,5,4,-15,-70
1499893691639049,-49,-72,-23,-9,2,-14,-9,28
1499893691639049,46,71,-5,-24,-37,1,9,63
1499893691641017,-31,-82,-17,6,5,-5,11,87
1499893691641017,0,127,77,31,31,11,-15,10
1499893691662017,16,-66,-30,56,7,1,-12,-116
1499893691662017,-26,-66,-2,-20,-18,1,9,56
1499893691663017,5,80,1,39,-1,-11,1,-71
1499893691663017,31,14,-1,9,38,6,41,127
1499893691675017,17,-11,-20,-76,-4,4,-19,-38
1499893691675017,-54,-26,-35,38,-5,-7,-19,-57
1499893691684031,-18,-8,51,66,7,5,-6,47
1499893691684031,21,67,25,40,-15,10,37,11
1499893691699020,-17,-49,-68,-71,-54,-31,-32,-14
1499893691699020,15,119,42,-5,61,11,7,0
1499893691705053,-19,6,-46,-8,27,-8,-17,67
1499893691705053,-42,72,-17,-33,-29,-4,-30,-54
1499893691722063,40,60,6,-10,-42,-8,3,-56
1499893691722063,-21,-31,11,14,50,6,4,-14
1499893691723022,18,12,24,7,-32,0,2,-8
1499893691723022,9,-5,4,-17,6,2,24,98
1499893691735094,-35,-92,-47,22,-24,-17,-39,-29
1499893691735094,68,123,36,-26,57,16,8,4
1499893691744031,-44,40,-2,32,5,-20,-19,-69
1499893691744031,22,28,-14,-56,-9,-1,-36,38
1499893691759068,15,80,109,-15,-51,4,45,90
1499893691759068,19,4,-47,-7,-40,-10,27,76
1499893691761023,-11,-4,-13,-96,46,14,11,43
1499893691761023,-32,-108,-53,4,2,-17,-47,-30
1499893691782063,16,48,5,51,1,-5,-3,2
1499893691782063,21,38,-5,12,-51,-9,18,1
1499893691783026,15,-28,25,-31,-13,8,-2,-22
1499893691783026,-8,50,79,12,23,-4,-11,37
1499893691795063,5,-37,-61,-11,10,18,26,-77
1499893691795063,-44,-38,-21,-47,-7,-11,-2,64
1499893691804046,-20,80,21,69,-13,-1,-30,-47
1499893691804046,20,6,-26,-90,-15,2,-4,2
1499893691819044,-25,34,22,57,25,0,-1,55
1499893691819044,10,21,-2,30,2,4,11,63
1499893691821037,6,-7,-22,-60,1,9,36,-12
1499893691821037,34,21,3,41,-13,-6,-13,28
1499893691842047,-35,8,7,-16,-10,16,32,-85
1499893691842047,53,85,15,22,-33,-13,-31,-23
1499893691843046,-19,-128,-43,-22,49,10,-8,114
1499893691843046,3,23,-2,46,23,8,9,-65
1499893691855065,18,4,2,4,-51,-4,39,91
1499893691855065,-13,69,4,-14,21,-6,-30,-52
1499893691864041,15,-5,28,-9,9,6,-1,19
1499893691864041,-7,54,-6,-5,-15,-2,12,12
1499893691879070,-9,-42,9,41,3,-8,-20,-6
1499893691879070,-22,-20,37,13,7,5,10,-103
1499893691881030,10,53,15,16,-18,-7,-2,21
1499893691881030,1,-94,-16,-15,1,6,21,64
1499893691902047,13,80,10,-39,5,5,6,51
1499893691902047,-9,-88,-37,-28,-12,-6,-8,40
1499893691903031,-10,-3,-33,-26,-60,-4,1,-22
1499893691903031,-2,43,15,24,6,4,5,97
1499893691924065,-11,-107,-14,40,20,-1,-2,-33
1499893691924065,33,-18,6,18,38,12,22,70
1499893691926034,-34,-65,-23,-9,-49,-25,-28,-13
1499893691926034,1,102,-33,-28,-10,-5,-30,-102
1499893691939040,-6,21,1,5,11,-6,-20,13
1499893691939040,-5,12,-28,-28,28,6,12,-45
1499893691941041,-1,-54,27,-1,-5,3,19,54
1499893691941041,-2,-64,-22,-44,17,5,0,-53
1499893691962048,-1,37,29,35,-30,-3,16,43
1499893691962048,-24,-115,-100,-18,-23,-10,-69,-113
1499893691964037,-3,27,22,42,-14,-11,-23,-58
1499893691964037,-7,26,43,-21,21,0,4,29
1499893691984075,25,-9,-1,-9,-4,3,12,89
1499893691984075,-8,-64,31,-1,-5,1,25,-31
1499893691986036,-15,45,10,58,32,6,10,23
1499893691986036,3,-25,-31,-69,-9,-4,-14,-31
1499893691999080,-4,42,45,76,0,-14,8,-5
1499893691999080,-21,1,-26,-9,4,-2,-23,-53
1499893692001036,2,24,-15,-40,7,2,2,17
1499893692001036,1,35,15,50,-45,-2,18,-22
1499893692021077,-11,-54,-16,0,72,7,-3,-2
1499893692021077,26,98,49,13,6,11,16,84
1499893692029048,0,14,-5,-27,-42,-11,-5,-26
1499893692029048,5,-54,-89,0,16,7,17,51
1499893692044086,1,-49,-4,-46,19,5,-18,-17
1499893692044086,-22,57,8,4,-31,-4,7,46
1499893692046039,38,61,14,37,-8,1,15,121
1499893692046039,-27,-56,26,-22,43,-6,-3,19
1499893692059085,15,4,-23,-40,1,5,-2,51
1499893692059085,9,71,31,10,1,5,27,58
1499893692061040,-7,10,5,-8,-13,-5,-10,-28
1499893692061040,-27,73,6,44,-10,-4,10,-55
1499893692082052,4,2,-51,-5,45,-8,-37,-56
1499893692082052,-3,16,27,65,-6,7,7,-24
1499893692083042,-18,-36,-37,-125,10,-3,-7,-44
1499893692083042,4,-44,25,39,-31,-3,-3,19
1499893692104082,1,59,24,12,-25,-5,4,34
1499893692104082,13,-9,-38,-8,-16,-10,-7,34
1499893692106042,-5,54,25,40,40,6,-7,-62
1499893692106042,-5,-53,-13,-33,-24,2,0,-15
1499893692119056,5,-8,24,3,25,10,-1,45
1499893692119056,-12,-9,27,25,-27,-18,-13,-19
1499893692125116,0,-24,-24,-19,28,6,8,-19
1499893692125116,6,57,25,-4,-32,-2,-5,27
1499893692142112,5,41,16,46,-19,0,22,1
1499893692142112,4,25,15,-67,-7,-7,-20,4
1499893692143047,11,-36,-7,51,-13,0,1,60
1499893692143047,0,-1,8,21,80,4,-12,-27
1499893692164086,-23,27,-24,-95,-29,-7,-3,-74
1499893692164086,0,-20,31,53,-6,0,21,50
1499893692166058,7,24,-24,-24,-16,-7,-11,-12
1499893692166058,22,-7,34,-23,-5,0,-2,8
1499893692179057,-8,-58,-46,-5,-15,0,18,38
1499893692179057,-9,1,18,17,12,6,-4,-33
1499893692185115,5,-13,-4,6,-20,-5,10,-1
1499893692185115,14,14,11,17,34,6,7,-8
1499893692200110,-38,-23,-11,3,45,-7,9,-2
1499893692200110,24,48,-20,-26,-10,4,-22,3
1499893692209051,-16,-57,32,39,15,1,-2,-16
1499893692209051,16,10,-15,18,-39,-13,-12,-24
1499893692224089,-17,65,-3,-21,-35,1,-6,-33
1499893692224089,16,-6,35,8,55,5,0,20
1499893692226049,-13,-60,-31,23,-23,-6,-4,-49
1499893692226049,9,-8,36,-31,-33,2,12,63
1499893692247085,8,9,7,20,24,3,-31,-35
1499893692247085,-7,-15,-23,19,-5,1,-5,33
1499893692248051,-26,-53,-18,-14,11,9,13,34
1499893692248051,9,56,9,40,12,-4,3,43
1499893692260095,-18,-66,-8,13,-63,-14,-16,-55
1499893692260095,2,-20,-6,-61,45,10,-7,-35
1499893692270055,1,-7,-19,23,-16,-3,17,23
1499893692270055,2,38,-30,-15,0,2,1,25
1499893692284092,30,20,17,-4,-5,-1,8,72
1499893692284092,-19,28,-12,39,-4,2,7,-39
1499893692286058,-1,22,-37,-4,41,13,6,11
1499893692286058,14,42,23,34,-2,4,4,-25
1499893692307064,-26,-43,16,15,-18,-3,-11,-13
1499893692307064,-3,-81,1,-36,-46,-6,18,-2
1499893692308059,8,14,-22,-5,-7,-9,-13,45
1499893692308059,-22,5,-5,-10,43,3,3,-34
1499893692320098,9,-43,-1,9,-40,-10,9,40
1499893692320098,-20,-12,-37,4,55,6,-25,-40
1499893692329081,26,81,69,21,12,1,12,92
1499893692329081,-22,-48,5,-45,-31,-4,-15,-36
1499893692344126,13,11,-21,-16,1,-2,2,19
1499893692344126,-3,-3,-14,-5,-3,-11,-2,-32
1499893692346057,23,16,1,-16,-60,-5,11,19
1499893692346057,-8,-33,24,25,56,7,20,61
1499893692367070,-10,-25,-30,1,12,-15,-37,4
1499893692367070,-1,-41,-24,20,-35,10,15,37
1499893692368075,22,81,24,34,8,-4,-21,-76
1499893692368075,-31,-84,-49,-38,-61,-17,4,22
1499893692380098,25,-2,-10,-33,14,16,17,-29
1499893692380098,-20,-6,10,12,18,-10,11,26
1499893692389079,20,-14,-13,-63,-8,2,1,87
1499893692389079,-6,-15,8,7,36,4,-15,-25
1499893692404102,9,29,7,20,0,4,5,44
1499893692404102,4,26,-1,-18,-59,-15,-16,-31
1499893692406072,9,81,7,-10,41,4,49,107
1499893692406072,-20,84,-19,9,9,-16,-77,-100
1499893692427101,-23,-77,-21,4,-7,5,8,35
1499893692427101,42,40,18,-7,21,13,27,78
1499893692428061,-31,45,6,-49,-22,-8,5,-33
1499893692428061,-1,-48,-25,17,-18,-8,-26,-72
1499893692449118,-10,44,13,35,9,-2,-4,-46
1499893692449118,14,26,1,-14,20,3,-3,-19
1499893692451063,-44,-36,3,1,8,-7,-18,-81
1499893692451063,26,-8,11,29,-27,-5,14,64
1499893692464081,-6,44,9,-50,20,1,17,54
1499893692464081,-1,-7,-19,-30,1,15,13,24
1499893692470131,-7,-97,0,20,-9,-3,-30,-48
1499893692470131,4,-27,-2,-15,-41,-5,4,-24
1499893692487067,11,13,22,75,54,6,11,62
1499893692487067,0,14,-2,-22,-19,-4,-5,1
1499893692488067,-13,-15,-6,7,8,-3,2,-27
1499893692488067,-4,50,-3,-31,-42,-7,10,48
1499893692509073,-25,-45,-20,-49,10,-6,-37,-85
1499893692509073,0,14,26,24,-1,-5,-9,10
1499893692511069,18,-9,-9,19,4,3,-4,4
1499893692511069,0,32,-14,-1,29,4,10,-15
1499893692524102,7,2,27,-11,-10,-3,2,9
1499893692524102,-18,-3,-5,-6,11,1,10,45
1499893692526068,12,32,-5,-39,-21,-11,-35,-102
1499893692526068,6,-10,-4,7,-38,1,16,30
1499893692547105,14,60,5,25,40,9,-3,4
1499893692547105,-39,-100,-35,-54,-14,-14,-20,-53
1499893692548069,23,10,2,-17,-11,4,8,23
1499893692548069,-14,30,4,18,9,-9,-26,-27
1499893692569111,13,10,5,74,-33,5,27,55
1499893692569111,-22,-29,-29,-68,0,-16,-53,-103
1499893692571080,10,25,43,52,27,15,9,36
1499893692571080,-21,-12,-31,-13,0,-2,-4,-15
1499893692583137,15,28,-5,66,-6,3,16,64
1499893692583137,18,68,2,-38,13,-1,4,18
1499893692590117,-24,-76,-4,33,-12,-2,-2,11
1499893692590117,30,38,2,14,42,8,25,54
1499893692607089,-6,34,43,-8,-25,-7,-34,-81
1499893692607089,-6,7,11,43,-4,-1,7,-5
1499893692608073,4,1,-18,5,6,4,14,35
1499893692608073,38,57,19,-8,7,5,18,33
1499893692629115,-26,-86,-24,-94,-31,-6,5,17
1499893692629115,-4,-28,12,60,12,-8,-9,-40
1499893692631085,6,7,-5,-29,8,1,10,72
1499893692631085,-34,-85,-25,29,29,2,-33,-108
1499893692643114,36,56,41,-40,-12,-1,6,39
1499893692643114,-28,-53,-15,-11,-21,6,6,-17
1499893692650135,24,32,7,-4,-21,-11,-3,15
1499893692650135,-30,-66,-1,-39,-7,-2,14,30
1499893692667087,-4,-73,-37,-26,0,-8,-1,-17
1499893692667087,1,5,34,89,6,9,18,48
1499893692668077,-16,-49,-43,-38,-29,-4,-25,-42
1499893692668077,8,38,12,20,27,-4,-4,37
1499893692689117,-3,14,-38,4,15,1,-6,-84
1499893692689117,16,-2,0,25,9,8,18,12
1499893692691079,-10,12,-7,-37,-9,-1,2,-10
1499893692691079,0,8,43,5,-8,10,11,48
1499893692704078,6,-19,-22,72,22,4,6,15
1499893692704078,12,26,7,-48,-14,-4,3,10
1499893692710127,12,-37,3,8,28,-2,5,11
1499893692710127,-4,31,-3,25,7,1,-15,-81
1499893692727090,-3,8,15,-7,-39,-10,-1,16
1499893692727090,8,85,-13,5,16,10,7,13
1499893692728086,-11,-59,0,-56,7,-5,-5,-30
1499893692728086,6,-2,-2,-29,-44,-3,11,67
1499893692749088,-22,-69,-9,21,2,5,0,-27
1499893692749088,20,47,7,-36,-59,-10,-2,24
1499893692751094,-11,74,6,6,98,9,-8,-32
1499893692751094,0,50,-36,-20,-11,-1,0,-7
1499893692763118,-6,15,-13,-26,-35,-8,-4,-1
1499893692763118,16,31,37,65,27,2,1,24
1499893692770150,-36,-77,-37,-24,-33,-8,5,-22
1499893692770150,3,7,13,17,-5,1,1,39
1499893692787153,7,10,26,-35,63,17,-2,-44
1499893692787153,-26,-89,-30,75,-9,-14,-19,-28
1499893692788083,22,42,15,-42,-49,3,6,26
1499893692788083,9,-52,-32,23,26,5,14,53
1499893692809123,-7,43,55,-15,17,-1,6,6
1499893692809123,13,48,-44,8,-10,-8,-17,-10
1499893692811085,-14,24,-22,30,-16,-2,-4,15
1499893692811085,-13,-23,27,34,-13,-10,-1,-68
1499893692823127,3,21,-25,-68,-3,0,-4,2
1499893692823127,21,16,37,-31,-1,-1,-5,7
1499893692830124,-10,-38,-21,9,28,4,4,24
1499893692830124,0,-4,12,-8,-33,-9,-12,-17
1499893692847109,12,36,15,13,-3,-1,22,55
1499893692847109,3,-24,20,7,28,4,-12,-52
1499893692848086,-17,0,-35,-5,-19,-5,-16,21
1499893692848086,2,-49,-16,11,35,4,6,22
1499893692869127,0,11,-15,-43,-42,-15,6,10
1499893692869127,2,1,-2,-13,-2,7,6,33
1499893692871089,-5,-24,48,42,11,1,-1,-34
1499893692871089,-15,27,-45,-20,-13,-5,-21,-27
1499893692883102,9,-17,-4,19,-11,1,-1,-9
1499893692883102,-34,-56,-39,51,-6,-6,-1,-7
1499893692890161,37,79,40,-24,-9,9,20,32
1499893692890161,-12,-57,-32,-30,-18,-2,-13,-28
1499893692907104,-1,4,20,17,22,0,-20,8
1499893692907104,-3,-24,-17,-2,-31,1,4,2
1499893692908091,3,-36,0,36,3,-9,-3,-7
1499893692908091,15,48,21,24,57,7,5,32
1499893692929130,-4,-5,10,-69,-28,-1,-2,-36
1499893692929130,-7,-31,-1,-21,28,2,-2,-1
1499893692931099,4,51,-1,41,1,4,1,6
1499893692931099,10,45,21,3,-26,-3,18,-5
1499893692943158,-31,-81,-26,-14,4,-3,-26,-16
1499893692943158,22,64,25,26,3,-2,5,22
1499893692952106,11,57,3,-46,15,1,-1,-7
1499893692952106,-23,-86,-12,42,-50,-9,0,4
1499893692967109,1,22,9,-48,20,9,14,-6
1499893692967109,-2,25,5,0,11,-3,-2,-6
1499893692968093,15,52,-10,6,6,2,-6,12
1499893692968093,5,-30,23,12,-27,3,13,4
1499893692989133,-6,16,-14,53,-5,-4,0,-6
1499893692989133,-13,-20,-24,-96,-7,-12,-25,-42
1499893692991096,-18,-52,22,43,-1,9,11,-16
1499893692991096,6,37,31,-10,1,-2,-1,89
1499893693003162,5,46,-47,64,30,3,-12,-74
1499893693003162,-18,-22,-22,-47,-21,-8,-2,-17
1499893693012109,-1,-13,-3,-31,-11,-4,-5,1
1499893693012109,11,6,1,-41,-7,8,12,29
1499893693027112,-23,21,13,65,-6,-16,-26,-56
1499893693027112,-10,-34,6,-27,-3,7,18,64
1499893693028096,10,-11,-5,12,2,-4,-2,8
1499893693028096,-4,9,24,-24,24,2,-6,-47
1499893693049136,14,57,4,30,-17,-3,18,52
1499893693049136,6,-25,24,22,4,1,-10,-63
1499893693051110,-26,-53,-45,-1,-13,-15,-24,-19
1499893693051110,4,26,15,28,10,3,-1,-3
1499893693063145,3,11,-4,-41,15,4,-2,-14
1499893693063145,-5,-55,-13,-20,-28,0,10,15
1499893693072099,10,-54,33,68,-1,-4,8,37
1499893693072099,-11,-27,-36,-26,13,-4,-12,-30
1499893693087171,-6,-12,-16,-74,-29,-4,9,49
1499893693087171,13,-7,22,10,31,5,7,-10
1499893693088102,8,3,-4,40,30,0,-1,29
1499893693088102,5,3,-1,-5,-20,-5,-13,-2
1499893693109139,-4,-26,7,-39,-4,8,14,47
1499893693109139,0,30,-5,10,-9,-6,-7,7
1499893693111110,11,47,-27,15,6,2,3,-22
1499893693111110,9,16,3,-35,13,-2,-3,-19
1499893693123163,-9,-10,-21,-11,-4,4,9,61
1499893693123163,-11,16,62,40,-55,-13,-7,-45
1499893693132103,14,44,-21,-3,35,9,8,-1
1499893693132103,3,21,-17,-69,-9,-1,-5,5
1499893693147114,-5,-52,-23,20,27,-4,1,15
1499893693147114,8,37,2,-12,-12,2,2,44
1499893693148102,-4,5,-1,-14,-19,-6,3,-11
1499893693148102,-2,26,18,37,2,5,28,26
1499893693169143,-18,-97,0,38,-6,-8,-32,-67
1499893693169143,27,40,-39,-41,26,-2,4,99
1499893693171106,-23,6,8,-7,-29,7,6,-26
1499893693171106,6,11,-34,-15,10,-5,-3,5
1499893693183178,4,30,7,12,-16,-3,1,0
1499893693183178,-5,1,15,16,1,-4,-2,-4
1499893693192120,13,3,-7,-7,-30,-9,-8,10
1499893693192120,-12,-15,-7,-4,15,2,-4,-28
1499893693207123,17,-24,40,10,-19,4,6,27
1499893693207123,-15,31,-20,52,49,10,3,-15
1499893693208118,0,5,4,-44,6,4,-9,23
1499893693208118,-6,-14,5,-17,-43,-11,-3,-32
1499893693228150,2,29,7,25,47,-2,6,14
1499893693228150,-2,0,-2,-24,4,2,-4,12
1499893693229143,-10,-17,-34,12,-10,-7,-11,-20
1499893693229143,0,-19,-3,30,12,5,1,-8
1499893693251152,-3,26,1,-29,-18,-4,0,-5
1499893693251152,-5,25,9,-8,-7,-2,6,-4
1499893693252119,-7,-84,-2,13,-1,-2,-3,10
1499893693252119,35,48,-3,34,-11,6,28,37
1499893693266152,-36,47,-13,-27,40,-5,-56,-47
1499893693266152,-10,-29,-3,-3,6,2,2,-11
1499893693267122,4,14,11,11,-6,-4,-1,16
1499893693267122,4,-5,0,31,5,-1,-6,33
1499893693288153,22,5,14,-40,-34,-5,11,20
1499893693288153,-7,3,-12,13,19,7,8,-15
1499893693289146,10,17,36,25,45,9,20,49
1499893693289146,-53,-47,-50,-27,-29,-27,-60,-117
1499893693311180,18,20,50,-4,-6,2,16,16
1499893693311180,-9,-27,-23,41,-5,-5,-14,-62
1499893693312124,20,34,5,-17,-20,0,12,19
1499893693312124,-7,-24,20,-45,-9,1,15,66
1499893693326156,9,-16,-26,18,5,-3,-7,-29
1499893693326156,1,2,12,21,4,0,8,20
1499893693327116,11,52,5,-8,-12,-2,-7,41
1499893693327116,-15,-81,-2,-10,4,6,3,-5
1499893693348157,-3,12,-7,25,-6,0,5,0
1499893693348157,23,47,10,20,-20,-1,17,113
1499893693349150,-24,-46,-4,-31,26,-3,-18,-108
1499893693349150,1,54,9,68,-42,-11,-16,6
1499893693371186,15,-32,-12,40,78,15,31,66
1499893693371186,-21,-3,-9,-24,-33,-16,-64,-71
1499893693372129,-6,46,39,2,17,-1,0,3
1499893693372129,-8,-21,-24,-20,-3,0,8,18
1499893693386156,-7,3,-11,14,-11,4,0,-27
1499893693386156,29,63,-20,-29,15,2,15,29
1499893693387128,-33,-53,3,-12,-15,5,-5,-43
1499893693387128,13,14,23,-31,45,8,-8,0
1499893693408162,10,28,24,41,-17,4,16,47
1499893693408162,6,-38,-50,-27,-12,-3,9,21
1499893693409153,3,6,11,-34,-17,-5,-2,11
1499893693409153,-5,26,14,50,9,-3,-12,-60
1499893693431158,-8,-16,-36,-45,-19,-6,-14,-19
1499893693431158,-1,-18,32,20,-13,-4,10,7
1499893693432129,9,22,-5,13,1,-2,-13,49
1499893693432129,11,-26,-3,32,-5,5,12,-10
1499893693446124,4,-18,10,20,22,-1,3,49
1499893693446124,-21,-55,-7,8,-13,0,12,45
1499893693447157,-12,9,12,10,-11,-17,-35,-56
1499893693447157,-6,-23,24,4,38,8,12,26
1499893693468187,3,29,-18,-43,-22,-6,-28,-19
1499893693468187,4,-52,2,37,-6,-2,25,81
1499893693469121,-1,42,13,-39,11,8,7,-69
1499893693469121,3,-42,-24,-30,-1,-6,-10,-21
1499893693491152,2,-25,-4,0,0,-1,16,7
1499893693491152,-26,-49,-4,-45,-8,-4,-12,-50
1499893693492124,14,20,-31,21,0,2,4,19
1499893693492124,0,47,34,17,-9,-1,-10,-55
1499893693506129,8,-17,-10,-14,-33,1,24,66
1499893693506129,-15,20,13,29,8,-1,-2,10
1499893693507124,0,-19,-26,-47,1,1,2,-3
1499893693507124,14,-25,16,-5,-11,-6,-3,9
1499893693528128,-17,-14,-9,23,-10,-2,-3,20
1499893693528128,4,34,-2,-15,11,3,-15,-85
1499893693529142,-1,-93,29,22,7,-6,8,46
1499893693529142,-11,-1,-62,-40,-29,-6,3,22
1499893693551182,11,45,17,-62,23,-1,-10,-19
1499893693551182,-7,2,-8,-21,0,0,-15,-22
1499893693552129,-4,-17,-18,9,-36,4,12,17
1499893693552129,14,76,14,12,14,-2,7,-14
1499893693566194,-25,-104,-22,26,3,-5,2,54
1499893693566194,19,67,12,-30,1,5,-11,-36
1499893693567130,-11,-56,5,32,-5,-1,7,16
1499893693567130,0,1,0,-48,-12,0,-5,69
1499893693588127,2,58,9,35,45,0,11,-21
1499893693588127,6,-5,7,-2,-11,-1,-10,21
1499893693589165,-13,-52,-3,46,-10,-5,4,-25
1499893693589165,9,1,-20,-10,20,9,11,37
1499893693611202,-12,-8,8,-38,-19,-12,-18,-80
1499893693611202,-17,-81,2,-8,-6,2,7,1
1499893693612132,-16,-22,-23,24,2,-7,-23,-77
1499893693612132,-4,14,-2,-14,-28,-6,-4,-10
1499893693626141,28,115,7,8,-4,7,10,32
1499893693626141,-5,-91,-16,35,14,-6,-4,-4
1499893693627133,4,32,-2,-20,22,5,20,86
1499893693627133,19,14,35,53,6,4,-24,-88
1499893693648166,-33,-45,-23,-49,-11,-9,-9,-12
1499893693648166,9,69,-1,26,2,3,3,1
1499893693649132,1,7,2,-32,-21,-7,-9,-7
1499893693649132,5,19,1,30,3,2,20,-5
1499893693671204,8,-26,23,15,15,7,-10,2
1499893693671204,10,52,17,-8,-13,0,9,18
1499893693672136,3,20,-15,-50,18,-1,-3,13
1499893693672136,-12,11,0,8,-13,0,8,-2
1499893693694179,-8,-31,-3,20,-25,-2,-11,-50
1499893693694179,41,87,-3,0,-11,-1,15,78
1499893693695136,4,74,23,23,23,4,0,-42
1499893693695136,-13,-7,4,-59,-16,-5,-6,19
1499893693717146,-5,-32,-31,3,-24,-1,-7,-43
1499893693717146,-2,23,3,11,48,-3,2,-7
1499893693717146,9,36,17,1,-64,-4,-1,22
1499893693717146,-1,-39,-10,30,17,-1,14,37
1499893693731200,-12,-1,49,33,14,-3,-8,-25
1499893693731200,-2,-36,-38,-53,-16,2,-4,-42
1499893693732139,7,0,-19,-31,-17,-2,0,26
1499893693732139,-20,5,6,10,14,-4,-22,-28
1499893693745180,-1,-29,-12,19,-3,4,7,39
1499893693745180,-7,-30,2,2,-6,-4,0,-16
1499893693753171,3,4,-25,39,-9,-4,-7,20
1499893693753171,-4,28,-2,-14,43,0,-5,-21
1499893693768182,12,37,-18,-41,-19,1,6,14
1499893693768182,-4,-21,10,-4,8,-3,-9,-8
1499893693769139,-13,-36,-34,5,-12,-2,11,17
1499893693769139,10,-2,-6,12,-6,1,8,49
1499893693791205,-12,-26,-1,6,18,-5,-13,-11
1499893693791205,3,25,-6,-6,5,8,27,82
1499893693792162,17,7,35,19,18,0,-8,-28
1499893693792162,-17,-63,-38,-1,-4,6,7,37
1499893693806205,2,19,18,4,-16,-4,-4,-9
1499893693806205,7,18,5,37,34,-7,-5,-12
1499893693807144,-29,-4,0,-99,-20,-2,-18,-42
1499893693807144,6,7,-3,15,-14,-7,-14,-20
1499893693828187,15,-5,-24,17,-15,3,12,20
1499893693828187,-18,-4,8,-20,-4,-2,-7,-25
1499893693829179,8,35,19,11,15,-2,4,19
1499893693829179,-13,-32,-26,5,12,3,-14,-2
1499893693851210,5,36,7,-14,-10,0,8,24
1499893693851210,-1,2,32,16,-39,-1,-28,-78
1499893693852149,-17,-66,-27,8,50,1,2,18
1499893693852149,3,61,18,-4,-22,-2,4,-12
1499893693866179,12,-19,3,-33,5,2,15,16
1499893693866179,-13,-60,-25,20,2,-2,-17,-20
1499893693867149,0,36,14,-32,-17,-4,-6,7
1499893693867149,6,50,24,29,11,-2,1,-6
1499893693888190,-6,-57,-12,14,36,11,15,19
1499893693888190,-13,-19,-8,-50,-36,-8,-6,-67
1499893693889146,6,2,14,14,56,2,-4,8
1499893693889146,19,2,-5,-8,-6,0,9,30
1499893693911189,-16,20,10,28,-15,-9,-17,-57
1499893693911189,6,12,10,-14,15,9,14,42
1499893693912147,3,-10,-15,21,-35,-4,-1,-13
1499893693912147,0,-22,17,-4,31,-2,-14,-33
1499893693934188,-5,11,0,5,12,2,-8,-18
1499893693934188,-16,-6,-10,-1,-25,-1,5,6
1499893693935160,-18,-57,-7,-52,-8,-6,-14,-20
1499893693935160,1,-8,4,-1,-8,0,4,27
1499893693948193,-9,8,-11,-12,-25,-6,-3,-23
1499893693948193,0,5,6,45,5,-6,0,13
1499893693949178,11,-20,-15,4,-11,3,8,23
1499893693949178,1,1,2,-33,-37,-2,5,-10
1499893693971191,-9,-56,-3,29,30,-11,-20,-35
1499893693971191,7,61,-9,-16,7,12,8,18
1499893693972151,-6,36,-4,29,5,-2,-12,-21
1499893693972151,6,-10,22,10,-1,6,4,25
1499893693985226,15,36,-16,-16,-14,0,9,10
1499893693985226,-3,-25,41,26,8,-4,4,29
1499893693993195,-4,25,-23,-25,-21,-2,-1,-52
1499893693993195,-17,-45,26,7,-1,-7,-3,21
1499893694008164,5,11,-16,-2,10,0,-6,25
1499893694008164,2,19,9,-8,16,1,-6,-11
1499893694009172,4,10,6,37,-3,4,-1,-3
1499893694009172,-3,-14,-21,-30,-4,-1,13,3
1499893694031220,18,60,27,-6,-14,2,3,29
1499893694031220,-13,-61,-38,-7,4,-9,-16,-67
1499893694032156,3,8,17,0,-36,-3,3,33
1499893694032156,-1,-10,-46,29,27,8,4,1
1499893694045227,16,42,38,-2,-32,-3,-3,-12
1499893694045227,-8,-25,-65,-49,13,3,10,3
1499893694053199,6,17,18,10,-16,-9,-5,19
1499893694053199,0,8,31,8,-29,-8,-7,-7
1499893694068196,-7,-90,5,-14,22,7,14,45
1499893694068196,-1,8,23,0,43,4,-4,-3
1499893694069169,-1,-19,-2,29,-7,-3,20,26
1499893694069169,2,63,-16,3,-5,-6,-28,-34
1499893694091216,-14,-24,-20,-33,-17,1,10,-6
1499893694091216,1,4,31,9,-28,-11,-25,-9
1499893694092169,1,22,-21,18,39,6,4,1
1499893694092169,13,5,15,-24,6,4,1,3
1499893694105222,9,62,11,27,-16,-2,-2,16
1499893694105222,-10,-20,-44,-16,11,-1,11,22
1499893694113173,-4,8,35,5,-9,-3,-11,-19
1499893694113173,2,-30,5,35,-33,2,23,18
1499893694128206,-16,-20,-27,-59,51,-1,-26,-54
1499893694128206,1,4,14,17,-4,-6,-15,-3
1499893694129169,2,-18,-15,-20,-11,-1,-4,-10
1499893694129169,-7,1,0,-24,9,0,19,58
1499893694151190,22,54,19,-2,-17,5,4,-38
1499893694151190,-11,-55,-24,31,14,-1,-4,2
1499893694152161,-8,-47,2,-13,-14,-1,5,6
1499893694152161,13,93,12,-29,7,-6,-16,-40
1499893694165202,-24,-16,-8,36,-19,-9,-1,48
1499893694165202,19,47,37,-23,7,7,-10,-26
1499893694173206,-1,-14,-13,13,-1,-2,6,13
1499893694173206,-12,-72,-15,6,4,1,-14,-79
1499893694188204,-20,12,-41,-38,-21,-13,-24,-20
1499893694188204,7,30,31,23,-21,4,18,31
1499893694189170,7,-5,-19,8,1,1,-4,-16
1499893694189170,-31,-28,-7,-16,29,-5,-12,-37
1499893694211204,7,-7,6,15,-10,1,9,-8
1499893694211204,-3,-17,17,1,0,0,5,18
1499893694212166,7,35,7,-6,-10,-1,10,41
1499893694212166,-5,-6,-26,29,-5,-5,-2,-63
1499893694225233,12,29,7,-34,2,9,-1,-25
1499893694225233,-1,15,11,7,25,-1,0,51
1499893694233209,-1,-33,-5,8,-2,-1,-5,-19
1499893694233209,5,26,-7,19,-13,-4,5,44
1499893694248211,-9,-49,-9,-17,-30,-4,8,16
1499893694248211,-8,-2,-33,-16,37,8,-5,-71
1499893694249179,3,31,10,15,14,-2,0,-15
1499893694249179,-9,-46,17,9,8,-2,-7,42
1499893694271210,-2,22,-1,-30,-36,-9,-5,-26
1499893694271210,0,-14,15,35,0,0,20,54
1499893694272204,1,-7,-31,-39,8,4,-9,-14
1499893694272204,9,-3,32,-17,-13,5,3,17
1499893694285232,9,-10,21,40,45,-1,8,43
1499893694285232,-9,-42,-30,-24,-36,-4,-1,-3
1499893694293214,4,59,37,25,23,1,9,-12
1499893694293214,4,15,-38,-24,-36,-5,-23,-50
1499893694308180,-3,-2,16,26,44,2,-3,29
1499893694308180,10,41,-13,7,-17,-8,9,-4
1499893694309177,-7,-32,-2,-56,10,2,-16,5
1499893694309177,12,14,-4,8,-12,-2,10,38
1499893694331245,1,23,-8,21,11,3,3,-27
1499893694331245,0,20,-9,-14,-26,-4,-18,-9
1499893694332173,3,-15,4,3,-1,-5,5,-10
1499893694332173,-8,6,-7,-6,-8,-6,-8,-11
1499893694354214,1,8,17,13,18,4,-1,9
1499893694354214,2,10,-20,-9,-3,-2,-1,-17
1499893694355174,2,-34,-6,19,0,0,3,13
1499893694355174,1,17,8,-18,18,9,15,46
1499893694368186,-9,-82,-18,-9,-3,-1,6,-22
1499893694368186,13,14,27,1,-10,-3,-7,-23
1499893694369172,-15,-37,-8,-7,10,9,-3,1
1499893694369172,-3,-21,3,17,9,-4,-1,-14
1499893694391240,-20,14,-17,-19,-18,-3,-9,-49
1499893694391240,13,-30,-1,19,-9,-5,-16,20
1499893694392176,-11,37,-1,-1,17,-5,-6,-70
1499893694392176,-6,-21,-4,-29,-13,-3,-17,-9
1499893694414218,13,-39,-4,16,-7,7,19,53
1499893694414218,-18,29,-18,-15,-6,-2,2,-26
1499893694415178,9,-11,28,33,-39,-7,-13,10
1499893694415178,-2,47,18,-21,51,13,13,9
1499893694428211,14,44,1,25,16,-3,-4,-5
1499893694428211,-8,-21,-14,-18,-12,-1,9,44
1499893694429178,5,35,7,15,-2,-4,-11,-34
1499893694429178,-3,25,-23,-6,1,-3,14,26
1499893694451244,-3,-24,13,20,-1,-1,-18,-12
1499893694451244,2,-1,-3,6,13,4,4,12
1499893694452180,-2,-60,-6,-14,-4,-6,7,18
1499893694452180,-6,12,-2,9,14,-3,6,17
1499893694474226,-9,-11,-14,-12,-22,-9,-16,-26
1499893694474226,-4,25,11,-18,-12,-6,-4,-16
1499893694475182,4,17,-6,3,-24,5,23,52
1499893694475182,2,6,-4,-28,34,3,-19,-58
1499893694488225,4,8,4,3,-10,-6,-10,-13
1499893694488225,5,-10,20,7,-4,-1,4,11
1499893694489180,-6,9,-12,-7,-7,-1,-2,-10
1499893694489180,-6,-37,7,-12,-20,-3,-1,28
1499893694511221,6,64,2,-18,-12,-1,0,-33
1499893694511221,-18,-18,5,1,23,0,-7,-49
1499893694512182,-4,-6,-19,-6,13,1,-1,11
1499893694512182,-3,-11,-4,27,-13,-8,-2,-16
1499893694534227,3,-8,2,-4,15,9,14,42
1499893694534227,15,30,-15,18,12,-3,1,-2
1499893694535185,-21,-63,-7,-19,-13,-4,-12,-10
1499893694535185,-7,-2,-1,16,-3,1,-3,-28
1499893694548230,4,9,-6,5,5,-2,8,15
1499893694548230,5,20,46,-13,-41,4,16,61
1499893694549192,-7,-9,-26,-6,54,-1,-12,-74
1499893694549192,4,15,-2,0,-14,3,-5,34
1499893694571210,-4,-1,-1,15,-9,-1,-2,0
1499893694571210,-2,1,3,2,21,3,17,56
1499893694572187,2,12,-65,-4,26,-1,-28,-47
1499893694572187,-2,-7,39,-25,-34,-5,1,2
1499893694594253,0,-16,-5,0,19,1,-7,2
1499893694594253,4,24,-3,9,-7,-4,3,-27
1499893694595189,-11,-32,16,-12,-28,-6,3,23
1499893694595189,5,0,-7,11,30,-3,-2,-1
1499893694608257,1,21,-16,-17,10,4,4,5
1499893694608257,-22,-58,-17,-37,-24,-9,-20,-28
1499893694609204,16,37,19,1,7,8,12,40
1499893694609204,-8,-32,-19,19,1,-3,-1,2
1499893694631231,5,-21,14,7,-47,-10,14,5
1499893694631231,-12,6,-12,-7,56,7,-25,-20
1499893694632198,10,-2,9,7,-6,1,9,24
1499893694632198,-3,-7,-15,3,-20,-6,-1,10
1499893694654234,-1,4,5,-12,2,-3,12,14
1499893694654234,9,16,9,-7,2,2,10,23
1499893694655192,-4,-42,4,2,-18,2,8,22
1499893694655192,0,21,12,9,-4,-4,-15,-1
1499893694668260,6,5,-19,2,26,1,-14,-34
1499893694668260,-8,-31,-9,7,-2,2,2,-27
1499893694669226,4,75,19,1,-11,-3,-1,8
1499893694669226,-8,-75,-6,19,9,-7,6,-27
1499893694691245,1,22,-15,-15,5,8,-8,25
1499893694691245,-4,52,25,-19,2,-4,-5,-16
1499893694692193,5,37,10,7,-27,2,4,9
1499893694692193,7,-28,-9,10,0,4,7,10
1499893694714194,-8,29,8,20,2,-6,-4,7
1499893694714194,4,-30,-19,-6,-21,-3,-10,2
1499893694715195,2,47,13,23,5,-1,2,-15
1499893694715195,-24,-70,-18,-26,-10,3,-3,-8
1499893694729233,-5,9,6,26,21,-7,-6,6
1499893694729233,5,3,22,-19,-28,3,5,-12
1499893694730221,-3,39,-3,-10,-16,-4,8,6
1499893694730221,27,29,6,3,24,1,2,60
1499893694751218,-19,-59,13,-1,9,2,-21,-75
1499893694751218,1,0,-31,-1,-17,-5,6,4
1499893694752196,-1,36,-4,-5,32,-5,-13,6
1499893694752196,10,28,3,-31,-17,9,19,6
1499893694774203,2,-10,7,18,-19,-6,4,22
1499893694774203,12,40,-6,-14,22,8,-1,2
1499893694775199,-5,-73,-24,2,-18,-1,8,5
1499893694775199,-24,-14,-17,8,-25,-14,3,15
1499893694788258,-10,-18,-1,-39,43,9,-12,-70
1499893694788258,-1,-15,-22,19,-29,-5,0,-1
1499893694789199,12,-23,24,8,15,3,7,19
1499893694789199,-11,2,1,-3,-7,-3,0,-29
1499893694811249,4,3,-17,12,-35,-6,-1,33
1499893694811249,-7,-19,0,-7,33,5,-3,-25
1499893694812220,-9,-34,7,-9,4,1,-2,-14
1499893694812220,17,47,2,12,15,0,3,17
1499893694834199,-2,4,19,0,-26,-6,-4,-34
1499893694834199,-5,-11,-9,31,5,-4,-9,18
1499893694835203,1,24,-3,-21,12,-6,-4,4
1499893694835203,5,11,-4,1,-4,8,-1,-16
1499893694848245,7,-23,-18,10,-1,-2,8,33
1499893694848245,-4,-69,22,-6,-6,0,13,19
1499893694849223,-17,-26,-22,-15,-11,-3,-23,-34
1499893694849223,-1,15,0,6,8,-4,-13,-4
1499893694871274,11,32,0,-7,-12,5,16,49
1499893694871274,1,-13,-16,-5,7,-3,-12,19
1499893694872214,4,26,16,16,-3,5,7,9
1499893694872214,6,12,-11,-7,3,2,-3,4
1499893694894238,-2,22,6,23,-11,-2,7,-2
1499893694894238,-1,36,0,-22,-19,1,6,-4
1499893694895217,4,-23,23,23,20,3,13,36
1499893694895217,-10,-3,-37,9,-26,-9,-16,-21
1499893694908265,-11,-49,2,-48,28,9,-10,-27
1499893694908265,-10,24,-5,24,-7,-11,-5,-13
1499893694916246,4,22,0,0,-5,4,4,-9
1499893694916246,-3,-18,-8,2,-11,0,3,4
1499893694931252,1,27,35,6,-4,-7,-8,9
1499893694931252,9,-13,10,2,0,4,9,-11
1499893694932207,-7,56,6,11,-22,-7,-11,-2
1499893694932207,8,30,-12,-14,53,0,6,20
1499893694954247,-6,-66,-44,-40,-4,0,0,9
1499893694954247,6,-3,7,6,-1,-5,-16,-18
1499893694955228,-2,1,-5,-8,-27,-5,8,-2
1499893694955228,4,18,12,-1,-15,0,-17,-22
1499893694968224,-9,4,12,14,27,0,8,9
1499893694968224,-5,-35,4,5,-19,-2,1,15
1499893694976251,0,2,-25,-8,38,4,-2,-7
1499893694976251,-4,-1,11,-9,-11,-7,6,0
1499893694991267,14,39,0,-1,-8,-2,-10,4
1499893694991267,-12,-10,1,8,-29,-5,-5,-18
1499893694992227,0,-43,-10,38,27,4,-4,6
1499893694992227,5,0,-3,-23,-6,0,1,-1
1499893695014256,-8,1,-10,-12,0,1,-2,-2
1499893695014256,4,7,20,13,-3,1,3,17
1499893695015213,13,0,1,-13,-9,0,13,40
1499893695015213,-8,29,-15,9,-15,-2,-12,-29
1499893695028227,-3,10,-3,10,13,-6,-7,15
1499893695028227,-5,17,1,-22,3,7,4,-52
1499893695036260,10,-29,-2,-8,-15,-4,0,45
1499893695036260,17,40,19,18,28,5,5,23
1499893695051288,-11,-46,-13,-2,-13,-2,-3,-19
1499893695051288,8,20,16,7,-16,-3,2,30
1499893695052213,-10,-3,-31,-13,15,-2,-2,-18
1499893695052213,3,22,8,10,4,-1,0,1
1499893695074253,-6,-44,-16,4,5,0,-2,-38
1499893695074253,7,-2,10,-28,-7,2,3,24
1499893695075216,-6,-1,7,-7,-28,-8,-1,-8
1499893695075216,0,-24,-20,-24,-3,4,0,-25
1499893695088290,3,62,24,27,30,0,7,30
1499893695088290,-6,-51,-13,1,13,-3,-4,-3
1499893695096227,-10,-13,-17,-13,8,-6,-19,-44
1499893695096227,-6,-3,28,9,-9,0,0,9
1499893695111284,10,25,-17,-22,-20,1,9,34
1499893695111284,-7,12,-13,-6,5,-1,6,-22
1499893695112218,12,49,29,35,17,4,2,8
1499893695112218,-15,-46,0,-42,-23,-4,1,1
1499893695134258,-3,3,3,4,-15,-2,-9,-26
1499893695134258,4,14,-10,5,28,-1,1,29
1499893695135239,0,7,26,-10,-36,-8,4,14
1499893695135239,0,-2,0,41,56,9,7,-19
1499893695148230,13,41,13,-8,-28,-5,4,7
1499893695148230,-13,-2,-11,-3,6,-3,-7,1
1499893695156263,11,-7,-3,8,36,5,-11,-17
1499893695156263,-3,-19,0,-35,-29,-2,4,-15
1499893695171282,5,24,9,24,-14,-2,-8,-15
1499893695171282,-16,-16,-8,-3,47,7,-5,-11
1499893695172233,-7,-6,-13,-14,-28,-2,6,-3
1499893695172233,-2,-1,-22,3,-4,-4,-10,13
1499893695194262,2,9,41,-30,-6,-2,2,-18
1499893695194262,14,-8,-3,20,12,4,4,17
1499893695195223,-19,-28,15,-9,-10,-4,-3,-10
1499893695195223,5,13,-24,15,13,4,6,34
1499893695208290,-7,-36,-16,-9,-45,-10,1,-40
1499893695208290,14,21,-4,23,12,-2,1,41
1499893695216288,5,11,5,-20,12,8,-3,-11
1499893695216288,-3,-25,21,-5,-28,-8,0,12
1499893695231286,-21,-68,-21,15,30,4,-15,-1
1499893695231286,-2,-4,7,-7,-24,-5,7,-5
1499893695232261,4,6,-15,-7,-10,1,-5,-15
1499893695232261,15,89,15,8,2,1,12,18
1499893695254263,-22,-61,-19,-11,-35,-10,-9,-11
1499893695254263,-6,-12,-4,11,37,-3,-1,0
1499893695255236,7,52,10,29,8,5,7,48
1499893695255236,-4,-33,-10,-41,-27,-5,-17,-57
1499893695276267,3,-38,8,-2,-14,-3,4,25
1499893695276267,-6,26,1,13,45,1,-10,-14
1499893695277261,-5,-17,-25,10,0,0,8,37
1499893695277261,-20,-33,8,5,0,-1,-6,-59
1499893695291288,8,23,-34,-33,-10,2,-5,-7
1499893695291288,1,-15,21,-8,-10,-9,1,-3
1499893695292227,10,16,-1,-7,-10,3,5,-12
1499893695292227,-15,-98,1,5,13,-3,-13,14
1499893695314270,-2,31,-3,12,-2,3,6,-1
1499893695314270,2,48,3,-2,-23,0,4,-28
1499893695315238,4,19,-10,-34,-13,-2,-7,5
1499893695315238,-11,-47,-10,15,18,-4,1,12
1499893695336272,5,25,13,15,18,2,5,1
1499893695336272,13,46,12,11,-42,-6,-6,17
1499893695337264,-11,-10,-9,5,3,-6,-11,-65
1499893695337264,-8,-2,5,-64,-22,2,-8,-15
1499893695351273,5,9,-18,20,30,5,2,22
1499893695351273,1,-6,4,-21,-1,2,1,1
1499893695352230,-11,-10,2,18,-19,-5,6,-3
1499893695352230,9,35,-4,-19,3,5,17,55
1499893695373281,4,-6,7,7,30,-3,-34,-56
1499893695373281,-21,-54,-7,-13,1,-2,4,22
1499893695374240,-2,-7,18,-6,-18,-2,-1,-35
1499893695374240,2,13,16,31,5,-2,6,-6
1499893695396235,-1,-2,-10,19,26,4,7,25
1499893695396235,3,-29,-18,-49,-28,2,5,2
1499893695397268,12,21,7,10,8,-4,-10,-9
1499893695397268,7,-2,-13,21,-13,-3,4,5
1499893695411300,1,12,-7,-19,1,4,20,58
1499893695411300,-17,-36,0,-22,12,-2,-33,-43
1499893695412236,-1,-7,-12,11,3,-2,7,8
1499893695412236,9,42,27,-4,-4,-1,2,26
1499893695434274,-13,-26,-14,17,-6,-14,-21,-89
1499893695434274,0,6,14,-7,-20,5,14,37
1499893695435246,-4,21,22,10,-1,-1,4,6
1499893695435246,8,20,-28,-2,16,0,-5,4
1499893695457280,6,29,11,-6,-9,1,5,-2
1499893695457280,-2,-27,7,23,-3,-1,5,5
1499893695458247,-9,-13,-38,-12,-4,-5,-10,-32
1499893695458247,7,-24,22,35,-8,1,14,23
1499893695471308,-9,-25,5,-12,11,1,0,6
1499893695471308,11,28,6,13,4,-6,-1,-12
1499893695472247,5,3,-9,-10,13,8,-9,31
1499893695472247,-19,1,5,1,-22,-2,-3,-9
1499893695493281,12,57,27,-24,1,6,10,6
1499893695493281,-7,-23,-43,16,0,-5,-14,-4
1499893695494238,-7,-20,14,6,-4,-3,5,5
1499893695494238,1,23,-30,-13,22,5,-3,-24
1499893695516282,-1,2,24,-6,-36,-6,-10,-3
1499893695516282,-8,-35,-1,29,8,1,11,6
1499893695517275,4,-29,-27,-64,-28,-3,2,12
1499893695517275,0,0,9,-3,2,-3,-12,-31
