timestamp,emg1,emg2,emg3,emg4,emg5,emg6,emg7,emg8
1499875915072524,-2,-1,-3,-23,1,-1,0,-5
1499875915072524,4,-2,-9,18,3,2,0,8
1499875915073525,1,0,3,0,-1,-1,-1,-8
1499875915073525,-1,2,2,-13,0,0,0,-1
1499875915095533,-3,-4,-4,6,-2,-2,0,0
1499875915095533,1,1,8,20,4,-2,1,-4
1499875915096536,-4,-5,-7,-17,7,2,-1,-1
1499875915096536,-2,-4,-7,6,-3,1,-1,1
1499875915110535,-2,4,2,3,-5,1,1,1
1499875915110535,-5,-4,-4,-12,-5,-1,-2,-2
1499875915111536,2,-3,6,4,2,-2,0,0
1499875915111536,9,0,-8,-6,8,-1,-1,4
1499875915132530,-9,-6,-10,15,-6,-1,-2,-10
1499875915132530,-1,-1,3,-15,-3,-1,-2,4
1499875915133528,-6,0,13,-32,-5,0,-1,2
1499875915133528,3,-1,-8,-7,-2,-2,-2,8
1499875915155530,0,4,12,3,9,2,0,-6
1499875915155530,-1,0,-16,48,6,2,0,-7
1499875915156529,-2,-10,-19,-48,-9,-4,-1,-3
1499875915156529,-3,5,25,-13,-5,-1,2,-5
1499875915169533,4,-1,-12,21,5,-2,-1,7
1499875915169533,-4,-1,12,-8,-7,2,-2,6
1499875915170531,2,2,-4,5,8,5,3,-1
1499875915170531,-6,-4,-6,4,-7,-2,-4,-17
1499875915192533,7,1,22,76,0,0,-3,24
1499875915192533,0,-1,-2,-42,-6,-1,0,-9
1499875915193533,5,10,3,15,-3,2,-1,9
1499875915193533,-1,-4,-34,8,12,-2,-13,-13
1499875915215533,-9,4,29,-31,1,1,3,-5
1499875915215533,-1,-28,-28,31,-15,-8,0,-11
1499875915215533,-17,-3,-5,-7,6,5,7,-35
1499875915215533,7,9,21,11,-12,-6,0,29
1499875915238534,36,9,1,37,6,-4,-16,92
1499875915238534,-11,-17,-17,-57,-7,-3,-3,-52
1499875915238534,-4,-9,-32,-46,1,-4,-2,0
1499875915238534,-10,-10,10,19,-6,4,8,-13
1499875915252535,-4,7,81,-3,-3,-1,2,-23
1499875915252535,3,10,-24,-34,12,6,3,20
1499875915253535,-9,-40,-28,78,5,-7,-8,-4
1499875915253535,6,-4,-27,-120,-10,-6,-5,17
1499875915274535,10,37,-18,-9,0,4,7,10
1499875915274535,-15,-26,38,16,-10,-9,-9,-33
1499875915275536,0,-19,9,59,8,1,-16,-14
1499875915275536,25,3,3,-3,3,3,14,106
1499875915289538,-33,-30,-44,-50,-17,-7,13,-92
1499875915289538,-19,76,27,-10,11,5,6,-50
1499875915297538,-1,-16,-37,5,-9,-1,3,-22
1499875915297538,2,2,25,27,7,1,-12,-2
1499875915312556,15,-11,-32,-38,-13,-7,-13,-19
1499875915312556,7,-34,25,47,4,3,0,78
1499875915313547,6,9,35,3,6,-1,-1,71
1499875915313547,-11,12,23,71,-2,2,2,-83
1499875915335540,10,28,-23,-34,10,7,9,32
1499875915335540,2,9,-4,20,2,0,-5,-9
1499875915336539,5,8,30,-1,-1,0,2,35
1499875915336539,-17,-29,-65,-82,-3,-4,0,-57
1499875915349543,-19,-13,45,52,2,-3,-10,13
1499875915349543,1,-14,-56,-12,2,-3,-11,45
1499875915357540,3,7,39,-47,-5,3,10,-56
1499875915357540,-5,4,38,88,-5,-5,3,17
1499875915372542,-11,-15,-59,-18,-1,-3,-7,-19
1499875915372542,-1,8,21,-28,-4,-1,-1,-7
1499875915373541,3,16,-5,-31,-3,-4,-10,-5
1499875915373541,-1,20,10,1,30,17,12,-17
1499875915394543,24,-37,-30,-25,-19,-9,0,101
1499875915394543,0,17,25,114,2,-4,-3,-33
1499875915395543,16,71,-10,-48,-6,-3,2,10
1499875915395543,-10,-75,34,-12,0,0,3,25
1499875915409545,-7,-22,-36,-8,-1,0,-11,-16
1499875915409545,10,31,-5,-13,6,4,11,19
1499875915417544,-5,-28,-31,-45,-13,-7,-24,-32
1499875915417544,19,32,21,-15,-1,-3,14,23
1499875915432546,-29,24,9,29,9,18,18,8
1499875915432546,21,-35,2,-66,-17,-14,-1,73
1499875915433545,-22,-61,40,57,9,3,-17,-7
1499875915433545,-5,-60,-101,-70,-26,-12,-16,-23
1499875915454547,-80,8,58,73,0,-13,-25,-128
1499875915454547,48,76,10,-29,-4,7,14,42
1499875915455548,1,-56,27,5,14,3,-4,99
1499875915455548,-27,17,9,-49,-9,-9,-28,-92
1499875915479549,17,13,-70,-74,-9,0,23,-28
1499875915479549,-3,23,0,-7,-2,0,8,-4
1499875915480548,20,49,-1,33,2,-2,16,48
1499875915480548,-12,-2,-17,-4,4,6,11,1
1499875915493575,11,-34,7,116,1,-8,-26,75
1499875915493575,-16,12,30,-78,1,7,-7,-51
1499875915493575,42,93,-39,71,-9,-3,19,-98
1499875915493575,-61,-86,-31,-21,-6,-7,-16,45
1499875915515552,-43,102,19,-3,-8,-4,7,-34
1499875915515552,-12,-62,-18,-18,-6,-3,0,14
1499875915516551,-11,93,11,28,13,5,-1,-14
1499875915516551,37,5,64,35,7,8,18,39
1499875915529552,12,14,-43,-55,-9,0,-9,-26
1499875915529552,-10,15,39,106,8,-3,-2,-32
1499875915537553,-76,76,-3,-21,7,1,-20,-28
1499875915537553,-20,-24,-56,-3,5,4,-7,-18
1499875915552552,56,7,73,38,-4,-12,-5,23
1499875915552552,-7,-28,21,25,12,0,-4,-3
1499875915553555,-1,-50,-78,-16,-18,-3,12,49
1499875915553555,3,94,14,-24,-9,-1,11,-7
1499875915574553,9,-74,-5,24,-4,-8,-31,-63
1499875915574553,31,111,-17,17,44,13,5,3
1499875915575555,-64,-77,26,-94,-10,-2,9,0
1499875915575555,24,25,-16,83,-13,-5,17,34
1499875915589555,-21,-72,-2,3,10,1,-8,-27
1499875915589555,12,-4,-42,0,-14,-3,-10,18
1499875915597555,41,-8,30,6,8,-2,3,31
1499875915597555,-12,47,8,19,3,1,-40,-90
1499875915612555,7,-35,-24,-64,0,-6,6,-34
1499875915612555,-25,-39,-23,11,-1,6,19,19
1499875915613557,63,58,39,22,2,11,10,33
1499875915613557,-20,73,32,6,-6,-8,4,24
1499875915634560,13,76,-24,14,9,6,20,41
1499875915634560,-30,-75,-9,-55,-26,-8,-18,-23
1499875915635557,29,32,-3,-3,-24,-5,11,15
1499875915635557,27,-29,57,61,30,6,10,18
1499875915658559,49,78,4,-3,42,9,-12,-36
1499875915658559,-41,-29,-31,-36,-33,-9,3,16
1499875915658559,-36,-114,33,66,15,-3,-25,-75
1499875915658559,-1,-13,-48,-49,0,-12,-5,19
1499875915672560,-15,-47,20,12,0,4,12,82
1499875915672560,8,9,-19,-8,-14,-16,-18,-58
1499875915673560,10,54,22,-31,-3,7,30,10
1499875915673560,-2,-28,-46,38,-17,5,-12,38
1499875915694561,-9,29,19,-50,36,-4,-15,-43
1499875915694561,45,49,11,-37,-20,3,9,75
1499875915695560,-49,-105,-71,-60,11,6,11,-40
1499875915695560,72,22,24,31,-21,-9,0,40
1499875915718563,-2,26,20,-13,-37,-5,-2,37
1499875915718563,-15,-34,2,-22,3,-1,6,-13
1499875915718563,-11,40,-43,-14,6,-4,-28,-12
1499875915718563,51,123,34,-42,-13,8,20,17
1499875915732565,13,-89,-16,-3,-25,-9,9,-35
1499875915732565,-41,37,13,71,54,-2,-9,37
1499875915733563,9,53,-18,-19,-32,-10,-6,-6
1499875915733563,-2,2,26,-34,-5,-4,-4,-31
1499875915754564,28,121,44,11,-10,3,22,92
1499875915754564,24,-52,4,117,50,16,-7,-67
1499875915755564,-44,-50,-41,-51,-29,-25,-16,-25
1499875915755564,-29,-117,-28,35,44,4,-22,-30
1499875915778566,-10,10,32,-5,-18,6,16,13
1499875915778566,-26,-67,28,65,-1,-1,-1,-26
1499875915778566,4,91,-20,-7,15,1,24,67
1499875915778566,-29,-19,-29,-42,0,-8,-28,-95
1499875915792567,-39,-128,-9,-10,-15,1,-16,-40
1499875915792567,33,66,21,-15,3,5,16,21
1499875915793568,12,-56,27,-10,-20,-2,0,-23
1499875915793568,-8,41,-32,8,-26,-1,12,-11
1499875915815589,27,85,-27,6,29,9,12,35
1499875915815589,-4,-45,50,17,-40,-16,-18,1
1499875915815589,-14,-57,28,75,35,5,10,11
1499875915815589,-33,-31,-44,-42,-2,-1,10,13
1499875915838571,-1,115,12,8,4,-2,-16,9
1499875915838571,14,-53,-47,-46,-10,-4,17,-17
1499875915838571,-11,-53,-5,34,-9,-2,-22,-4
1499875915838571,66,95,61,-2,16,5,1,16
1499875915852569,-23,81,-1,52,-25,-1,3,54
1499875915852569,-93,-57,-95,-111,-34,-25,-20,-68
1499875915853570,24,92,98,60,3,5,-12,31
1499875915853570,-44,3,-44,4,17,3,9,27
1499875915874572,45,-55,-1,12,-6,0,17,47
1499875915874572,19,9,21,58,-30,-5,1,21
1499875915875571,12,95,11,-71,38,15,18,26
1499875915875571,11,-17,0,-25,-24,-17,-22,10
1499875915898574,-56,-40,-48,18,-18,-1,14,-46
1499875915898574,-6,-77,-45,-16,5,3,-6,-16
1499875915898574,3,-48,30,53,-4,-11,-20,-53
1499875915898574,32,37,-26,-58,15,14,26,52
1499875915912574,11,-6,-33,-40,-19,-7,6,1
1499875915912574,30,-42,-19,15,6,-8,-21,-12
1499875915913574,-41,68,-13,-38,-38,3,7,-7
1499875915913574,0,17,46,50,8,6,11,29
1499875915934576,8,36,22,17,11,1,-12,-53
1499875915934576,-18,-28,11,-33,2,9,14,67
1499875915935574,46,-37,12,29,12,-1,10,3
1499875915935574,10,46,35,106,-7,-14,-14,-32
1499875915958578,-32,-25,-22,-123,-2,2,-5,-48
1499875915958578,26,84,39,18,-1,3,20,51
1499875915958578,22,-13,-31,19,-10,-1,-7,18
1499875915958578,-17,-98,-61,-15,3,-7,-39,-68
1499875915972579,-16,58,40,4,-3,1,8,17
1499875915972579,48,8,9,6,2,6,14,50
1499875915973577,-29,-14,12,-46,1,-11,-39,-89
1499875915973577,-24,1,-22,-36,-33,-8,4,32
1499875915994578,55,54,23,109,41,7,-8,9
1499875915994578,16,26,-35,-103,-11,-2,3,7
1499875915995577,-6,-12,-16,29,4,7,14,-49
1499875915995577,-19,1,24,6,8,-3,-5,39
1499875916018581,14,62,57,19,-35,-4,-11,-23
1499875916018581,-25,-31,-39,78,35,6,5,-6
1499875916018581,19,71,40,-42,1,-3,4,43
1499875916018581,24,100,7,42,2,2,11,-38
1499875916032582,-21,-41,-29,-39,30,2,2,-2
1499875916032582,25,80,27,22,-2,3,-3,15
1499875916033579,-32,-80,-58,-9,-27,-6,-6,-31
1499875916033579,-14,-62,14,-10,8,4,-2,33
1499875916055581,14,-39,32,26,28,-5,-7,-16
1499875916055581,-27,26,-20,-26,-8,9,12,-26
1499875916062581,24,-22,-10,7,-8,-6,-5,41
1499875916062581,-1,74,25,-13,-16,-2,4,26
1499875916078582,-30,-121,-77,15,16,-1,-7,-10
1499875916078582,9,116,12,-15,-22,-10,-17,-55
1499875916078582,-3,24,-23,2,-9,2,14,1
1499875916078582,9,-36,20,24,-6,0,0,-24
1499875916092586,3,31,3,-27,-13,0,7,24
1499875916092586,6,-26,41,110,39,2,-9,-13
1499875916093585,11,-20,22,-48,0,5,24,62
1499875916093585,12,-20,-75,-67,-9,-12,-22,-88
1499875916114584,-3,24,30,14,-3,-4,-15,-23
1499875916114584,-42,-46,11,20,-11,2,6,-29
1499875916115585,46,107,16,3,6,-10,-8,48
1499875916115585,-4,-3,-2,-56,19,13,23,2
1499875916138586,-27,-96,-6,27,25,-5,-7,-5
1499875916138586,-8,79,3,-80,-14,-2,-4,-16
1499875916138586,14,-21,-8,49,17,2,-9,-7
1499875916138586,-22,-104,24,6,-6,0,11,25
1499875916152587,18,73,6,-2,-16,2,-12,-28
1499875916152587,-4,-3,39,45,20,4,7,6
1499875916153597,-7,74,-30,-21,-16,3,1,-50
1499875916153597,-3,24,-5,25,-5,-15,-21,38
1499875916174593,21,51,-1,0,-18,7,16,-9
1499875916174593,-8,-19,-10,-32,7,-4,-16,-3
1499875916175605,-22,-21,-2,4,41,11,24,56
1499875916175605,33,88,39,32,11,1,-15,-48
1499875916198593,-29,-128,-43,0,-26,-7,2,8
1499875916198593,24,49,-7,-7,-11,7,14,8
1499875916198593,-9,-63,8,-27,-14,-1,-14,8
1499875916198593,-24,-34,-17,-78,-17,-4,-3,-1
1499875916212591,24,97,22,-2,55,-9,4,38
1499875916212591,-15,28,-22,12,-14,-8,-25,-31
1499875916213590,-8,13,-7,59,2,0,9,4
1499875916213590,-8,86,35,31,4,12,-3,-2
1499875916234592,70,62,32,36,-13,-1,26,42
1499875916234592,-63,-32,-40,-50,-8,-15,-33,-10
1499875916235590,17,56,32,-35,-7,1,1,-8
1499875916235590,-19,-5,-10,50,17,4,8,4
1499875916258593,6,46,-7,-31,-37,2,12,3
1499875916258593,20,7,17,34,20,-4,0,45
1499875916258593,-22,-7,-7,2,-6,-4,9,8
1499875916258593,8,-100,0,14,-9,-5,0,7
1499875916271599,-22,-36,-26,-57,-7,-3,-28,-38
1499875916271599,12,2,-1,19,-12,1,4,-23
1499875916279595,10,11,7,-24,16,-4,-4,14
1499875916279595,-13,-57,-16,-27,-11,1,14,-8
1499875916294596,-36,-98,-5,0,24,-6,-18,-5
1499875916294596,24,125,11,-19,-16,-1,1,-6
1499875916295596,0,-94,-17,20,13,-1,-7,-3
1499875916295596,-6,20,21,43,30,4,11,-2
1499875916318597,2,-1,1,-4,-18,-1,-9,-1
1499875916318597,5,-16,-46,-76,-13,-5,7,-20
1499875916318597,-26,-26,9,2,-23,-11,-16,2
1499875916318597,-12,-10,-19,2,2,-1,-6,2
1499875916331598,-10,-83,-10,32,9,7,16,25
1499875916331598,16,89,55,38,22,6,-4,-6
1499875916339598,-3,25,-6,-12,-9,-8,-17,-16
1499875916339598,-34,-48,-19,-27,-18,-12,-8,3
1499875916354616,-2,18,-60,-76,-38,-6,4,-1
1499875916354616,43,72,20,62,29,8,6,11
1499875916355606,-41,-100,-31,47,-6,-6,-11,-36
1499875916355606,-5,76,48,-40,0,2,-4,-27
1499875916378601,1,-15,-19,28,20,0,6,3
1499875916378601,-5,-23,-31,-30,-16,-5,-1,48
1499875916379617,19,64,13,84,12,7,-1,-2
1499875916379617,12,0,6,-32,-13,5,5,18
1499875916391602,12,95,43,-4,-43,10,-3,-23
1499875916391602,-28,-128,-86,-54,66,-5,-5,12
1499875916399604,16,48,15,-55,-2,-2,15,-3
1499875916399604,-12,-44,-31,9,-23,-4,-8,30
1499875916414605,-5,23,44,31,26,7,2,-8
1499875916414605,4,7,5,15,-12,6,17,34
1499875916415603,-15,-8,-22,-37,-15,-2,-10,-30
1499875916415603,16,87,5,11,4,-4,-6,-1
1499875916438605,-6,-41,0,-18,-1,-2,-3,-7
1499875916438605,-9,-27,23,15,-22,0,5,16
1499875916438605,-19,-60,-32,12,10,-5,12,22
1499875916438605,16,16,-7,12,15,3,-13,-50
1499875916451604,-11,59,3,-17,4,-5,-5,25
1499875916451604,1,13,41,35,-7,5,20,12
1499875916467611,39,111,20,27,6,5,-2,-39
1499875916467611,-7,-97,-23,-28,-36,-12,-18,39
1499875916474606,-10,-17,16,9,9,-3,-3,-15
1499875916474606,21,28,-17,-53,-8,-6,-11,-5
1499875916475606,-8,10,2,-19,-20,2,4,25
1499875916475606,15,34,-8,30,35,5,12,-17
1499875916498606,-25,-56,4,43,6,-3,2,1
1499875916498606,11,-21,-23,-38,-24,1,5,5
1499875916498606,-10,-13,26,-6,29,1,-11,15
1499875916498606,4,42,-7,2,-7,-6,9,18
1499875916511621,10,59,-11,-14,-31,-1,3,11
1499875916511621,-13,-62,35,10,13,-6,-30,-34
1499875916519610,1,-21,17,44,6,6,12,19
1499875916519610,36,103,-6,3,7,2,-7,-2
1499875916534614,-21,-59,-28,-1,1,-4,-5,-44
1499875916534614,4,107,-11,14,-30,-2,11,43
1499875916535610,-17,-75,1,5,26,-9,-45,-78
1499875916535610,-12,-25,23,-24,-19,0,5,-1
1499875916558610,19,-56,-37,-23,0,-9,-1,10
1499875916558610,-11,-23,-23,-31,-3,-5,-11,-9
1499875916558610,9,41,7,18,-14,-2,10,27
1499875916558610,23,0,-10,-6,-28,9,37,65
1499875916580614,-14,70,-1,-16,46,-2,-51,-47
1499875916580614,-24,-22,18,35,0,0,1,-18
1499875916581612,2,67,-36,-46,-7,-7,-5,8
1499875916581612,-5,-70,21,-5,-22,-3,8,-3
1499875916594616,17,1,-11,50,5,8,25,48
1499875916594616,-6,-20,55,25,22,4,-13,-34
1499875916595614,15,6,-16,-30,-14,4,1,11
1499875916595614,-1,25,18,55,8,-2,-9,-37
1499875916618615,-2,-68,-13,-71,-16,-9,14,65
1499875916618615,-10,-33,-2,21,6,0,-20,-74
1499875916618615,2,66,-7,-27,-2,-7,3,12
1499875916618615,-50,-85,-4,0,-5,-6,-20,-58
1499875916640615,3,21,-11,21,8,2,3,15
1499875916640615,5,26,-7,16,-16,0,8,-16
1499875916641615,21,81,9,7,-1,5,10,54
1499875916641615,-21,-42,-15,1,17,1,-1,20
1499875916654616,1,51,38,-19,5,7,8,-22
1499875916654616,-18,-89,-28,15,-3,-5,-15,7
1499875916655616,-1,-17,20,-26,-15,-2,2,-19
1499875916655616,-3,-2,-7,8,0,-1,6,9
1499875916678617,3,25,3,16,20,3,3,-12
1499875916678617,4,23,-20,-72,-34,-13,4,-17
1499875916678617,-11,-32,28,47,13,-8,-20,7
1499875916678617,-6,-34,-8,29,1,0,6,18
1499875916700618,17,43,23,-29,1,-4,9,27
1499875916700618,2,37,-11,-31,32,6,-6,-52
1499875916701627,-6,5,1,6,-14,4,-1,7
1499875916701627,19,76,-6,10,11,-6,-12,10
1499875916714619,-6,52,59,66,-11,2,0,-1
1499875916714619,13,28,-25,-4,4,4,14,45
1499875916715621,-23,-84,-38,-35,-20,-10,-3,-10
1499875916715621,15,85,15,-9,30,6,1,-27
1499875916738622,-14,-44,-29,-83,-35,-9,-9,-15
1499875916738622,-10,30,44,55,0,-4,1,34
1499875916738622,6,8,-14,18,-8,9,16,2
1499875916738622,14,40,-14,26,-7,-7,-17,-16
1499875916760655,-13,-40,30,10,16,-4,-7,-43
1499875916760655,4,-22,-8,-50,6,2,2,-3
1499875916761623,0,11,-1,6,0,-3,-6,-25
1499875916761623,4,-15,20,10,-31,-2,19,33
1499875916774624,-2,-14,-27,32,38,2,-6,-38
1499875916774624,-2,7,27,-10,-12,0,3,12
1499875916776623,2,-17,-51,-54,-19,-9,-16,-17
1499875916776623,15,81,21,1,-2,3,0,12
1499875916798626,2,-35,-18,36,-27,0,13,43
1499875916798626,-19,-54,-2,-3,37,4,2,-11
1499875916798626,9,-7,41,23,4,-3,-1,-26
1499875916798626,8,25,-29,-37,-7,-2,3,7
1499875916820625,-14,-18,-24,-23,-28,-7,-7,-24
1499875916820625,1,22,1,11,-9,7,7,-5
1499875916821625,2,45,-13,-17,9,-2,5,17
1499875916821625,-23,-111,-20,0,7,-5,-16,-27
1499875916834627,-3,97,-14,-16,8,5,5,-30
1499875916834627,39,-44,-14,-2,-20,-4,6,115
1499875916835629,-21,-41,10,31,14,2,-9,-55
1499875916835629,-15,-10,35,-2,4,3,8,7
1499875916857627,-4,3,-28,-3,-8,-6,-14,-15
1499875916857627,-1,41,-20,-23,-21,-8,-16,-16
1499875916864628,6,33,9,23,4,9,11,0
1499875916864628,7,-57,-35,3,12,5,11,32
1499875916880630,-3,0,56,5,14,-5,-17,-20
1499875916880630,-7,33,-21,-4,-4,0,5,-29
1499875916881629,4,-51,25,-11,-19,-6,0,23
1499875916881629,16,48,26,3,-18,-1,7,-2
1499875916894629,-11,1,-34,39,29,-1,-8,-14
1499875916894629,-4,6,10,30,14,-2,-5,-24
1499875916895630,8,40,11,12,16,4,8,6
1499875916895630,-15,-2,-26,-48,8,0,1,-9
1499875916918631,19,18,-19,-49,-44,-3,18,52
1499875916918631,-32,-45,18,35,-3,-10,-25,-80
1499875916918631,4,37,16,20,6,4,6,24
1499875916918631,-17,-68,-34,-10,17,-5,-24,-34
1499875916940633,-5,-39,23,29,8,2,12,16
1499875916940633,30,53,3,-43,-23,-1,-6,0
1499875916941634,-10,-39,19,22,1,3,1,-4
1499875916941634,-5,34,-24,2,30,2,0,-46
1499875916954633,8,-23,21,-25,-3,-3,2,63
1499875916954633,-17,0,-24,18,11,2,12,-20
1499875916955633,5,-2,-24,42,-10,-5,-17,-6
1499875916955633,14,41,46,-26,-21,0,1,30
1499875916978634,-14,-65,-29,-21,8,3,8,39
1499875916978634,10,53,43,42,3,2,6,-9
1499875916978634,4,14,-39,-5,-25,-4,6,34
1499875916978634,-11,38,-1,-8,9,-3,-4,-74
1499875917000637,35,-15,46,22,-17,-2,-12,14
1499875917000637,-16,-14,-6,13,10,0,12,22
1499875917001646,-6,50,-6,32,18,-4,-14,-49
1499875917001646,-3,-71,8,-54,-18,-2,-6,28
1499875917016637,-9,107,-1,0,-25,-5,1,-1
1499875917016637,18,-56,-1,-12,14,-2,-17,-4
1499875917017637,0,-57,-3,-34,7,5,12,-2
1499875917017637,-9,37,28,58,12,-1,-5,15
1499875917037638,-6,-86,-15,5,-9,-3,-1,1
1499875917037638,-8,-10,-44,-24,-19,-4,3,4
1499875917038637,9,2,-15,-40,0,-2,-5,-10
1499875917038637,-2,24,31,3,-16,-2,-5,-4
1499875917060640,-7,7,-14,21,28,-1,-14,-46
1499875917060640,7,-10,17,-7,-26,2,10,28
1499875917061640,-2,-60,-2,-30,26,-2,-9,-14
1499875917061640,-4,1,7,47,-13,-1,5,25
1499875917074642,16,17,-22,-24,9,7,5,-13
1499875917074642,4,-26,4,13,-3,0,20,44
1499875917076641,-17,2,0,-11,-7,-3,-18,-56
1499875917076641,-8,22,-5,-18,2,-4,-13,2
1499875917098644,3,5,5,14,-7,5,2,-5
1499875917098644,11,56,20,-29,22,7,0,1
1499875917098644,6,0,-39,-21,-32,-7,13,32
1499875917098644,-3,-66,2,28,-23,-2,4,9
1499875917120644,-8,47,-2,10,-5,-2,-7,-51
1499875917120644,-17,27,9,-12,38,3,4,6
1499875917121645,-1,16,4,27,-8,0,1,3
1499875917121645,0,-91,-28,-49,-6,-8,-6,-35
1499875917134644,-15,-5,-14,-24,-14,2,16,64
1499875917134644,9,18,6,8,-19,-6,-26,-43
1499875917135644,-17,-88,-18,-17,6,-6,2,22
1499875917135644,-7,-2,10,38,11,-3,2,3
1499875917157645,12,22,4,-31,-7,-5,-13,5
1499875917157645,1,-14,2,3,16,2,4,7
1499875917158645,-16,-23,10,-2,-16,-1,5,6
1499875917158645,29,79,11,-5,27,6,13,36
1499875917180646,-5,-11,17,14,3,-1,-2,-4
1499875917180646,5,-4,-8,23,-17,-2,-1,27
1499875917181648,0,19,21,3,18,4,1,16
1499875917181648,-6,-26,-19,4,-3,3,10,22
1499875917194652,-2,10,-5,7,-7,-10,-3,-22
1499875917194652,5,5,7,32,11,4,-6,-7
1499875917202650,-3,-25,-11,-22,-22,-2,13,21
1499875917202650,-11,3,-35,-58,-28,-6,-10,-20
1499875917217649,0,4,10,12,30,0,-3,-5
1499875917217649,-5,24,-8,4,-13,-6,3,8
1499875917218647,7,-49,-1,9,6,0,-24,-27
1499875917218647,2,-40,10,-20,-23,0,3,3
1499875917240650,-10,0,-3,-25,-12,-2,-4,-1
1499875917240650,5,13,-34,-51,-11,-6,2,11
1499875917241650,8,99,38,20,13,4,3,-29
1499875917241650,-8,-77,-26,45,17,-3,-9,10
1499875917254650,23,46,50,18,-20,1,-2,20
1499875917254650,-38,-74,-14,-18,13,-1,1,3
1499875917262652,4,20,-1,-48,-3,4,10,9
1499875917262652,1,-20,-25,13,-17,-6,-8,-38
1499875917277665,-15,-22,-10,-9,13,1,3,15
1499875917277665,13,30,10,13,13,0,5,-20
1499875917278651,-6,-19,-1,-15,-6,-1,-3,28
1499875917278651,9,28,15,67,2,-1,8,10
1499875917300655,0,0,-31,-50,-1,0,-7,12
1499875917300655,1,-7,4,1,2,0,-15,-27
1499875917301654,-1,-37,-5,-22,-6,2,9,27
1499875917301654,11,91,21,18,38,5,2,-35
1499875917314654,-12,-61,-12,18,-17,-2,3,10
1499875917314654,-10,39,46,58,11,-3,-12,1
1499875917322655,-3,18,-35,7,-14,-1,-9,-28
1499875917322655,0,41,-20,-54,-10,-3,-1,-1
1499875917338657,20,43,38,21,-5,-4,-1,-7
1499875917338657,-7,12,-13,-17,-15,-3,11,13
1499875917338657,9,-12,29,48,26,5,-9,-23
1499875917338657,-24,1,11,-24,-2,-3,-12,-48
1499875917360674,28,66,-42,-23,1,-5,8,-4
1499875917360674,-25,-38,-9,27,2,-3,-10,22
1499875917361657,6,10,3,-67,-36,-11,-20,48
1499875917361657,6,15,12,11,21,6,3,20
1499875917374658,-16,27,36,-2,-14,-1,-5,-28
1499875917374658,28,37,12,10,25,10,18,3
1499875917382663,-35,-7,-20,33,-20,-4,12,-2
1499875917382663,5,4,0,19,32,1,-16,-13
1499875917398658,-1,-8,-2,-21,-5,4,-9,-8
1499875917398658,4,-55,-41,-39,-36,-11,8,21
1499875917398658,-12,76,7,52,-2,-5,-29,-96
1499875917398658,18,45,-1,-39,12,8,13,24
1499875917420660,-33,-70,2,35,-2,-2,-5,-34
1499875917420660,24,52,44,10,-16,1,-10,1
1499875917421661,21,-8,-90,-63,11,-3,23,47
1499875917421661,6,9,32,9,-27,-4,5,44
1499875917434662,-19,-67,-16,-26,-3,0,0,-45
1499875917434662,3,31,40,28,22,3,0,25
1499875917442663,-5,-66,-22,-34,14,-2,-5,-23
1499875917442663,8,32,-1,11,-5,4,13,7
1499875917457662,13,-12,-51,-22,-11,-8,2,41
1499875917457662,-16,-48,21,28,-10,0,3,-9
1499875917458667,17,59,35,54,23,4,-10,-46
1499875917458667,-15,-19,-21,-11,-2,-2,-9,-34
1499875917480666,-7,-60,0,8,5,-1,15,23
1499875917480666,9,113,-15,-49,-23,-6,-28,-49
1499875917481664,-18,-96,6,6,-1,-2,6,23
1499875917481664,-3,-20,-11,13,-17,-2,-4,1
1499875917494665,18,86,15,1,24,0,-6,-4
1499875917494665,-12,-74,-40,-16,-27,0,19,18
1499875917502670,4,37,51,-2,-9,3,11,35
1499875917502670,-11,-65,-7,38,30,5,-5,1
1499875917525668,0,-44,-19,-2,-1,-3,-12,-25
1499875917525668,-1,-34,-16,-32,16,-1,1,-20
1499875917527666,2,11,22,-10,-23,1,1,62
1499875917527666,3,31,9,15,-6,-1,9,-2
1499875917540681,1,10,-5,-11,-5,-4,-22,-27
1499875917540681,-6,-6,30,34,28,7,16,39
1499875917542669,-6,15,-17,-50,-20,-10,-16,-48
1499875917542669,1,33,-21,-11,-3,-7,-10,-12
1499875917562669,-5,-22,-8,15,6,1,4,5
1499875917562669,9,-6,10,3,-22,-7,-5,3
1499875917570670,9,19,19,22,19,11,14,8
1499875917570670,-9,40,12,-21,-3,-2,-9,-22
1499875917576669,7,1,14,35,-5,1,6,47
1499875917576669,-4,68,-27,-18,-16,-2,-5,-18
1499875917593670,-21,-75,-15,38,17,-2,6,-19
1499875917593670,2,-39,-32,-32,-19,-8,19,79
1499875917600672,-2,10,17,-8,-17,-10,-34,-76
1499875917600672,-13,24,-4,-50,25,-3,-10,-44
1499875917602672,-3,-29,5,14,-8,0,-9,12
1499875917602672,-9,-7,22,25,-2,-1,-4,-15
1499875917622674,21,82,15,-19,-11,10,26,53
1499875917622674,2,-67,-9,4,-5,0,5,-5
1499875917624672,-1,34,-19,6,-34,-10,4,6
1499875917624672,-9,-55,8,18,38,5,-6,-23
1499875917636674,10,-14,5,0,-17,6,18,56
1499875917636674,-11,31,-8,-19,-8,-8,-28,-62
1499875917645675,16,-18,6,8,11,6,12,4
1499875917645675,-10,-42,-4,-9,-27,-1,2,13
1499875917660690,-10,66,16,28,31,3,-10,-33
1499875917660690,-4,-105,-36,24,-15,-2,0,43
1499875917662674,7,28,11,-12,18,-3,-5,0
1499875917662674,9,57,34,-21,-8,-3,-3,-5
1499875917682677,-6,-34,-40,-73,-4,-4,14,-12
1499875917682677,-12,-1,-15,24,1,0,-8,-10
1499875917684675,10,94,0,-16,0,-2,0,21
1499875917684675,-5,-42,-17,4,-5,-1,3,0
1499875917696680,-12,-26,28,-12,-30,-5,-16,-27
1499875917696680,21,89,25,32,44,7,20,29
1499875917705677,-30,-57,-39,-48,-20,-6,-9,12
1499875917705677,9,10,12,21,1,1,-7,24
1499875917720679,-5,-12,6,52,17,1,11,6
1499875917720679,-5,2,-2,-31,-25,-2,-9,-15
1499875917722689,29,35,-1,36,2,7,16,9
1499875917722689,-7,82,-12,-20,11,-8,0,38
1499875917742679,-18,-113,-25,47,31,0,-27,-78
1499875917742679,5,70,40,-21,-8,2,-4,-4
1499875917744678,-5,-38,10,35,25,4,0,-17
1499875917744678,0,-14,-17,-51,-43,-4,-1,5
1499875917757681,13,35,-7,9,-2,2,13,28
1499875917757681,-2,-23,-22,11,-23,-5,0,-13
1499875917764682,-23,-35,9,13,-1,-4,-19,-41
1499875917764682,20,19,-8,-36,4,-6,-5,-16
1499875917780684,-11,32,13,22,-17,-4,-5,5
1499875917780684,-2,-79,-14,-31,8,1,3,3
1499875917782682,17,126,23,9,0,9,28,26
1499875917782682,-21,-94,-18,-15,-1,-9,-37,-35
1499875917802685,-5,7,8,-7,6,2,-3,1
1499875917802685,5,32,0,0,-15,-3,7,18
1499875917804684,0,11,-12,2,-2,-8,-17,-45
1499875917804684,-6,24,5,15,15,4,7,-11
1499875917817684,0,2,-1,-3,-5,-3,6,11
1499875917817684,-9,-23,1,-36,-13,0,-1,3
1499875917824685,3,13,-2,13,-8,-3,-9,27
1499875917824685,7,51,9,-12,-31,3,10,25
1499875917840684,-14,-100,-38,34,33,-8,-18,-40
1499875917840684,0,-18,-10,-27,-6,1,7,10
1499875917842685,3,4,-5,-14,4,4,12,11
1499875917842685,1,37,-8,-23,-17,6,-1,-21
1499875917862692,2,63,5,15,5,-5,-7,26
1499875917862692,1,-21,7,-11,-19,-2,-2,2
1499875917864689,27,8,22,15,32,-1,3,13
1499875917864689,1,5,9,-5,-6,1,4,-16
1499875917877700,-34,-19,-26,2,6,5,11,9
1499875917877700,8,-10,-41,-53,3,-6,-13,-7
1499875917884689,4,50,28,-18,-19,1,4,53
1499875917884689,5,-15,12,60,54,7,8,-50
1499875917900689,6,35,25,-39,-43,-3,-7,-12
1499875917900689,1,2,16,43,-1,1,-1,4
1499875917902689,-7,30,-8,-10,26,2,4,-3
1499875917902689,-3,-25,-19,28,3,-7,-1,-16
1499875917922693,8,-15,14,-29,-11,0,-11,16
1499875917922693,14,4,14,41,14,-6,2,22
1499875917924691,-24,56,-54,-23,-13,-4,-8,-45
1499875917924691,-1,-54,3,-14,3,-1,1,5
1499875917937690,1,-13,2,-13,6,2,10,27
1499875917937690,-9,48,8,7,-8,8,15,14
1499875917944702,17,23,4,45,23,-7,-22,-22
1499875917944702,-7,-8,-2,-33,-10,-4,-11,-6
1499875917960729,-1,12,8,1,-15,0,1,-5
1499875917960729,-12,-3,12,2,18,0,-1,-9
1499875917962694,-2,-21,0,12,-9,0,-3,-1
1499875917962694,8,54,4,22,23,0,-1,-8
1499875917990694,-6,-59,-26,-60,-9,-6,-1,-2
1499875917990694,6,31,4,38,9,-1,-6,15
1499875917992695,-25,-52,4,-54,-19,-6,-4,-20
1499875917992695,0,-44,-32,-17,-17,-3,3,13
1499875917997693,7,-10,4,55,-2,-2,8,7
1499875917997693,-3,95,-12,-27,8,0,2,-13
1499875918004697,14,32,9,-23,-12,0,3,4
1499875918004697,-15,-51,24,27,-4,3,10,40
1499875918020696,-10,45,-24,4,2,-1,-9,-32
1499875918020696,0,-98,-21,13,-9,-2,-3,-12
1499875918022697,-3,31,-2,-11,13,2,-1,16
1499875918022697,-5,-2,25,10,-10,0,6,0
1499875918043697,26,48,13,8,23,1,15,-1
1499875918043697,2,31,5,-24,0,0,-14,5
1499875918044697,11,-122,1,9,-9,-2,3,-13
1499875918044697,5,25,-21,14,5,-3,-2,22
1499875918056698,-13,-28,-3,-42,1,-3,-12,-25
1499875918056698,7,12,12,16,-1,0,10,4
1499875918065698,5,1,19,39,2,0,-1,1
1499875918065698,-15,-11,-34,-27,-22,-3,-1,0
1499875918080698,0,-37,0,65,31,-6,-18,-12
1499875918080698,-7,18,9,-78,-13,2,-2,-17
1499875918082699,0,-26,15,7,-4,0,0,-9
1499875918082699,-11,-3,1,70,18,0,6,31
1499875918103709,13,113,10,-107,4,6,12,20
1499875918103709,-4,-96,-27,5,0,-4,-18,-54
1499875918104701,-25,10,-8,-10,-17,-6,-7,-11
1499875918104701,18,107,22,-13,-17,2,-2,11
1499875918116700,-8,-91,-19,31,-13,-4,6,36
1499875918116700,-2,-34,-12,-3,9,-4,-5,-19
1499875918125701,15,68,3,-23,3,6,21,23
1499875918125701,-9,-75,3,-8,-40,-11,-24,-45
1499875918140702,-3,16,-2,-2,27,9,-10,-32
1499875918140702,-5,-78,-3,31,-3,-4,0,5
1499875918142706,-14,-12,-10,24,-14,-6,-12,-10
1499875918142706,23,65,24,-8,18,4,10,8
1499875918162704,-21,-46,-24,-13,-15,-1,4,-34
1499875918162704,22,82,16,0,-10,0,-2,-7
1499875918164703,-8,6,-13,34,8,-2,-1,23
1499875918164703,4,-27,-10,-33,10,1,4,-10
1499875918177711,-1,-15,11,36,-7,-1,5,24
1499875918177711,7,42,25,-37,-7,2,12,45
1499875918185708,-20,-32,-26,5,35,-7,-14,-27
1499875918185708,-5,109,-2,-81,-20,-1,-10,-40
1499875918200707,-7,-81,-11,34,3,-3,0,0
1499875918200707,0,-4,5,9,-2,-1,0,28
1499875918202706,3,6,0,-86,-30,3,13,13
1499875918202706,-22,-100,-13,15,20,-1,6,12
1499875918222708,30,112,6,-15,0,-1,-2,-10
1499875918222708,1,95,16,20,3,4,7,2
1499875918224707,6,-88,1,52,-17,-7,-7,4
1499875918224707,-25,-57,-27,-12,3,-1,4,17
1499875918236710,13,114,23,5,8,0,-2,9
1499875918236710,-22,-19,-10,21,-4,-8,-21,-35
1499875918245709,10,6,-8,-28,-6,5,13,5
1499875918245709,7,8,-6,43,17,1,-15,-9
1499875918260722,3,-52,-5,-39,-29,1,18,32
1499875918260722,-20,-39,15,33,24,1,-2,-9
1499875918262710,17,-33,-13,4,9,-1,-6,-2
1499875918262710,-38,99,-4,-8,-42,-12,-3,-3
1499875918282730,5,99,0,-35,-17,-1,-10,-10
1499875918282730,44,55,-9,69,46,8,16,58
1499875918284711,-44,-38,-9,-61,6,-1,-2,-46
1499875918284711,12,126,28,0,-3,7,13,32
1499875918296712,-25,-126,-47,-63,-21,-8,-22,-12
1499875918296712,31,111,24,8,4,0,5,10
1499875918305711,-6,-73,-16,17,-15,-9,-3,12
1499875918305711,30,-3,-18,27,15,1,0,-25
1499875918320712,-59,-36,-12,13,1,-7,-10,-33
1499875918320712,-8,-81,-12,-47,-21,-5,2,-29
1499875918322712,4,52,25,41,-3,7,-8,20
1499875918322712,-1,-71,-17,-29,14,-3,-7,-30
1499875918343723,26,42,13,47,13,2,13,38
1499875918343723,-5,-31,-14,-43,-6,-2,-2,-11
1499875918344714,-27,-59,-20,1,-12,-1,-4,-6
1499875918344714,16,63,20,21,9,-4,-22,-27
1499875918356734,-9,-66,5,-5,-15,-2,1,-27
1499875918356734,-12,72,-4,3,8,2,-7,-19
1499875918365716,10,8,22,16,21,-2,-11,-12
1499875918365716,-1,-81,0,15,-4,2,14,58
1499875918380717,23,87,16,27,9,1,2,-3
1499875918380717,-6,29,-9,-1,12,-3,-2,16
1499875918382717,-16,-31,-13,-29,-19,-2,-4,-1
1499875918382717,22,59,12,25,-34,-3,2,-9
1499875918402724,-20,102,23,-21,18,3,4,23
1499875918402724,0,-64,-7,18,11,-6,5,23
1499875918404732,0,26,5,24,3,2,-2,2
1499875918404732,14,104,25,16,7,-1,-2,-8
1499875918416720,1,-10,-8,-40,-27,1,9,29
1499875918416720,-2,26,8,0,-21,-1,-13,-30
1499875918425718,10,-74,-2,17,18,5,21,50
1499875918425718,-19,-14,-3,-17,8,-2,-9,-60
1499875918440720,26,61,24,19,-6,-2,-4,-9
1499875918440720,-17,-15,-9,18,-6,-3,6,5
1499875918442719,16,57,-5,-44,19,6,9,7
1499875918442719,1,-28,6,-18,-7,-1,-18,-15
1499875918463724,-19,-40,-8,-19,-23,-5,-8,-41
1499875918463724,28,99,28,25,12,-2,-8,24
1499875918464721,-9,-28,-54,33,0,-5,11,27
1499875918464721,-38,-58,-8,-62,-7,-2,-12,-39
1499875918485724,5,21,-11,20,-5,2,-9,-20
1499875918485724,-19,-69,4,-59,-6,-1,6,4
1499875918487723,19,113,21,16,-5,-2,-6,-38
1499875918487723,28,-34,-1,9,-6,2,5,13
1499875918500722,-20,5,-4,13,-8,-3,10,32
1499875918500722,-18,-53,-37,20,3,-3,-17,-18
1499875918502724,11,-38,4,-12,-4,-4,-5,-10
1499875918502724,4,18,2,21,-2,1,20,62
1499875918522724,16,30,19,-6,13,-1,-17,-50
1499875918522724,-14,-71,-23,-20,-16,3,10,1
1499875918524725,0,10,11,-31,-30,-5,5,36
1499875918524725,8,10,-2,4,2,0,-18,-30
1499875918545725,-19,-107,-22,-27,17,1,8,26
1499875918545725,-3,1,8,32,19,4,3,0
1499875918547726,-8,-3,13,15,1,2,-1,-18
1499875918547726,4,38,-14,-5,19,-2,5,37
1499875918559728,9,-61,-3,23,0,-4,-3,6
1499875918559728,-10,-22,-9,-19,-20,3,13,2
1499875918566728,2,69,0,13,-8,4,-4,23
1499875918566728,-23,-100,-20,-18,-1,-8,-11,-21
1499875918582727,7,68,9,-38,15,1,-1,-4
1499875918582727,5,-46,-4,18,-32,-7,12,9
1499875918585729,6,8,-7,-56,4,0,-4,9
1499875918585729,-36,-99,-5,43,25,-9,-27,-32
1499875918605730,-6,-7,8,10,-8,-2,4,8
1499875918605730,10,40,13,8,-5,3,0,-7
1499875918607728,3,-23,-12,31,-1,-5,0,-29
1499875918607728,-5,52,-1,-55,-6,4,3,31
1499875918619740,4,93,30,-1,-16,-4,-2,1
1499875918619740,-13,-57,-10,-3,-8,-4,-7,-21
1499875918626730,23,114,21,18,13,6,18,11
1499875918626730,-10,-64,-30,-8,-31,-4,-11,-20
1499875918641732,-11,-81,0,20,47,1,-6,-12
1499875918641732,0,12,-8,-20,7,-5,-12,3
1499875918650732,4,64,19,15,20,3,-4,-16
1499875918650732,6,33,11,11,-20,5,25,27
1499875918665733,11,-28,-7,3,-9,-4,-10,-34
1499875918665733,-15,-15,-2,10,-3,3,-4,-10
1499875918667732,4,-15,19,-31,-15,-3,-8,-32
1499875918667732,-17,-8,-24,1,7,-1,5,10
1499875918679734,13,13,-6,43,5,5,18,55
1499875918679734,-3,0,4,-41,-9,-8,-25,-44
1499875918686737,-14,-9,-3,6,-19,-5,-7,-21
1499875918686737,7,15,14,-11,-25,0,9,26
1499875918702737,-1,11,-6,40,24,2,0,19
1499875918702737,2,30,6,21,-2,-4,-10,-12
1499875918704735,-1,59,9,-33,-2,1,-3,1
1499875918704735,3,-61,2,25,8,2,1,-20
1499875918725735,-5,11,1,-13,-4,7,27,94
1499875918725735,25,74,-2,13,-10,-3,0,-49
1499875918727745,-19,-40,-18,-82,-28,-1,-20,-10
1499875918727745,19,50,19,44,63,4,6,-4
1499875918739736,-12,61,-5,0,-12,-5,0,-7
1499875918739736,13,15,2,7,0,3,16,45
1499875918746739,3,-79,-8,43,6,-3,-5,23
1499875918746739,14,49,2,-35,-9,-4,-2,9
1499875918762738,0,37,10,1,-3,-2,-3,-22
1499875918762738,-9,30,-4,-5,-20,-1,1,21
1499875918764738,-8,-22,-14,31,23,-3,5,-10
1499875918764738,-2,16,6,18,0,1,-5,-40
1499875918785740,12,-6,-5,8,-61,2,10,11
1499875918785740,-18,-58,-27,-44,60,-1,-34,-33
1499875918787739,-4,4,-2,14,7,3,3,6
1499875918787739,-17,-67,-1,-35,-8,2,3,20
1499875918799741,13,-16,14,18,-12,-8,-6,1
1499875918799741,13,5,-9,-15,-31,-1,0,-25
1499875918808741,-26,-54,-10,15,21,-4,-11,-4
1499875918808741,-7,-11,-1,9,-15,-1,2,17
1499875918822742,-7,-17,-24,-21,13,1,-9,-50
1499875918822742,4,18,11,19,7,4,19,25
1499875918824750,9,35,-8,-22,-9,-5,-9,-35
1499875918824750,-6,-12,1,34,-24,-1,3,14
1499875918845745,6,2,-3,7,56,5,-8,9
1499875918845745,-17,-27,-10,-57,-16,-4,-6,-32
1499875918847744,10,-2,-4,-14,-12,0,6,7
1499875918847744,-9,41,9,32,8,-3,-4,-13
1499875918859746,12,-12,-7,-25,-16,1,13,38
1499875918859746,5,31,11,29,5,3,5,16
1499875918866746,-6,-22,-12,4,-41,-5,10,16
1499875918866746,2,0,-27,-25,50,8,-5,-38
1499875918882746,9,-39,14,14,-10,-4,-8,0
1499875918882746,-41,-53,-17,-23,-3,-3,4,13
1499875918884745,14,107,20,-9,-12,1,-3,11
1499875918884745,12,-16,5,6,13,-5,2,36
1499875918912747,7,36,-5,-9,-10,1,-3,-25
1499875918912747,-9,-20,4,40,13,-1,6,15
1499875918920748,20,29,9,-35,-14,-1,-3,-8
1499875918920748,-24,-52,-23,-37,-20,-3,-2,1
1499875918921749,10,49,-3,-3,15,-2,3,5
1499875918921749,7,11,3,15,-10,-3,-8,-36
1499875918926750,-3,-27,6,23,23,-2,-2,31
1499875918926750,25,73,28,-4,-35,-2,-2,-10
1499875918943762,-37,-38,-14,-20,10,0,-13,-45
1499875918943762,13,100,4,-11,19,6,8,16
1499875918944748,-4,-52,0,30,15,3,-2,-13
1499875918944748,8,-11,-14,-19,-10,-2,12,45
