timestamp,emg1,emg2,emg3,emg4,emg5,emg6,emg7,emg8
1499879113520537,1,6,-12,17,-3,0,7,12
1499879113520537,0,1,12,33,4,2,1,-1
1499879113520537,-3,-10,4,-50,-1,-3,-1,-6
1499879113520537,-13,-9,-16,6,-7,-1,1,-12
1499879113524584,17,5,8,1,2,1,0,0
1499879113524584,0,28,9,-2,0,1,-9,-1
1499879113525587,27,15,-21,26,3,-1,4,4
1499879113525587,-18,0,29,-36,-1,0,-7,-5
1499879113532564,-2,-57,-19,47,-11,-3,16,14
1499879113532564,-28,-47,-23,-89,-23,-16,-13,-10
1499879113539578,-6,4,-18,-43,4,4,3,-1
1499879113539578,32,35,-3,17,10,3,5,23
1499879113554577,-27,-7,-21,0,-2,-1,-7,-43
1499879113554577,-4,-40,-6,-4,-1,-4,2,42
1499879113560580,-7,32,19,78,-9,-4,-10,-10
1499879113560580,12,-10,-4,-25,4,4,-3,-24
1499879113572583,9,66,24,38,-1,-1,-9,13
1499879113572583,1,-14,-1,-60,-2,-1,-2,-37
1499879113592546,-16,-20,7,-12,1,0,5,32
1499879113592546,38,114,65,50,6,9,28,-3
1499879113593545,-18,-47,-39,-15,3,1,1,67
1499879113593545,8,50,-27,14,-4,-11,-43,-37
1499879113639549,-1,53,15,-43,0,3,7,-3
1499879113639549,5,30,7,-26,-11,-1,18,24
1499879113639549,-17,-77,-4,-12,8,0,-5,15
1499879113639549,14,95,48,13,16,11,6,-3
1499879113640565,0,-59,-46,33,-9,-9,-7,-17
1499879113640565,-23,-93,-8,-84,1,3,-8,-38
1499879113643589,20,70,-12,26,0,-1,8,16
1499879113643589,14,21,6,0,-31,-13,-10,-35
1499879113652550,-16,-8,60,74,17,7,-16,2
1499879113652550,55,109,6,13,-6,4,7,43
1499879113658579,-11,-1,12,17,71,14,10,-5
1499879113658579,-2,-8,-52,-12,-3,2,31,40
1499879113674553,-8,8,-13,-26,-19,-8,-7,-3
1499879113674553,-33,-65,-15,-3,-21,-8,-11,-6
1499879113680587,8,5,14,7,-5,-6,-21,-19
1499879113680587,-5,-18,-15,18,7,1,16,42
1499879113689553,50,79,28,16,-30,-3,-3,-43
1499879113689553,24,-41,-8,16,29,12,26,57
1499879113711594,-42,114,-15,-86,-38,-19,-19,-27
1499879113711594,42,-25,-6,1,18,-3,-16,34
1499879113713560,-69,-68,-16,-16,-8,-1,16,-51
1499879113713560,105,127,44,-21,-22,-10,-28,-28
1499879113725584,-65,-120,-87,-7,-6,-7,12,28
1499879113725584,-12,76,83,-9,-57,-10,-12,-30
1499879113734592,-65,-81,-58,-12,36,9,5,2
1499879113734592,46,127,7,59,6,-15,-11,-3
1499879113749630,39,-70,-6,-58,-19,18,24,-1
1499879113749630,-40,44,-17,-24,-5,-5,-2,42
1499879113750564,68,92,12,-6,4,-5,-26,-5
1499879113750564,-48,-124,21,8,20,7,14,-14
1499879113771599,25,-57,12,76,9,9,11,46
1499879113771599,-44,-52,-18,-16,-52,5,19,1
1499879113773555,4,23,32,48,75,1,-14,46
1499879113773555,3,-35,1,-71,-30,0,43,79
1499879113786599,34,127,11,2,-39,-21,-88,-87
1499879113786599,28,-62,12,10,63,19,21,-12
1499879113793599,-19,-55,19,23,6,-1,-3,60
1499879113793599,33,67,-46,-1,-88,-17,1,-34
1499879113809621,-66,9,14,8,86,12,-33,-51
1499879113809621,15,-29,33,53,-36,-7,-11,-30
1499879113810580,13,64,-15,0,41,4,6,35
1499879113810580,7,44,-15,28,7,7,13,95
1499879113831596,60,12,32,29,-78,-20,-25,-78
1499879113831596,-81,15,-31,-61,97,17,-9,26
1499879113833590,22,-73,-110,-59,-34,-9,12,21
1499879113833590,-52,32,37,13,-1,9,20,-24
1499879113846624,-6,-95,14,27,30,-9,14,51
1499879113846624,48,7,11,47,-27,-3,-24,-11
1499879113853600,-14,-22,31,-65,-19,-2,29,23
1499879113853600,-33,17,-7,27,37,2,-31,-63
1499879113869602,-3,121,-41,-38,-22,6,30,38
1499879113869602,-36,-43,-11,-38,-18,-19,0,6
1499879113871560,30,91,53,9,-10,11,28,7
1499879113871560,-40,-45,-16,77,7,-9,-53,-81
1499879113891605,19,85,34,-23,4,5,11,13
1499879113891605,28,-79,-1,20,20,4,5,48
1499879113893561,-34,-6,8,-31,-38,-14,-37,-46
1499879113893561,24,7,-6,-62,-3,3,21,39
1499879113906619,-58,-22,-18,27,16,2,-6,-5
1499879113906619,17,63,7,-33,-1,0,11,-30
1499879113913572,-12,-26,-7,7,-9,2,-23,-22
1499879113913572,5,-1,-8,42,28,3,-4,23
1499879113929574,20,-4,45,-6,-30,-5,18,27
1499879113929574,-28,-64,4,56,20,7,0,11
1499879113930563,33,46,-18,-32,-29,-7,-1,14
1499879113930563,-34,-40,-34,-1,-5,-4,-10,-43
1499879113951610,48,-4,-17,-33,-12,8,17,51
1499879113951610,-25,-26,4,-34,-40,-12,-23,-62
1499879113953564,35,117,27,36,50,12,60,65
1499879113953564,-66,-93,24,32,-15,-18,-60,-71
1499879113966609,4,-75,-60,-81,7,-3,-7,46
1499879113966609,41,28,-25,31,-18,-4,1,5
1499879113973577,-7,-26,53,-7,-12,-2,0,3
1499879113973577,1,36,-78,-19,7,-2,-3,15
1499879113989629,6,35,37,71,4,10,35,-34
1499879113989629,-17,78,-19,-20,-9,-13,-38,-36
1499879113990569,21,-20,-26,6,-20,-5,-14,6
1499879113990569,-12,4,53,-52,1,6,14,6
1499879114011614,-10,-33,-7,22,5,2,-1,-1
1499879114011614,12,5,-16,-95,55,3,16,27
1499879114013603,3,38,26,45,-87,-6,15,-27
1499879114013603,-42,-119,27,1,61,7,-9,-4
1499879114025610,30,62,-33,-11,4,2,-4,1
1499879114025610,-22,47,13,20,14,0,-7,-50
1499879114034594,-6,-44,-50,2,-39,-6,-19,7
1499879114034594,26,37,4,-24,1,4,30,14
1499879114049637,-5,-7,18,27,-48,0,42,44
1499879114049637,-28,63,31,-4,81,-7,-67,-53
1499879114050570,-60,-66,-42,13,-9,-3,1,-17
1499879114050570,-31,41,-13,18,-24,-5,-27,-58
1499879114071616,-24,-7,84,-46,-13,-8,-13,6
1499879114071616,17,18,-59,55,26,7,20,-6
1499879114073572,0,15,-31,-15,22,10,20,27
1499879114073572,9,-32,25,-4,3,1,-11,-1
1499879114085638,-38,-94,-10,36,-65,-19,-1,-19
1499879114085638,18,-19,1,-29,3,14,25,33
1499879114094598,50,93,-2,-25,27,-4,-26,-7
1499879114094598,-9,-7,-30,38,-15,5,14,35
1499879114109647,-15,15,23,-4,3,-5,-16,-22
1499879114109647,3,-24,20,79,12,-5,25,44
1499879114110574,-5,-16,-62,-91,8,5,19,16
1499879114110574,9,91,24,73,13,0,-27,-76
1499879114131616,-42,-50,2,12,50,2,-1,23
1499879114131616,12,77,-6,11,-10,6,-9,-33
1499879114133575,-7,-8,-31,-35,-29,-15,-26,-22
1499879114133575,-18,-86,15,-84,-36,-5,14,36
1499879114145620,36,80,0,29,5,5,20,33
1499879114145620,-58,-113,-4,-14,35,0,4,-2
1499879114154592,-7,40,25,38,16,10,20,3
1499879114154592,56,73,-2,-10,-5,-1,-3,-1
1499879114169626,-29,-26,24,32,4,-3,-36,-80
1499879114169626,31,-7,2,-22,-81,-5,8,17
1499879114171578,10,-36,60,73,72,5,-24,-47
1499879114171578,-31,-53,-79,-51,62,5,11,15
1499879114191624,20,61,12,-13,-31,-1,-6,0
1499879114191624,-5,-41,-3,10,-3,-9,-11,-8
1499879114193578,19,-21,-15,4,-48,-9,-1,29
1499879114193578,1,32,-9,-32,28,3,7,-2
1499879114205645,34,25,-1,5,19,6,16,-14
1499879114205645,10,19,-13,27,-34,-10,-7,6
1499879114214583,6,61,16,-52,30,11,-5,-22
1499879114214583,2,-111,32,-18,-9,-7,-4,48
1499879114229621,-13,-44,-128,-32,-2,-3,7,-28
1499879114229621,57,64,3,12,0,1,13,-11
1499879114230595,-60,-70,23,27,-14,-2,17,53
1499879114230595,21,75,14,82,-14,2,-25,-22
1499879114251656,-4,-21,34,-101,13,-4,-19,-7
1499879114251656,2,-58,-3,18,-37,-6,12,21
1499879114253582,1,50,27,20,-1,-5,-17,-54
1499879114253582,-12,-19,60,-5,-32,-3,6,31
1499879114265649,53,74,7,95,30,5,21,20
1499879114265649,-17,-21,-70,-82,-26,3,-3,42
1499879114274599,-16,-17,-1,-1,35,-1,4,-63
1499879114274599,12,28,-61,-7,-50,-9,-2,15
1499879114289594,-4,-35,-16,10,5,-4,-10,-16
1499879114289594,0,85,92,15,-9,3,-8,-2
1499879114290597,12,-55,-64,-61,-11,3,13,12
1499879114290597,21,-4,-25,44,14,-6,-4,24
1499879114311628,-39,8,-31,-44,-3,-6,-17,-31
1499879114311628,33,22,8,26,23,-3,-4,7
1499879114313620,-6,-27,36,14,-23,-1,10,27
1499879114313620,-22,-8,26,-12,9,1,-20,-75
1499879114325630,-2,-3,14,-1,11,14,20,15
1499879114325630,1,8,-32,-23,-19,-4,-19,-6
1499879114334588,-4,-58,-36,-34,-32,-11,15,64
1499879114334588,9,26,6,72,37,2,-11,-71
1499879114349629,10,-36,-7,-11,-61,-5,26,100
1499879114349629,-22,-13,39,-11,49,0,-32,-42
1499879114350593,20,65,37,46,22,7,-2,-7
1499879114350593,-17,-43,-25,25,-1,-2,7,22
1499879114371633,-4,-29,13,-46,6,1,-6,-3
1499879114371633,1,59,-21,26,-23,-4,20,-12
1499879114373588,8,-53,18,27,-15,-5,-40,-2
1499879114373588,-7,9,3,-32,6,0,17,23
1499879114385589,35,91,54,58,-79,-9,6,45
1499879114385589,-28,-33,-68,-84,71,26,9,-29
1499879114394590,26,-1,-32,9,-14,-3,-22,-36
1499879114394590,-8,11,31,-9,-36,1,15,33
1499879114410629,-1,-56,-2,-9,-10,-3,-13,-31
1499879114410629,-3,-7,14,25,-18,-5,7,21
1499879114415664,-1,96,26,19,19,1,0,-24
1499879114415664,9,-58,-30,-1,15,6,17,39
1499879114431631,-6,-5,-15,-2,23,-6,-15,-43
1499879114431631,2,12,27,10,-19,-5,2,4
1499879114438623,0,86,12,-29,17,1,13,-20
1499879114438623,10,17,-14,10,5,-4,-13,68
1499879114454605,-26,-95,-33,31,62,11,1,8
1499879114454605,-9,-33,-20,-9,-17,-8,-10,-6
1499879114455595,-7,-5,-15,2,-28,-3,13,21
1499879114455595,10,46,20,-39,-16,-3,12,-15
1499879114469656,-1,13,-38,10,23,1,-11,-12
1499879114469656,29,16,41,-36,-27,2,32,66
1499879114470595,-53,-76,-18,-10,-19,-14,-20,-88
1499879114470595,79,49,-2,-23,-36,2,-19,2
1499879114491596,-62,-13,30,19,92,-2,-21,-4
1499879114491596,7,-4,-30,10,-42,-5,-11,-3
1499879114493608,3,-16,8,-2,21,3,9,16
1499879114493608,-8,-3,-31,-36,-26,-3,14,-1
1499879114514633,-4,-1,3,33,-28,-4,-4,1
1499879114514633,3,-8,16,-74,-35,-2,15,24
1499879114515599,19,35,28,40,33,13,27,30
1499879114515599,-18,-1,8,-2,-22,1,-13,-46
1499879114529642,22,0,15,2,10,0,4,25
1499879114529642,-29,-21,8,21,18,1,3,-16
1499879114530598,5,26,-31,22,-4,3,2,35
1499879114530598,-7,26,28,40,33,-3,-15,-35
1499879114551638,-18,-5,12,-64,-9,-5,-4,-4
1499879114551638,-4,-31,1,35,-25,-10,-6,-17
1499879114553632,1,-2,24,-18,2,-4,-1,30
1499879114553632,17,51,-12,59,30,7,19,20
1499879114574662,-13,-45,3,-80,-19,-3,9,-29
1499879114574662,4,2,-46,10,25,0,-20,14
1499879114575602,14,5,16,12,-6,2,-6,5
1499879114575602,-50,-62,-33,-15,4,-11,-7,12
1499879114588645,14,57,22,26,-48,1,20,9
1499879114588645,-25,-54,10,5,8,-5,3,-38
1499879114595669,3,-32,-19,-58,31,-1,-14,20
1499879114595669,-4,-5,50,1,-22,-4,1,-8
1499879114610642,9,43,-5,60,-11,-3,-14,12
1499879114610642,-1,47,3,-52,22,18,68,-13
1499879114619640,-18,-94,-52,-18,-40,-16,-61,-22
1499879114619640,-2,19,-28,-6,62,6,0,-4
1499879114634651,-11,-18,13,1,-26,-4,0,1
1499879114634651,26,48,22,31,8,11,2,23
1499879114635616,-4,0,27,-24,-24,-4,26,30
1499879114635616,13,-19,-8,-55,15,4,-8,-38
1499879114656650,5,4,-33,44,16,1,27,21
1499879114656650,-21,-38,-33,46,-19,-14,-71,-61
1499879114658606,12,-2,-5,-38,-31,-4,-11,-26
1499879114658606,-14,-19,19,19,20,4,15,28
1499879114670645,10,8,2,-46,-17,-2,-9,5
1499879114670645,-8,-1,-61,-54,14,0,3,-5
1499879114679607,-3,18,65,38,44,1,6,19
1499879114679607,10,39,-50,-13,-49,0,38,47
1499879114694670,-10,-75,-2,22,9,-1,-40,-82
1499879114694670,-7,-16,-16,-2,-72,-17,-36,-20
1499879114696609,-4,6,10,1,79,3,-17,-44
1499879114696609,20,57,19,1,-13,-1,18,38
1499879114716654,25,-51,-19,-38,10,7,-6,13
1499879114716654,-33,-11,30,61,-9,-3,10,26
1499879114718618,11,29,2,-39,-17,4,16,6
1499879114718618,-9,-23,35,54,-28,-9,-19,-14
1499879114730628,-5,-30,-53,-16,-11,3,22,30
1499879114730628,21,-39,48,20,-19,2,18,10
1499879114739610,12,82,-35,-34,5,-10,-57,-19
1499879114739610,-37,-107,-8,28,53,10,8,-15
1499879114754679,17,70,12,30,-53,-7,-6,38
1499879114754679,-17,58,-15,-28,34,0,-6,-16
1499879114755612,-33,-8,4,-40,-6,11,29,9
1499879114755612,21,-19,24,-12,-55,-9,-12,-25
1499879114776657,18,1,15,19,52,6,22,44
1499879114776657,18,-41,-21,7,-21,-6,-12,-1
1499879114778613,-18,0,0,74,-20,0,1,1
1499879114778613,-16,-6,36,-77,0,-4,-18,-60
1499879114790626,-1,-25,-34,-11,-40,-3,8,-4
1499879114790626,10,31,13,-25,65,8,13,46
1499879114799647,-8,-30,22,12,-57,-6,-3,-57
1499879114799647,-24,-37,-50,-26,41,-8,2,34
1499879114814650,-17,36,33,-11,-27,-1,-15,-57
1499879114814650,18,17,-11,-9,-9,-9,-25,17
1499879114815626,-14,-39,6,35,34,5,9,10
1499879114815626,20,36,8,-3,-47,-6,-12,3
1499879114836628,-26,-28,-1,8,42,-5,-19,-43
1499879114836628,-7,20,0,10,-15,-6,-4,26
1499879114838618,19,-33,-9,-12,6,7,12,34
1499879114838618,-1,84,17,2,36,12,4,-15
1499879114850653,-15,-26,19,-27,5,0,7,-3
1499879114850653,4,-18,1,66,3,-6,-6,-17
1499879114859619,6,41,-42,9,-9,-4,8,19
1499879114859619,8,-37,3,0,-18,3,20,16
1499879114874619,7,28,-48,14,-2,-2,-27,-22
1499879114874619,-16,2,6,23,20,-2,-3,24
1499879114875618,15,10,-51,50,34,-1,-5,-38
1499879114875618,4,23,6,-13,-39,1,-5,21
1499879114896678,1,47,48,31,21,0,5,-18
1499879114896678,-14,-19,-9,-93,-26,-1,13,12
1499879114898622,-11,-17,1,77,4,-5,-30,-44
1499879114898622,4,17,-19,20,-3,-3,-13,-6
1499879114910659,3,-52,-13,-11,-78,-10,2,34
1499879114910659,4,8,24,-8,63,24,36,-5
1499879114919655,-2,36,5,20,24,-2,-9,-16
1499879114919655,7,-23,26,48,-46,-9,18,41
1499879114933688,-19,-39,-27,-92,37,-3,-43,-36
1499879114933688,21,50,8,40,8,4,12,29
1499879114940661,-23,-83,37,12,-31,-3,16,20
1499879114940661,-14,25,-9,40,-43,-2,-23,-78
1499879114956669,18,57,-16,30,56,5,19,6
1499879114956669,-7,-9,-11,2,-20,-1,-13,-36
1499879114958623,-2,-31,-8,-7,20,3,19,10
1499879114958623,6,34,20,-34,-62,-12,-7,-10
1499879114979687,-6,68,-1,29,73,10,11,23
1499879114979687,-12,-11,6,-54,-21,-4,-29,-59
1499879114980635,51,83,34,1,-51,-4,9,54
1499879114980635,-27,-40,-53,-9,6,5,10,-2
1499879114994692,-16,-24,-21,8,-29,-11,2,-31
1499879114994692,17,27,41,66,32,-2,2,40
1499879114996635,-34,-11,2,-77,-34,-1,-1,-4
1499879114996635,14,-47,-2,27,84,1,-6,-23
1499879115016668,8,12,-32,-48,9,5,14,17
1499879115016668,20,27,26,-16,31,-3,10,28
1499879115018642,-6,-5,-48,25,-32,-4,-6,-3
1499879115018642,-15,-17,-6,11,29,8,-6,-8
1499879115039694,-7,7,58,-3,-41,-1,9,30
1499879115039694,9,-10,-48,-19,-16,-6,-3,-20
1499879115040628,19,39,-1,31,25,7,11,10
1499879115040628,-16,-78,-29,-33,-8,-9,4,7
1499879115054644,22,43,45,17,10,-4,-31,-40
1499879115054644,-12,-12,26,-18,-64,-6,17,1
1499879115056630,-21,-34,-15,-28,25,-8,-44,-59
1499879115056630,-14,-4,1,-5,-18,0,-15,2
1499879115076630,7,-19,-7,16,16,5,12,20
1499879115076630,-18,3,30,-11,-12,-3,-7,-18
1499879115078631,20,28,-65,24,-15,-1,16,12
1499879115078631,8,-14,68,-59,-19,-4,3,29
1499879115099697,3,-4,-56,-14,39,2,9,23
1499879115099697,-3,-15,-12,25,-21,4,-13,-67
1499879115101636,-25,-11,-3,-34,9,-4,8,19
1499879115101636,24,60,-4,-32,-36,-8,-2,23
1499879115113692,8,-2,11,12,34,3,-14,-41
1499879115113692,8,53,2,53,-50,8,15,0
1499879115120634,-27,-71,-7,19,53,-2,-20,-7
1499879115120634,3,37,-32,-1,41,1,-15,-13
1499879115136672,1,3,-11,-84,-59,-5,11,15
1499879115136672,9,58,-4,-10,-5,-3,6,24
1499879115138634,6,-34,-3,-1,10,3,1,-5
1499879115138634,0,25,30,39,23,6,31,51
1499879115159701,-31,-39,-54,17,-27,-8,-22,-28
1499879115159701,0,-22,57,-42,-9,-8,-13,-5
1499879115160646,18,47,30,-5,-24,4,18,17
1499879115160646,-13,-41,-6,36,35,2,-25,-7
1499879115173701,5,14,27,13,-23,4,11,18
1499879115173701,-18,-89,-22,7,-23,-11,-13,10
1499879115180647,-4,-8,-22,-77,21,-6,-21,-55
1499879115180647,-5,23,29,5,1,-4,-4,0
1499879115196705,7,41,-7,21,-4,-2,-5,4
1499879115196705,-15,-83,-24,7,25,0,0,-9
1499879115198639,9,5,2,-2,-30,-4,8,21
1499879115198639,-6,10,-10,-4,43,-1,1,-18
1499879115219664,29,45,15,1,26,4,16,25
1499879115219664,-29,-77,-33,-2,-33,-3,-10,15
1499879115220638,13,23,34,-31,20,4,10,18
1499879115220638,8,32,4,26,-20,-1,-21,-26
1499879115233702,-16,-58,13,-28,-13,-4,6,20
1499879115233702,11,-20,-36,1,68,7,-17,-39
1499879115240677,-2,18,39,31,-23,1,1,13
1499879115240677,-4,-17,-30,-34,-14,0,9,-17
1499879115256701,-3,18,13,36,-52,-4,-19,-5
1499879115256701,4,16,-12,5,63,1,13,13
1499879115258645,20,17,21,-10,12,4,19,-5
1499879115258645,-11,-62,13,-20,-35,-12,-16,16
1499879115279708,1,9,-15,24,-1,-2,-20,-59
1499879115279708,-4,27,-7,6,-9,-4,-5,3
1499879115280644,-2,-3,-2,60,-16,2,7,12
1499879115280644,3,10,-48,-66,-22,-2,10,-19
1499879115293686,-5,-7,20,5,34,-5,4,18
1499879115293686,9,19,-18,-12,-8,2,5,1
1499879115307710,-9,-33,-19,12,8,-5,21,4
1499879115307710,12,19,2,43,40,1,-32,-22
1499879115316710,-6,-36,13,-15,5,12,15,19
1499879115316710,40,61,-8,17,-53,-3,-1,9
1499879115318643,-50,-90,-15,-29,9,-12,-35,-47
1499879115318643,20,33,-14,10,32,12,26,43
1499879115339689,-23,-22,34,19,-38,-12,-7,-21
1499879115339689,5,21,-26,-60,59,12,19,36
1499879115340678,11,29,27,-39,-78,-6,-20,2
1499879115340678,-1,3,7,-12,41,-1,-2,0
1499879115353712,8,36,-27,30,-27,-3,-5,-8
1499879115353712,-6,-32,50,33,34,1,8,18
1499879115360687,9,12,13,-37,-25,1,12,23
1499879115360687,-11,-78,-49,4,-19,-5,-14,-29
1499879115376691,3,14,3,-14,13,-1,8,21
1499879115376691,-19,-2,0,-37,-28,-6,-3,-4
1499879115378648,-12,19,11,36,-6,0,-3,17
1499879115378648,14,31,24,47,60,8,29,10
1499879115399715,9,-19,13,-3,-40,-7,2,-13
1499879115399715,-3,3,-38,-50,7,5,-10,-16
1499879115400682,12,-10,5,17,47,2,1,-35
1499879115400682,-8,36,-32,23,-29,1,6,2
1499879115413692,6,4,23,-11,-44,-5,6,14
1499879115413692,5,-35,23,55,50,-1,-11,-12
1499879115420686,-29,-11,-50,9,-12,-8,-12,-1
1499879115420686,-10,-40,-12,-40,-2,5,18,-7
1499879115436721,5,17,7,32,31,3,-8,-8
1499879115436721,3,10,3,-9,-46,-4,1,22
1499879115438650,-9,46,-5,-18,0,-6,-23,-28
1499879115438650,-4,-21,7,-16,-43,-2,-7,7
1499879115459664,2,28,-16,6,36,4,-7,-13
1499879115459664,-6,5,8,16,8,-7,2,15
1499879115460653,3,-9,-24,8,-12,2,-1,20
1499879115460653,2,31,21,-24,23,0,19,-32
1499879115473656,-12,-22,15,34,5,0,9,60
1499879115473656,-24,-41,-69,-65,6,2,-30,-59
1499879115482654,3,9,32,-1,5,2,0,0
1499879115482654,6,12,34,43,-38,-7,-3,24
1499879115496721,-2,-21,-55,-42,-12,-1,6,2
1499879115496721,20,53,14,41,9,-6,14,-27
1499879115498654,-5,4,-7,20,-30,2,8,15
1499879115498654,-11,-6,30,42,38,4,14,38
1499879115519722,-18,-20,-14,-30,6,-5,-34,-73
1499879115519722,1,-5,42,13,-23,-3,-10,-11
1499879115520656,33,68,9,22,5,5,-8,-15
1499879115520656,-24,-41,-21,10,-17,-1,-3,20
1499879115532719,12,-24,-17,-53,-5,-7,-9,-4
1499879115532719,-9,-17,18,-1,-8,5,19,12
1499879115541688,6,-23,35,10,22,-3,5,7
1499879115541688,-6,22,-3,-8,-14,-3,-8,-11
1499879115556698,11,40,2,67,37,7,19,-3
1499879115556698,-5,43,36,18,-39,-11,-33,-17
1499879115558668,-1,-39,-23,-43,-2,3,-1,9
1499879115558668,6,21,-60,-79,0,-5,-2,-21
1499879115579721,2,-17,17,13,-4,1,-12,26
1499879115579721,9,42,1,0,-62,-5,14,28
1499879115580659,3,10,39,46,72,9,6,-19
1499879115580659,-1,-108,-11,-6,-14,0,26,40
1499879115593670,-33,-8,-29,25,6,4,-8,-43
1499879115593670,17,5,16,-79,-3,-8,0,-10
1499879115601691,-25,-51,-20,-12,-44,-8,-20,-12
1499879115601691,17,29,1,38,14,1,-5,0
1499879115616694,6,0,57,-61,37,3,23,41
1499879115616694,-16,-26,-4,26,0,3,11,4
1499879115618673,8,-8,-47,-34,-1,1,23,27
1499879115618673,7,50,2,-21,-20,-6,-26,-27
1499879115639725,-9,-26,10,9,-29,-1,-6,4
1499879115639725,-19,-18,-1,17,45,1,-28,-41
1499879115640664,18,57,13,-24,-3,3,17,21
1499879115640664,8,-4,0,-7,-21,-2,7,9
1499879115652728,5,-10,-1,23,0,-6,-4,19
1499879115652728,14,-7,16,17,26,2,0,-3
1499879115661698,-8,16,-71,-68,-15,1,7,24
1499879115661698,5,-3,20,30,7,0,4,8
1499879115676709,-8,26,0,-35,24,-2,-17,-40
1499879115676709,11,17,-11,-23,-21,-3,5,-6
1499879115678704,-5,-7,10,13,0,-3,-8,-13
1499879115678704,-23,-4,-32,-54,15,-1,-10,-2
1499879115699733,13,12,-34,-14,-12,-1,24,32
1499879115699733,-1,1,-8,36,10,3,1,5
1499879115700666,13,-13,20,19,-13,-3,-6,-17
1499879115700666,-19,-20,38,22,-15,-6,-22,3
1499879115712733,-4,6,-13,1,22,4,12,14
1499879115712733,-1,-10,0,1,-33,-7,4,38
1499879115722668,6,34,-6,-26,21,7,0,-50
1499879115722668,3,11,36,4,14,3,9,-11
1499879115736712,-11,4,20,-2,-2,-5,-28,-34
1499879115736712,-11,-26,-13,-3,-22,-1,22,26
1499879115738680,7,-18,13,38,-19,0,4,9
1499879115738680,-9,7,-9,-22,-4,-7,-34,-21
1499879115759709,-3,9,-9,26,-17,-4,5,3
1499879115759709,5,-31,-65,-9,3,8,3,12
1499879115760679,-11,-3,-15,18,24,-7,-3,17
1499879115760679,0,13,35,12,-48,-4,-1,-23
1499879115772738,10,12,-2,-49,47,8,24,32
1499879115772738,-5,30,21,37,23,-5,15,17
1499879115782670,6,22,6,28,-27,-5,-13,-22
1499879115782670,2,4,-10,-12,5,2,-4,4
1499879115796716,5,22,-27,39,-17,-2,-7,-2
1499879115796716,19,9,45,-8,25,11,28,31
1499879115798674,-32,-55,-46,-59,-9,-11,-38,-29
1499879115798674,-5,5,3,36,-13,-6,1,14
1499879115826732,33,25,16,-31,42,9,17,42
1499879115826732,-11,-33,-12,-10,-27,-5,-30,-45
1499879115828673,1,-25,-1,25,27,1,13,27
1499879115828673,-8,-16,-24,0,12,-2,-9,-21
1499879115832686,-7,-11,16,41,1,-5,-19,-2
1499879115832686,-5,10,30,-36,-28,-5,-11,-36
1499879115841686,1,-10,7,-20,27,2,15,16
1499879115841686,3,-12,-29,-20,-15,0,17,47
1499879115856686,0,0,-19,16,27,-3,-13,-19
1499879115856686,-9,-1,5,22,-7,1,-3,9
1499879115862690,-6,46,51,20,-6,-2,-2,-19
1499879115862690,21,-22,-11,-23,8,6,20,-11
1499879115879709,-18,-23,1,34,-40,-5,-13,-33
1499879115879709,-5,14,29,-24,23,0,-12,-16
1499879115880677,4,-35,-27,-60,-45,-3,7,27
1499879115880677,-11,-41,-14,25,27,-2,1,-4
1499879115901689,-1,-38,-14,-38,-20,0,14,9
1499879115901689,5,28,39,37,22,-7,-25,-23
1499879115903679,6,-17,5,-10,14,8,-4,-10
1499879115903679,7,49,5,-4,7,-3,-11,-27
1499879115916692,-10,-35,-17,-33,-41,-3,6,-6
1499879115916692,-3,2,-5,23,11,-2,4,9
1499879115918681,-3,30,11,36,7,-1,1,-2
1499879115918681,19,28,27,17,3,0,-8,6
1499879115939681,-4,-55,-36,-30,-19,-5,21,32
1499879115939681,5,2,-42,-14,8,0,4,9
1499879115940680,-3,-27,2,-11,-20,1,9,-8
1499879115940680,-2,6,41,6,21,2,-7,-15
1499879115961681,3,30,-50,-4,-12,-5,-4,-2
1499879115961681,-4,-7,-13,-15,-14,0,14,35
1499879115963684,-9,-25,-11,3,-12,-5,-24,-8
1499879115963684,5,20,18,-24,12,4,2,-16
1499879115976692,-7,32,55,49,-26,0,-4,-21
1499879115976692,-4,-28,-58,-18,-11,-2,-5,4
1499879115978683,6,59,14,11,41,4,19,0
1499879115978683,-24,-55,-48,-3,-38,-10,-11,1
1499879115999737,8,16,45,-32,-2,3,-9,-3
1499879115999737,8,3,-29,72,18,1,10,-4
1499879116000686,-12,-6,35,-40,-22,-6,-21,-13
1499879116000686,8,28,10,31,-7,-1,7,-2
1499879116021685,-18,0,-33,-3,5,1,-18,-17
1499879116021685,7,16,58,17,-18,1,4,2
1499879116023686,2,-13,-43,13,-21,-6,4,16
1499879116023686,-4,-22,38,-58,25,3,18,28
1499879116036685,0,0,-41,-11,-2,-11,-18,6
1499879116036685,-9,-68,5,10,-14,-1,-19,-74
1499879116042729,-1,23,-27,-8,30,-1,-4,11
1499879116042729,-6,30,-29,29,13,1,-9,-32
1499879116059751,16,-14,51,-8,1,3,14,18
1499879116059751,-20,-8,-22,-37,27,-4,-13,26
1499879116060689,-4,0,39,27,2,-1,-1,-1
1499879116060689,13,-24,11,4,-13,1,-8,2
1499879116081727,-12,-15,-29,25,5,0,3,-29
1499879116081727,4,17,4,-45,-10,-2,9,33
1499879116083688,6,35,-55,-18,-24,-1,4,-2
1499879116083688,-7,-46,-5,1,3,-4,-7,-2
1499879116096712,-1,4,26,-10,10,1,13,27
1499879116096712,-14,-32,32,9,-34,-8,-34,-62
1499879116103691,21,12,-25,49,-1,4,2,20
1499879116103691,-3,15,-64,-22,5,1,6,-6
1499879116119754,-2,6,53,27,-22,-3,19,47
1499879116119754,-1,-6,-45,-84,18,0,-17,-56
1499879116120691,21,-20,44,16,-2,-1,-3,-3
1499879116120691,-22,7,-6,12,-27,-2,-9,-1
1499879116141736,13,11,35,22,-19,-2,-4,-1
1499879116141736,15,7,1,11,36,6,28,51
1499879116143692,-13,8,-22,-5,-4,-2,-2,-32
1499879116143692,12,20,20,7,4,-2,-5,13
1499879116156716,-21,-21,-32,-4,13,2,10,-12
1499879116156716,24,52,31,76,-28,-10,-6,0
1499879116162692,-4,11,-15,-83,19,5,6,41
1499879116162692,-18,-26,-7,31,-10,-2,-1,0
1499879116179748,17,-7,-35,-58,10,0,-19,-42
1499879116179748,-12,15,24,46,-6,3,6,22
1499879116180695,-1,-25,19,68,-7,-1,21,-3
1499879116180695,-21,8,-27,-95,1,1,-10,9
1499879116201739,10,0,-3,77,-42,-10,2,-2
1499879116201739,-10,-60,-61,-91,26,11,-2,8
1499879116203707,3,37,9,18,9,-4,-1,-2
1499879116203707,1,-59,37,-20,-22,-1,4,0
1499879116215762,-10,-1,1,3,30,0,-5,-13
1499879116215762,-6,5,-27,-20,4,1,17,17
1499879116224709,8,12,39,14,-13,-3,-10,10
1499879116224709,9,17,2,43,-2,-3,15,-22
1499879116254769,2,41,-16,-23,-9,-3,-16,11
1499879116254769,2,19,-14,22,-11,-4,2,-18
1499879116255703,-6,-24,-23,-39,8,3,6,39
1499879116255703,-8,-27,-17,37,-14,-7,-11,-28
1499879116261741,3,11,30,-19,6,2,-3,-22
1499879116261741,1,9,16,19,0,1,10,13
1499879116263733,-9,-21,-9,27,26,5,-2,-31
1499879116263733,15,64,31,5,-7,-1,10,35
1499879116276718,-27,-56,-14,-36,18,-5,-22,-29
1499879116276718,37,0,-70,-13,-3,0,11,23
1499879116282778,-18,-32,49,55,-9,-2,4,-21
1499879116282778,-5,18,-22,-81,13,1,-21,-21
1499879116299781,-2,18,-28,3,3,5,-1,1
1499879116299781,-13,17,42,21,-14,-7,-5,-9
1499879116300702,6,-27,-8,-12,-5,-5,-6,22
1499879116300702,22,49,-28,7,8,7,9,15
1499879116321768,-17,-54,28,-23,-39,-6,0,0
1499879116321768,8,11,-11,14,47,4,5,-15
1499879116323734,-24,12,5,25,-23,-11,-21,-24
1499879116323734,0,-18,5,17,14,9,23,25
1499879116336712,25,-33,-22,-35,-16,-1,-11,33
1499879116336712,-21,-14,4,5,-25,-5,-35,-79
1499879116342763,-16,11,-7,1,29,-1,-6,-12
1499879116342763,-13,0,-14,31,14,1,1,-2
1499879116359771,12,13,19,-10,-30,-3,-1,-3
1499879116359771,-6,13,26,-6,5,-4,-8,12
1499879116360705,-14,-51,-6,-35,13,0,4,5
1499879116360705,34,15,26,50,23,0,7,0
1499879116381744,-20,31,10,-1,34,1,4,-17
1499879116381744,-5,-5,-4,18,-19,-2,-2,24
1499879116383713,15,22,-36,-47,-11,-3,-3,-3
1499879116383713,-5,17,32,83,7,-2,3,11
1499879116395779,-11,-21,-2,-83,-4,4,-2,-35
1499879116395779,-2,-29,-11,-13,-12,-7,-14,-1
1499879116404717,24,45,-2,1,-20,-1,26,51
1499879116404717,-12,-40,7,-5,7,-6,-16,-68
1499879116419775,16,36,45,18,12,1,-9,16
1499879116419775,-1,-11,-23,21,14,1,10,14
1499879116420708,-7,18,-4,-2,-23,1,6,-12
1499879116420708,-21,-45,-19,-48,30,-3,0,10
1499879116441748,-1,9,-23,26,-20,-5,7,11
1499879116441748,8,-1,24,-28,-8,2,4,6
1499879116443718,13,-11,4,6,8,-1,15,48
1499879116443718,-26,2,2,-27,-53,-9,-20,-79
1499879116455718,7,30,-39,53,31,5,0,-10
1499879116455718,-11,-27,-3,-9,-2,1,21,-8
1499879116464712,2,-24,8,-9,31,-4,-21,-20
1499879116464712,13,28,5,-14,-30,-2,-4,51
1499879116479783,-15,-20,-27,6,-4,-3,-1,-25
1499879116479783,3,48,53,17,14,1,14,1
1499879116480712,-4,-51,-2,1,-11,1,-19,-17
1499879116480712,-4,12,-4,-15,1,2,-11,16
1499879116501758,7,1,19,50,3,-2,9,17
1499879116501758,17,37,-14,-9,-8,2,10,19
1499879116503711,-32,-36,11,2,-4,-1,-19,-70
1499879116503711,17,-7,0,0,6,-1,7,14
1499879116515752,3,10,-28,-1,-1,-2,-16,9
1499879116515752,-15,-15,6,5,-3,-5,-25,-15
1499879116531746,15,10,-23,1,5,5,-4,-19
1499879116531746,-3,-42,36,4,-15,-3,15,15
1499879116539764,-1,22,5,-8,-56,-4,11,-4
1499879116539764,-2,-10,-38,29,43,0,-10,24
1499879116540716,1,-13,19,-10,16,0,2,4
1499879116540716,0,18,-7,-28,-23,1,-2,2
1499879116561761,-14,5,14,-18,-9,-1,15,33
1499879116561761,25,8,5,3,-20,-1,9,-21
1499879116563715,5,-26,-7,24,2,0,-2,29
1499879116563715,-6,-19,-31,-1,7,8,-10,-62
1499879116575751,6,8,8,-55,18,-6,-22,-10
1499879116575751,-10,-35,-14,27,-16,1,0,-9
1499879116584753,-8,15,5,-31,-5,-7,-3,-21
1499879116584753,5,24,-59,20,0,-5,7,25
1499879116599795,-7,-5,45,47,37,3,9,6
1499879116599795,-1,-57,-21,-81,-8,-4,-8,-1
1499879116600719,7,45,11,-24,-10,7,23,30
1499879116600719,-9,-8,3,5,-16,-4,-5,-13
1499879116621765,2,-22,2,28,-4,3,5,-18
1499879116621765,-12,11,10,26,-2,-3,-5,-14
1499879116623720,23,5,37,12,3,3,-4,8
1499879116623720,-25,-12,5,-17,-7,-4,5,0
1499879116635762,9,1,-63,10,-16,-3,-2,-9
1499879116635762,-13,6,-3,-26,-7,-5,-4,18
1499879116644734,11,0,-7,21,12,3,32,19
1499879116644734,7,21,28,-7,-12,-1,-10,-29
1499879116658730,2,-16,-11,-35,2,1,-1,14
1499879116658730,-19,18,-39,-37,6,3,0,13
1499879116665762,-4,-53,-7,6,-20,-7,3,-34
1499879116665762,18,14,3,16,23,7,5,17
1499879116681761,-13,-28,39,6,22,-5,2,-10
1499879116681761,-1,7,-43,2,-24,3,-4,10
1499879116683724,-3,-9,25,-8,-20,-8,-10,20
1499879116683724,-5,-23,-47,11,21,1,-11,-46
1499879116695749,9,20,27,16,-8,5,7,2
1499879116695749,-3,2,36,51,14,-4,12,43
1499879116704737,10,-8,-51,-46,10,4,1,-20
1499879116704737,-6,8,18,16,-13,-7,-6,31
1499879116719766,-7,-5,-31,11,9,3,14,6
1499879116719766,3,-2,-8,-11,-4,2,-8,-8
1499879116720726,2,-11,33,22,-9,-8,-4,-52
1499879116720726,2,26,-27,-28,2,1,-9,29
1499879116741734,-4,3,26,7,0,-1,-3,-25
1499879116741734,-3,-17,15,3,-2,-1,5,0
1499879116743729,-9,19,14,5,-40,-5,2,42
1499879116743729,7,4,1,-21,19,5,4,-2
1499879116755767,-6,29,10,29,27,-4,-19,-19
1499879116755767,-2,-50,3,-62,-35,-6,0,-6
1499879116764738,-9,19,-41,32,42,6,-2,5
1499879116764738,14,10,15,27,-5,-5,-15,27
1499879116779750,10,-2,-2,-42,-3,1,10,28
1499879116779750,-4,-15,31,-12,-20,1,-6,-47
1499879116780730,-11,7,-20,16,9,1,-13,-1
1499879116780730,-3,-30,16,-10,23,-1,-9,2
1499879116801771,10,14,-6,43,0,-3,6,-5
1499879116801771,22,21,7,-38,-5,-4,-8,22
1499879116803763,-20,0,-23,-24,-14,-1,12,-2
1499879116803763,-16,-19,35,51,-29,-2,-16,-57
1499879116815803,-11,-14,-31,-77,24,-4,-20,7
1499879116815803,2,-20,-4,9,16,7,16,14
1499879116824746,-6,34,2,11,-25,-5,-11,-9
1499879116824746,3,-1,5,-42,15,0,25,64
1499879116839777,-6,-19,10,9,-21,-4,1,-40
1499879116839777,-10,-5,24,12,3,-3,-19,-48
1499879116840732,8,-16,-27,2,34,1,-5,43
1499879116840732,9,22,30,18,-38,-3,11,-6
1499879116861775,-1,3,-62,-30,-2,7,9,7
1499879116861775,11,44,31,18,26,-4,-2,1
1499879116863733,-5,-28,-9,18,-44,-7,-5,-33
1499879116863733,-15,-58,-10,-24,33,2,0,-8
1499879116884748,-7,5,3,-7,-8,0,1,17
1499879116884748,-6,10,-35,5,-59,-11,-7,-4
1499879116885735,1,-15,1,22,47,7,3,0
1499879116885735,15,50,31,5,-3,0,4,12
1499879116899791,-1,-19,-38,26,-20,-2,1,-8
1499879116899791,-5,13,12,25,17,3,-1,3
1499879116900742,13,-3,10,-16,-34,-1,25,30
1499879116900742,-11,-48,-27,-47,-1,0,-26,-38
1499879116921735,7,7,43,4,-14,-7,-19,-25
1499879116921735,-2,-5,-27,25,14,-2,9,7
1499879116923748,4,23,43,2,-1,-2,-1,9
1499879116923748,-5,12,35,6,9,1,34,38
1499879116944816,-3,7,-29,16,-33,-5,-2,0
1499879116944816,4,2,-1,-24,32,2,-23,-2
1499879116945750,-7,-21,-19,-14,47,4,-13,-34
1499879116945750,-10,-16,-11,-35,-37,-7,16,5
1499879116959811,5,4,-9,23,37,3,-4,13
1499879116959811,-8,-3,24,29,-19,-1,11,8
1499879116960749,4,8,6,5,-6,4,-11,-12
1499879116960749,25,40,-5,1,11,-6,7,42
1499879116981754,-21,-26,-16,8,19,1,-8,-31
1499879116981754,5,-13,24,2,-2,0,15,-7
1499879116983741,-7,5,-18,-6,-87,-14,-42,-25
1499879116983741,-9,-10,-67,-25,68,10,3,-16
1499879117004807,-2,-23,69,6,-12,-7,-13,22
1499879117004807,-3,17,-9,11,-7,3,1,-14
1499879117005743,-15,14,-4,-13,4,-9,-26,-88
1499879117005743,1,-28,-23,-23,-26,-5,-2,0
1499879117018776,4,19,4,-15,-2,-3,-4,1
1499879117018776,-4,-15,3,-17,-13,0,0,17
1499879117025787,4,31,-18,21,42,1,25,50
1499879117025787,-4,17,7,43,-32,0,-33,-58
1499879117041748,10,-24,4,-36,18,5,20,35
1499879117041748,3,-3,-8,32,32,-3,-2,-2
1499879117043745,1,29,-18,-32,5,8,6,-2
1499879117043745,-7,10,24,31,-19,-6,12,30
1499879117064790,-2,-12,20,-17,1,4,22,53
1499879117064790,13,23,12,11,-17,-3,-29,-30
1499879117065746,-7,-13,-9,-28,3,2,5,5
1499879117065746,3,2,-8,7,8,3,-1,-6
1499879117078803,2,19,10,0,-13,-7,3,23
1499879117078803,0,8,-31,-12,-11,0,11,2
1499879117085755,3,-11,38,25,7,-2,-10,24
1499879117085755,-3,-18,-40,-16,6,-1,5,-21
1499879117101792,-4,-25,-12,12,-10,-4,-10,-23
1499879117101792,-2,23,-6,-16,-6,3,8,5
1499879117103747,2,-33,3,39,26,1,-4,26
1499879117103747,-9,1,7,11,-23,-1,-10,-24
1499879117124819,1,9,-20,-11,-2,0,5,-12
1499879117124819,-8,7,11,-1,13,-3,-17,5
1499879117125748,-8,-16,-31,-30,-23,-3,9,8
1499879117125748,-2,-13,3,-1,-4,-9,-7,6
1499879117138792,-1,-1,7,-16,-20,3,-5,-6
1499879117138792,-2,1,-5,8,35,1,15,-6
1499879117145814,-3,15,30,7,-8,-2,0,-39
1499879117145814,5,31,-25,15,-25,-2,-12,24
1499879117161819,-7,18,-24,19,21,-4,-10,-28
1499879117161819,-7,-34,27,-27,-10,6,0,20
1499879117163783,4,30,-32,44,-2,-1,1,10
1499879117163783,2,-4,33,-33,11,3,6,-11
1499879117184819,-10,-19,14,-17,2,-2,6,11
1499879117184819,1,-22,-57,-14,5,-1,-16,-23
1499879117185762,-3,-3,-6,-26,-2,-5,-8,5
1499879117185762,-4,-40,-16,16,-30,-3,-5,-6
1499879117198764,3,15,33,5,25,-2,0,-8
1499879117198764,-2,9,-20,-9,-8,0,6,10
1499879117205795,0,1,51,23,-1,5,18,-17
1499879117205795,8,1,-60,9,-8,-4,-28,4
1499879117221799,-12,-6,6,13,16,1,-12,-2
1499879117221799,7,-10,20,-8,-20,-2,2,-5
1499879117223754,5,4,-50,-43,-12,-3,3,17
1499879117223754,-8,3,48,31,16,2,-1,-16
1499879117244817,1,-11,-33,5,-1,1,13,9
1499879117244817,-3,-22,4,-5,-21,-4,-19,-1
1499879117245767,-5,22,29,-20,0,2,-9,-53
1499879117245767,5,-34,8,4,15,-1,27,11
1499879117258800,3,0,-41,-16,-31,-2,-4,-2
1499879117258800,-5,2,28,37,20,-1,11,11
1499879117265806,-6,-13,-18,4,11,0,2,36
1499879117265806,-10,-17,-25,-29,-11,-2,-17,-9
1499879117281796,4,23,34,-38,-19,3,3,-18
1499879117281796,6,18,24,3,-24,-2,8,-25
1499879117283790,-6,-25,-22,23,43,2,-5,26
1499879117283790,4,14,1,-3,-12,-2,10,12
1499879117304836,-8,-8,-1,25,13,4,16,17
1499879117304836,7,18,-7,-36,-5,-4,-14,9
1499879117305759,-10,-43,8,5,-18,-5,-4,-16
1499879117305759,10,36,28,-15,-7,2,1,5
1499879117318802,2,-9,22,25,22,5,14,3
1499879117318802,-9,4,-63,-5,21,-2,-3,-4
1499879117325800,10,27,45,-4,-41,-3,-9,18
1499879117325800,7,0,-4,-5,21,-3,7,13
1499879117341805,-9,-16,-18,22,16,-1,-16,-22
1499879117341805,-2,32,9,8,-8,0,25,11
1499879117343762,20,-46,8,16,26,6,8,24
1499879117343762,-12,47,8,15,12,6,10,1
1499879117364804,12,-9,-11,-12,-7,-5,-5,31
1499879117364804,-7,-24,-10,-7,-30,-9,-16,-74
1499879117365772,8,24,-14,-36,21,4,6,6
1499879117365772,4,27,43,23,-5,3,-10,-3
1499879117377824,8,23,23,29,-1,0,1,2
1499879117377824,-20,-40,-60,13,-30,-4,11,32
1499879117386783,-1,38,90,-19,-23,-4,-22,-24
1499879117386783,-9,-8,-31,-26,31,1,7,-3
1499879117401822,-18,3,2,2,1,-6,-8,2
1499879117401822,6,-4,7,21,12,2,-9,-24
1499879117403797,6,23,-44,-9,-24,-7,11,-6
1499879117403797,-18,-48,47,-23,-6,6,1,11
1499879117424783,5,6,-32,-31,-12,1,2,31
1499879117424783,-4,5,14,5,51,5,-3,-45
1499879117425775,-12,-42,-17,10,-7,0,2,21
1499879117425775,5,6,-12,-2,-39,-12,-24,-23
1499879117437834,-6,-30,-5,-35,8,-4,-5,-9
1499879117437834,3,15,-32,-13,11,-1,7,23
1499879117446778,3,10,19,31,0,1,3,-5
1499879117446778,-3,8,-50,3,2,2,2,0
1499879117461813,-7,-56,29,14,-30,-5,0,-4
1499879117461813,3,5,14,3,10,1,18,27
1499879117463800,5,17,10,-50,5,-1,-12,-9
1499879117463800,-17,-48,-22,14,6,-4,-10,-6
1499879117484809,11,61,7,1,-5,-1,-7,-24
1499879117484809,1,-20,11,8,8,2,6,26
1499879117485770,-5,-13,-23,-3,-34,-6,16,18
1499879117485770,2,4,11,-20,15,11,3,-9
1499879117497789,12,15,-4,30,5,-2,-7,-22
1499879117497789,-3,-4,-9,-10,-21,1,-11,8
1499879117506807,-10,2,-1,-18,4,-5,3,1
1499879117506807,14,21,19,3,-4,1,13,18
1499879117521779,4,16,-30,-29,-10,-8,-16,-7
1499879117521779,6,-8,14,7,17,1,6,16
1499879117523785,-12,-8,-3,-21,-12,-1,-9,6
1499879117523785,-9,11,-11,-2,-24,-7,-10,-34
1499879117544804,5,32,45,49,26,5,4,11
1499879117544804,-8,-28,7,-11,-11,-4,-12,-17
1499879117545775,10,-8,-41,7,3,-1,13,33
1499879117545775,-1,12,-31,7,-1,-5,-14,-27
1499879117557814,3,4,8,-1,-11,2,7,26
1499879117557814,-4,-29,-30,-5,-2,2,-6,5
1499879117566775,-3,5,15,48,7,-1,-6,-27
1499879117566775,17,29,29,-34,21,2,22,24
1499879117581787,-23,-88,0,-8,-21,-11,-13,-20
1499879117581787,1,16,23,-2,-12,-1,-10,10
1499879117583808,2,-1,1,-9,-9,-3,-11,-7
1499879117583808,9,2,19,-2,-20,-1,8,35
1499879117604839,-7,1,-58,-11,-22,-3,-12,-21
1499879117604839,10,18,59,-6,38,3,18,9
1499879117605777,-24,-70,-43,33,-6,-8,-26,-34
1499879117605777,4,9,10,-11,30,-1,1,20
1499879117617845,3,-6,-23,31,14,7,4,-5
1499879117617845,1,-3,-5,12,-25,-8,-13,-2
1499879117626794,-15,50,32,0,18,8,12,1
1499879117626794,14,-12,-9,-12,-17,-9,-5,21
1499879117641822,1,-12,-10,1,-5,-1,-16,-3
1499879117641822,17,39,-13,-6,19,5,3,9
1499879117643778,3,8,34,-10,-9,-4,-16,-34
1499879117643778,-17,-46,9,45,-21,-4,2,13
1499879117664818,8,26,-9,-20,59,0,18,2
1499879117664818,-10,-26,0,8,-9,-3,-13,10
1499879117665809,13,39,-2,-9,5,1,9,19
1499879117665809,-20,-61,-6,27,-35,-2,1,-26
1499879117677842,12,-1,-21,-72,-8,-4,-12,4
1499879117677842,-3,1,11,1,15,-2,9,-4
1499879117686800,1,-12,11,11,21,1,-6,-15
1499879117686800,3,-3,-32,-2,12,-6,3,1
1499879117701820,-5,36,28,8,-48,-3,9,-16
1499879117701820,-11,-7,-50,-3,50,0,-4,34
1499879117703814,12,-10,39,-15,-19,2,-1,-12
1499879117703814,7,30,-4,43,25,1,-1,-8
1499879117724800,-7,-6,-5,-49,-24,-1,2,1
1499879117724800,-3,21,46,11,-33,-2,-4,-11
1499879117725802,4,32,-17,-17,5,-1,10,17
1499879117725802,-16,-45,-32,14,33,1,-26,-40
1499879117737826,-10,-12,19,6,5,1,0,9
1499879117737826,8,-14,-21,-24,-20,-6,6,-17
1499879117746802,-16,-12,-16,-9,-6,-4,-12,-11
1499879117746802,12,36,26,-19,-4,5,6,9
1499879117761824,-13,-14,17,20,9,2,5,19
1499879117761824,1,-25,-16,6,-49,-6,-3,-1
1499879117763788,-5,-29,-3,-11,7,1,10,-15
1499879117763788,5,-8,-34,20,26,-3,15,26
1499879117784851,3,40,-37,15,20,0,-30,-54
1499879117784851,-8,7,19,-23,6,2,2,-2
1499879117785803,0,13,-9,26,0,1,-1,-15
1499879117785803,-7,-36,31,-18,-8,-6,10,50
1499879117806851,-3,23,61,28,-5,2,1,-3
1499879117806851,-9,-57,-62,-19,4,-4,3,-4
1499879117808797,5,10,5,-3,10,3,5,8
1499879117808797,-11,15,-8,-16,-13,-4,-21,-27
1499879117821856,27,17,9,-1,-4,3,16,39
1499879117821856,-16,-24,25,40,-25,-2,-8,-39
1499879117823808,7,-1,-31,-53,-9,1,10,17
1499879117823808,-5,6,30,1,-10,0,-5,-22
1499879117844809,-11,-22,-35,7,3,-3,-7,-21
1499879117844809,7,47,7,-33,26,4,-1,9
1499879117845791,3,-5,22,25,12,-1,-3,3
1499879117845791,15,21,1,0,-11,2,-1,-2
1499879117866860,-11,-49,-11,7,-21,-6,1,17
1499879117866860,3,34,-12,-7,7,5,7,-10
1499879117868791,1,-7,-3,-10,-4,-2,-6,10
1499879117868791,-7,20,-9,-17,-15,0,-1,-27
1499879117881845,-1,3,27,8,16,1,16,26
1499879117881845,2,13,2,17,3,1,8,-19
1499879117883792,2,4,-15,9,12,2,-12,-21
1499879117883792,-7,19,-21,-31,-9,-5,0,12
1499879117904814,15,-24,1,-1,-8,-3,-8,5
1499879117904814,-3,10,9,3,0,-3,-3,11
1499879117905795,-1,4,18,9,-11,1,12,4
1499879117905795,4,13,2,32,-20,0,-13,-13
1499879117926861,-9,-11,7,-21,17,-6,-1,-22
1499879117926861,8,27,1,-26,8,9,5,38
1499879117928799,-3,-30,-18,-5,-19,-3,5,27
1499879117928799,-9,-41,-39,-4,12,-5,5,-8
1499879117940819,4,27,-7,11,3,2,6,14
1499879117940819,2,-8,66,16,-55,-8,-22,-4
1499879117947807,-3,1,-27,13,72,0,-25,-30
1499879117947807,0,4,33,-38,0,1,3,8
1499879117964808,-7,-40,-53,3,-2,-2,0,-19
1499879117964808,-3,7,11,4,-18,-5,1,13
1499879117965806,3,-21,7,-8,0,-7,-14,-4
1499879117965806,1,21,14,1,-10,-3,-5,5
1499879117986838,6,-4,-5,24,32,5,-1,-13
1499879117986838,-15,-16,1,-17,-10,-5,-4,-10
1499879117988797,-9,1,4,-7,-9,0,-6,-7
1499879117988797,13,-20,1,22,21,3,12,22
1499879118000838,-5,31,15,-17,-20,3,19,32
1499879118000838,2,-13,-36,4,-23,-7,-24,-35
1499879118007843,-1,-10,-2,-31,0,-2,2,2
1499879118007843,-3,25,23,-17,14,-4,-10,-32
1499879118024808,-9,-13,-34,-18,-9,-4,-5,-9
1499879118024808,2,10,9,-4,-7,-2,15,15
1499879118025800,-1,-13,-24,7,-13,0,14,2
1499879118025800,0,3,10,-11,13,-2,-34,-19
1499879118046865,6,-1,-11,5,7,4,1,-26
1499879118046865,-20,-31,-24,0,8,1,3,4
1499879118048807,-2,17,9,31,-2,-1,7,25
1499879118048807,14,18,11,-34,-21,-1,-2,-3
1499879118061815,-5,-2,15,13,-6,-3,-11,-25
1499879118061815,-3,0,3,11,15,5,-3,-16
1499879118067804,6,5,24,-8,-20,-6,8,16
1499879118067804,-9,-7,-8,52,-17,-2,3,-11
1499879118084814,4,18,13,-36,-5,-4,-4,11
1499879118084814,-4,-13,-43,-25,1,2,20,-1
1499879118085805,-4,-6,-3,2,-7,-2,-1,-2
1499879118085805,5,4,-36,7,-4,-3,3,-6
1499879118106871,0,14,26,-5,3,1,1,13
1499879118106871,-16,56,0,-6,32,-4,-19,-50
1499879118108817,6,-34,-9,19,26,6,1,8
1499879118108817,-1,6,-17,-36,7,3,7,-6
1499879118120845,-14,-15,-25,4,-30,-5,5,8
1499879118120845,9,22,-1,-7,-2,-4,-9,9
1499879118135808,1,-28,24,0,-17,-3,11,10
1499879118135808,-16,-21,-12,40,4,3,-22,12
1499879118144840,4,10,-5,-18,-10,-6,-19,-35
1499879118144840,11,-22,32,39,6,1,14,15
1499879118145810,5,72,-9,-26,12,2,-11,-18
1499879118145810,-2,-36,21,-12,3,1,21,31
1499879118166821,-10,-16,8,1,-22,-5,2,14
1499879118166821,12,-18,0,28,-11,2,-5,-25
1499879118168841,-4,-14,23,-37,0,0,2,-11
1499879118168841,-5,0,-62,2,4,1,0,-7
1499879118180851,-2,-30,13,8,3,-5,-4,7
1499879118180851,-2,-13,6,-35,1,-2,7,11
1499879118187835,-3,-1,-9,40,-3,0,18,39
1499879118187835,6,24,34,-12,1,-5,-21,-59
1499879118204823,6,0,-27,-23,-28,-1,-4,-13
1499879118204823,16,51,7,38,39,5,3,10
1499879118205810,-19,-47,-14,18,-21,0,-12,3
1499879118205810,-6,-16,3,-8,2,1,24,46
1499879118226882,2,29,2,-5,-9,0,-7,-13
1499879118226882,7,5,52,29,7,-2,13,15
1499879118228825,-5,10,-88,-3,6,1,-19,-25
1499879118228825,1,-2,34,23,0,6,14,37
1499879118240846,5,-12,-8,-23,-4,1,-4,-32
1499879118240846,-10,28,-3,-7,-12,-5,-6,11
1499879118247813,3,4,44,-18,-6,-3,7,-10
1499879118247813,-2,-13,-27,7,-18,-2,-11,-4
1499879118264822,-2,3,7,28,19,4,5,2
1499879118264822,3,-19,-27,-29,12,-4,-10,31
1499879118265829,-8,17,8,-7,-11,-3,-6,-12
1499879118265829,-7,0,1,-11,2,-4,10,-3
1499879118286816,16,32,28,5,-14,-3,-17,-21
1499879118286816,-15,-27,-25,-12,-15,-2,-1,4
1499879118288816,-2,-6,7,-5,31,-1,-12,-24
1499879118288816,10,21,-15,26,0,0,13,37
1499879118300855,-2,7,39,21,9,4,-5,-13
1499879118300855,-4,-16,-22,-16,-14,-3,-2,-2
1499879118309828,3,-18,0,-11,-12,-5,-2,-17
1499879118309828,2,7,-2,-21,3,-2,7,18
1499879118324852,-9,12,-17,23,21,-1,9,3
1499879118324852,1,-29,-16,-23,-15,-7,-10,-24
1499879118325827,-4,-23,-3,4,3,2,7,23
1499879118325827,-5,6,1,11,-7,-5,-13,-51
1499879118346881,-3,-17,-11,-7,11,3,13,15
1499879118346881,-1,4,12,-32,-24,-1,-12,18
1499879118348830,-1,7,4,2,2,-5,-5,-12
1499879118348830,9,3,-13,4,-20,-5,5,4
1499879118360838,5,19,10,4,11,-1,1,12
1499879118360838,-18,-48,5,22,23,2,-9,3
1499879118369820,6,5,3,-15,-4,2,1,8
1499879118369820,-5,-9,-8,-1,0,-1,-13,-21
1499879118384852,4,2,-10,26,-6,2,0,29
1499879118384852,3,28,-7,-11,7,-2,-1,-16
1499879118385830,-3,4,19,-21,-17,3,5,16
1499879118385830,3,3,32,-5,2,-1,-6,-16
1499879118406882,-14,-32,-64,-11,-6,-2,12,1
1499879118406882,0,12,0,19,29,1,-20,-34
1499879118408855,-1,-4,-11,-4,-20,-4,-6,1
1499879118408855,-3,20,14,-2,-5,-3,-2,2
1499879118420862,2,-19,-4,10,6,0,-5,0
1499879118420862,-2,1,10,-42,-13,0,24,6
1499879118429830,-1,21,12,-2,-4,-6,-8,15
1499879118429830,-15,-30,-26,27,14,-5,-18,-36
1499879118444842,9,9,0,-19,25,-1,1,21
1499879118444842,-2,-5,-3,2,0,3,9,14
1499879118445827,-4,31,-27,11,-18,-2,-8,-50
1499879118445827,6,-11,8,-19,3,5,8,31
1499879118466892,-14,-22,-12,-17,-25,-6,-7,-40
1499879118466892,10,13,-1,31,21,-2,2,-3
1499879118468826,-1,-13,-11,21,-8,0,9,4
1499879118468826,1,-4,5,-27,2,-1,-6,11
1499879118480865,1,13,9,-16,12,-2,11,28
1499879118480865,6,4,3,31,9,5,-6,-13
1499879118489843,-2,5,6,-3,-16,-2,7,9
1499879118489843,3,7,36,18,-15,-1,-6,0
1499879118503871,-7,-12,8,15,18,3,14,-6
1499879118503871,-1,-8,4,-24,-25,-3,3,8
1499879118504829,9,21,-18,27,8,-1,-16,19
1499879118504829,0,-7,-4,-29,-1,0,5,5
1499879118525891,-5,-12,-12,-1,-2,0,0,0
1499879118525891,0,9,-9,-2,-6,-3,9,18
1499879118526872,5,8,5,25,4,1,-16,-29
1499879118526872,-6,-28,-8,-50,-9,-2,-6,-4
1499879118548871,1,2,22,10,-27,0,5,-3
1499879118548871,-2,-9,-9,5,13,-4,-5,4
1499879118549832,-1,-2,-5,3,1,-2,3,5
1499879118549832,3,17,-19,13,30,6,13,21
1499879118563898,-2,7,67,-7,-17,-3,-15,-24
1499879118563898,-4,-6,-42,8,-25,1,12,-1
1499879118564853,-5,-20,-10,-27,16,-8,-19,-34
1499879118564853,-7,-4,-13,33,10,1,9,5
1499879118585846,-5,30,11,-6,1,0,-1,1
1499879118585846,8,3,31,8,-12,-2,4,4
1499879118586841,-1,-4,-34,-27,14,5,19,26
1499879118586841,-7,-24,12,13,-12,-5,-12,-26
1499879118608905,11,16,-9,-25,-33,-3,-4,24
1499879118608905,-8,-15,21,20,53,6,7,18
1499879118609838,7,19,-13,5,-14,-1,9,4
1499879118609838,10,4,24,8,15,2,-5,-17
1499879118623877,3,40,-10,34,-45,-9,-5,-8
1499879118623877,-11,-68,-17,-46,15,4,11,-14
1499879118624836,-17,-39,13,-34,-16,-1,-12,30
1499879118624836,-10,15,-6,-3,-2,-3,-3,-6
1499879118645900,7,-8,22,18,41,-2,-18,17
1499879118645900,4,-5,-48,-23,-29,-4,1,-21
1499879118646844,6,-2,39,23,43,5,21,39
1499879118646844,-10,20,-36,-9,-31,-7,-37,-79
1499879118668904,-19,-94,-23,-10,-3,-4,-3,-1
1499879118668904,-4,4,-14,-8,10,-1,-11,4
1499879118669847,8,15,24,18,-4,-1,-4,-19
1499879118669847,6,-16,-23,-10,-9,-2,8,24
1499879118683887,-7,-16,5,-2,8,4,4,-4
1499879118683887,4,21,16,7,2,-3,-8,-10
1499879118684839,-10,-29,2,21,-22,-3,2,-6
1499879118684839,18,31,-9,-67,-8,4,9,35
1499879118705914,2,8,-2,-2,18,1,-8,-28
1499879118705914,-8,-22,-9,1,-35,-8,2,19
1499879118706847,0,22,4,-17,33,2,-13,-40
1499879118706847,6,20,39,17,-18,-9,-11,10
1499879118728911,-3,-21,-18,0,14,10,9,2
1499879118728911,-1,-1,-7,5,-18,-3,-7,18
1499879118729874,-1,26,12,16,-14,-2,8,5
1499879118729874,6,-18,-19,13,0,2,18,14
1499879118743885,-22,-59,-31,-34,-1,-7,-29,-18
1499879118743885,16,23,29,4,-7,0,-2,-1
1499879118744842,-6,0,-24,2,-8,3,12,0
1499879118744842,-3,-20,6,-20,-7,2,-2,41
1499879118765878,10,56,-2,49,-8,-1,7,-2
1499879118765878,-8,-22,-8,-23,19,2,1,-11
1499879118766850,4,-1,-20,4,-6,-2,-2,-5
1499879118766850,-5,8,-12,26,1,-6,-4,-18
1499879118788913,15,34,22,-33,7,3,3,34
1499879118788913,-2,18,-2,-8,-29,-5,-2,-7
1499879118789847,1,18,13,24,29,-2,4,2
1499879118789847,-14,-5,12,-1,15,4,1,-17
1499879118803867,5,25,-9,-8,-16,-3,1,15
1499879118803867,-11,-37,64,-3,4,0,-12,-37
1499879118804857,-3,-7,-54,-22,-15,-5,2,5
1499879118804857,2,-13,-19,4,4,0,16,31
1499879118825912,-4,28,-10,5,7,-3,-18,-60
1499879118825912,-4,11,18,30,-5,-5,-9,-1
1499879118826855,1,-18,-11,-48,-10,1,-9,-9
1499879118826855,-4,27,-3,5,1,2,16,-1
1499879118848913,-3,-10,-11,1,-40,-6,0,-19
1499879118848913,-3,-5,-13,38,26,-1,-16,-15
1499879118849848,7,13,13,-30,18,5,-5,2
1499879118849848,0,7,7,35,-8,0,-7,13
1499879118863893,-12,-53,43,-55,6,-1,19,-4
1499879118863893,6,11,-73,5,-41,-7,6,-3
1499879118864859,-10,-33,20,24,11,-1,-12,4
1499879118864859,6,17,15,-32,1,4,4,-10
1499879118885918,4,12,-2,11,2,-5,16,31
1499879118885918,-2,1,-3,-14,0,1,-21,-9
1499879118886858,1,3,9,4,-15,-5,-5,-25
1499879118886858,-9,-8,7,12,11,-2,-9,3
1499879118908925,9,-2,-13,25,-2,-1,7,18
1499879118908925,-6,23,7,-27,-9,-1,-2,-13
1499879118909852,-1,-11,-21,1,38,-3,7,3
1499879118909852,3,-55,20,-31,-1,-3,-14,-20
1499879118923896,-8,18,-17,-14,-19,-1,-4,-1
1499879118923896,10,41,75,50,39,7,13,24
1499879118924863,-11,-49,-23,-20,-21,-3,15,3
1499879118924863,2,17,-16,0,6,-4,-18,-25
1499879118945919,4,2,-4,-1,16,5,14,24
1499879118945919,0,23,-12,4,-17,-7,-20,-21
1499879118946869,6,9,14,17,-27,-2,-2,9
1499879118946869,-6,6,18,3,37,-2,9,29
1499879118968921,-5,-27,-61,-6,-18,-1,-14,-27
1499879118968921,3,13,15,16,15,-1,8,10
1499879118969857,-2,11,5,-5,19,2,1,5
1499879118969857,-5,6,-19,13,-16,1,5,-17
1499879118983899,0,11,14,3,-11,-5,-13,23
1499879118983899,5,-46,-24,-14,12,1,3,9
1499879118984855,-12,9,11,4,-8,1,7,2
1499879118984855,0,19,6,-4,-17,-3,-2,-31
1499879119005923,-5,-19,13,2,23,0,10,-6
1499879119005923,-4,-11,13,-2,-11,0,9,18
1499879119006857,-9,-14,-36,-2,-10,-3,-21,-21
1499879119006857,2,15,0,3,5,0,13,18
1499879119028923,7,11,1,19,-8,-1,-11,-16
1499879119028923,-1,-23,-22,-26,1,0,15,7
1499879119029859,-5,0,26,10,-7,-2,-14,-12
1499879119029859,1,11,-9,8,-7,2,4,3
1499879119043901,-6,-10,12,-2,-23,-5,-5,26
1499879119043901,12,36,-14,-3,45,3,-2,10
1499879119044860,-7,13,20,-5,-14,-4,-1,-8
1499879119044860,-5,-78,-11,23,32,3,1,3
1499879119065930,1,-1,7,-12,-7,-2,-5,4
1499879119065930,-9,-3,-43,14,-26,0,-9,-34
1499879119066873,14,34,7,-44,-9,1,19,31
1499879119066873,-9,-6,6,-1,-17,-5,-30,-60
1499879119088930,-4,-7,13,23,24,1,0,2
1499879119088930,7,-16,-1,-63,-22,1,-3,5
1499879119089871,1,-7,-8,17,-13,-6,-1,-19
1499879119089871,1,-3,-9,-27,42,6,4,-6
1499879119103930,-2,39,31,-5,-18,-2,-1,18
1499879119103930,-4,-32,-6,22,26,6,5,5
1499879119104863,6,-3,5,7,-13,-6,-11,-3
1499879119104863,-5,-20,12,-13,-19,-8,5,22
1499879119125923,-18,-29,-9,13,11,1,3,-37
1499879119125923,-2,16,5,-15,-5,0,2,-20
1499879119126877,0,19,15,7,-30,4,9,12
1499879119126877,6,-48,-20,19,29,-6,-30,-28
1499879119148905,4,1,-10,-16,35,2,-2,-1
1499879119148905,-8,-12,-16,-28,-16,-4,3,22
1499879119149876,3,10,-20,5,-6,0,5,4
1499879119149876,-3,52,32,20,-22,-1,11,-6
1499879119163910,5,-39,7,-15,-34,-5,-5,27
1499879119163910,-5,23,11,12,49,2,-9,-21
1499879119164869,3,-6,16,-6,-3,-6,-6,-2
1499879119164869,11,32,-17,-13,-11,2,15,29
1499879119194884,3,17,8,16,4,2,7,-9
1499879119194884,-11,-13,19,13,-26,-7,-9,-31
1499879119194884,-9,-27,-6,-3,11,4,-6,1
1499879119194884,-2,12,-4,2,-20,-5,-2,-1
1499879119208908,5,-22,-32,4,25,-4,10,-6
1499879119208908,8,4,-13,-1,-23,-4,-25,-4
1499879119209870,-7,-30,-15,-9,39,3,-2,-7
1499879119209870,-10,-17,11,18,-13,-6,-2,-4
1499879119223912,3,22,-10,-29,3,4,-5,11
1499879119223912,3,-2,6,-5,7,2,11,-2
1499879119224871,1,-5,-6,8,-20,-3,-9,0
1499879119224871,9,21,-15,25,17,-2,8,13
1499879119245937,-9,-15,22,-51,-6,2,-11,-17
1499879119245937,4,45,-1,9,-1,4,21,30
1499879119246879,-7,-45,-4,6,-4,-5,-19,-1
1499879119246879,-5,-56,5,-33,-16,-1,-3,-3
1499879119268912,-6,12,-13,29,19,-3,-1,-10
1499879119268912,2,-5,19,16,3,0,3,-19
1499879119269874,3,16,-3,-30,-4,-1,-4,10
1499879119269874,0,0,8,14,-8,0,2,16
1499879119283915,-10,-16,-11,-10,-32,-7,-12,-45
1499879119283915,-9,-33,-7,6,17,-2,-1,10
1499879119284872,8,26,4,24,9,2,8,-5
1499879119284872,-10,2,-4,-18,-9,-1,0,-9
1499879119305917,0,21,8,38,6,1,-6,7
1499879119305917,-5,10,-2,-21,-22,-5,11,37
1499879119306888,-2,6,2,-23,-6,2,-6,-55
1499879119306888,0,8,-9,-4,16,-1,-9,11
1499879119328916,3,-42,-26,1,5,-1,-2,5
1499879119328916,-1,20,7,15,-15,-2,-3,13
1499879119329887,-2,-8,23,12,-3,-1,11,14
1499879119329887,1,11,-15,-8,-1,5,4,-4
1499879119342937,1,9,-14,-11,3,-2,6,2
1499879119342937,2,-13,5,1,-8,0,-7,-14
1499879119350922,-5,13,-11,15,1,-3,-7,-14
1499879119350922,-7,30,23,-18,-8,-1,-4,2
1499879119365939,3,-28,-24,-4,8,1,4,18
1499879119365939,-4,-6,16,3,-2,-2,-4,-3
1499879119366887,-1,-4,-13,4,7,0,0,-1
1499879119366887,5,24,15,-2,-6,-3,1,2
1499879119388941,-4,10,33,8,8,1,8,8
1499879119388941,-2,-16,-38,-12,-11,-3,-14,-22
1499879119389890,6,-6,30,22,12,5,3,-2
1499879119389890,-5,-35,-32,-27,30,4,13,22
1499879119402949,8,11,0,10,-13,1,-10,4
1499879119402949,-3,-4,5,-23,8,-1,-2,-10
1499879119410900,-3,10,-3,-7,-8,-2,-2,2
1499879119410900,-1,-5,-19,3,-19,-3,-5,-5
1499879119425944,5,26,14,5,2,-1,12,9
1499879119425944,-13,-9,-1,-14,-12,-5,-25,-15
1499879119426889,4,6,-2,21,18,2,10,35
1499879119426889,-3,5,3,-3,-3,-4,-13,-10
1499879119448958,2,6,-1,-9,3,-1,-5,-10
1499879119448958,4,28,1,16,-47,-3,13,12
1499879119449882,-6,-40,-25,-13,45,-2,-8,-12
1499879119449882,-7,-19,9,-1,7,-3,-14,-16
1499879119462952,0,-6,19,19,2,2,9,20
1499879119462952,3,2,-24,-1,3,1,1,-17
1499879119470897,0,22,-11,17,-38,-10,-12,-4
1499879119470897,6,-3,-19,-47,6,2,-2,-25
1499879119485952,-16,-18,15,3,-2,-1,-6,-7
1499879119485952,0,-2,3,-8,10,0,8,18
1499879119486893,7,7,8,9,-8,2,32,33
1499879119486893,-14,11,0,5,-23,-8,-27,-63
1499879119508954,7,3,11,-27,10,10,-5,-2
1499879119508954,0,8,2,-4,20,-2,-8,-1
1499879119509889,-13,-13,0,-9,18,-5,-7,-28
1499879119509889,3,-38,-2,9,-14,-1,10,57
1499879119522898,-2,32,-20,12,-3,-6,-21,-46
1499879119522898,-1,-5,12,10,5,0,1,21
1499879119530927,1,-2,-16,-19,-20,-3,-9,-18
1499879119530927,14,36,57,26,-7,3,13,35
1499879119545933,-6,-10,-43,-14,18,-4,-13,-63
1499879119545933,1,-15,-6,-12,-4,1,-3,-8
1499879119546901,-10,-32,-7,21,2,-1,10,12
1499879119546901,15,7,-20,-28,-23,3,13,11
1499879119568955,-7,2,56,26,4,0,13,29
1499879119568955,17,8,-15,1,30,2,23,19
1499879119569892,-11,-23,-1,-34,-16,0,-33,-4
1499879119569892,-2,16,-15,26,14,-3,-12,-65
1499879119582956,9,15,13,-24,-16,0,4,-12
1499879119582956,-1,-5,-16,-6,-31,-4,3,46
1499879119590929,-7,-44,18,-7,31,3,6,-16
1499879119590929,-12,-14,-16,23,2,-3,-1,23
1499879119605949,-4,7,-22,-20,-16,0,-8,-17
1499879119605949,-4,-19,35,18,-4,-4,5,-1
1499879119606900,8,26,-27,0,-39,-2,4,10
1499879119606900,2,9,6,2,54,5,7,12
1499879119628934,-3,-35,22,-6,5,-8,2,-11
1499879119628934,2,5,-39,-4,-16,5,4,18
1499879119629893,3,16,18,4,-5,-3,3,12
1499879119629893,-6,-5,15,24,-11,-3,-10,7
1499879119651939,12,48,7,-28,-4,-4,7,19
1499879119651939,3,10,9,13,24,5,8,-1
1499879119652894,-5,-12,23,0,-18,-4,-20,-23
1499879119652894,-3,-42,-25,-35,-43,-3,-1,7
1499879119665938,-4,6,-17,35,86,8,-3,27
1499879119665938,-8,-41,-9,-8,-25,-9,-12,-21
1499879119666908,-5,23,-5,15,29,4,15,13
1499879119666908,4,-35,7,-4,6,-1,-3,-13
1499879119688907,0,-17,-46,-23,-41,-3,2,14
1499879119688907,-4,18,10,8,14,3,-3,-24
1499879119689903,4,27,11,24,-10,-1,10,11
1499879119689903,8,-10,-28,-25,0,0,10,18
