timestamp,emg1,emg2,emg3,emg4,emg5,emg6,emg7,emg8
1499879228471494,18,7,10,59,-3,5,37,-20
1499879228471494,-28,11,-46,-11,-7,-4,20,7
1499879228476545,31,6,-21,1,-5,-8,-13,-4
1499879228476545,16,27,44,-64,0,-3,-26,-82
1499879228479546,36,8,-3,11,8,2,-12,-28
1499879228479546,-73,-37,7,82,-15,-5,-4,15
1499879228479546,58,-35,-28,11,-2,4,38,69
1499879228479546,-77,-46,-64,61,10,0,-6,-30
1499879228481532,-23,-20,10,-75,-30,-15,-27,-27
1499879228481532,18,-22,-6,22,45,12,-7,0
1499879228493529,-14,-52,-75,-93,-17,-2,4,53
1499879228493529,40,95,53,72,-4,0,26,-39
1499879228506496,32,52,63,-22,20,13,11,-30
1499879228506496,-7,40,42,-44,-18,-13,-17,-10
1499879228511531,2,-32,52,57,2,9,26,-24
1499879228511531,-10,-23,28,-9,3,-3,-42,39
1499879228520530,-10,-3,-87,-78,-1,-2,35,15
1499879228520530,-9,-26,-39,17,-16,-3,-34,-78
1499879228542561,12,116,24,-105,3,-1,-13,13
1499879228542561,-29,-96,-35,18,-3,9,62,108
1499879228543492,-5,-2,29,9,0,-7,-15,-39
1499879228543492,17,-43,7,23,15,2,-6,124
1499879228589540,-32,-58,35,12,-51,-17,-7,61
1499879228589540,51,18,-9,36,35,1,2,-23
1499879228591518,-13,-6,-11,-66,-14,2,22,-20
1499879228591518,62,21,32,127,5,-4,10,30
1499879228591518,-22,100,34,-44,34,17,47,60
1499879228591518,-72,-62,-49,25,-14,-2,-53,-66
1499879228594565,-12,-56,106,-63,-5,-7,-4,30
1499879228594565,13,20,-17,97,-34,3,8,-12
1499879228602564,-15,-34,-19,-92,9,-15,-44,-18
1499879228602564,13,22,-16,-107,8,-5,40,96
1499879228609542,-4,12,-84,-27,20,7,3,-100
1499879228609542,-19,1,76,1,2,5,16,62
1499879228616516,1,-47,-57,16,-32,0,2,-28
1499879228616516,35,21,29,37,4,-2,17,75
1499879228631547,1,-17,-62,6,-12,-13,-50,-58
1499879228631547,21,54,118,61,31,5,-30,-38
1499879228639573,-63,-21,-96,-42,-18,2,-9,-34
1499879228639573,2,81,125,8,8,7,68,51
1499879228663548,71,9,17,99,-6,5,7,80
1499879228663548,28,10,-86,-128,-25,-10,-15,-3
1499879228663548,-5,22,57,116,18,3,-10,-66
1499879228663548,-16,-29,-41,-23,-15,-6,-32,-7
1499879228677544,6,-5,-13,43,-7,12,25,99
1499879228677544,-22,1,-111,-107,25,-13,-18,-55
1499879228678505,17,-14,39,0,39,12,31,10
1499879228678505,-2,-16,29,-42,-23,-3,-2,-9
1499879228700504,-3,-3,-45,46,-12,-9,-11,-34
1499879228700504,-47,-53,-31,23,16,6,-20,17
1499879228700504,57,53,-16,3,-33,-8,9,-32
1499879228700504,-22,3,-22,96,18,12,11,-11
1499879228722566,-86,-35,23,-17,20,15,7,-28
1499879228722566,27,26,7,-51,-85,-29,0,29
1499879228723506,-26,-72,-69,-45,38,-2,8,24
1499879228723506,6,4,36,22,13,6,-47,-86
1499879228737534,31,57,18,38,-1,-1,4,24
1499879228737534,-26,-35,-1,77,-8,-5,11,46
1499879228738508,68,33,94,-4,31,10,16,33
1499879228738508,-51,-80,-128,-93,-61,-23,-28,-47
1499879228760535,35,18,11,-22,-22,4,40,74
1499879228760535,-36,-20,17,55,30,5,1,-23
1499879228760535,85,-43,16,62,-15,-3,19,57
1499879228760535,-15,-7,49,-7,-9,2,-23,32
1499879228782549,-15,-22,11,-5,57,-11,-19,-42
1499879228782549,-17,27,8,8,-10,10,40,8
1499879228783522,-32,9,-95,-60,-26,-5,-45,-67
1499879228783522,29,3,40,-13,19,1,19,82
1499879228797557,-44,-52,53,70,-15,-11,-57,-110
1499879228797557,-9,-56,80,20,24,0,-15,-37
1499879228798511,9,22,-76,-96,-34,-2,0,24
1499879228798511,-15,-24,66,51,9,-10,20,10
1499879228819520,74,32,2,-14,-2,3,-10,26
1499879228819520,23,24,-76,-51,-41,1,9,2
1499879228820511,-22,16,38,61,71,10,13,2
1499879228820511,21,-58,-46,3,-1,0,-26,-25
1499879228843583,9,37,33,-7,1,-5,8,12
1499879228843583,-18,-76,-69,-65,3,7,29,15
1499879228844514,-11,71,8,12,-19,-10,-34,-27
1499879228844514,38,38,-27,-50,-30,-6,9,9
1499879228857553,-36,64,104,55,58,4,0,-15
1499879228857553,62,-34,-37,-80,-36,-2,21,58
1499879228858525,-29,-13,-42,-1,7,-13,-10,-35
1499879228858525,-6,11,63,-24,29,11,10,-29
1499879228880521,-16,6,-70,45,-9,-5,-28,-11
1499879228880521,-21,10,69,-14,-8,1,-6,-10
1499879228880521,26,-27,9,66,46,-2,-2,-14
1499879228880521,-3,63,-54,-13,-25,-1,9,-1
1499879228903590,-2,-80,-64,-64,-11,-3,19,17
1499879228903590,19,44,59,66,25,3,1,0
1499879228903590,-8,-47,-29,34,-27,-2,-6,-2
1499879228903590,-33,14,25,-11,-31,-4,-28,-80
1499879228917587,1,18,8,6,33,4,38,52
1499879228917587,-14,-29,-107,-4,5,-6,-9,-32
1499879228918518,3,-16,49,-23,-27,7,-8,-8
1499879228918518,14,28,41,37,28,3,13,11
1499879228940520,6,60,20,-69,-21,-8,-1,-6
1499879228940520,-22,-22,2,21,16,6,-3,4
1499879228940520,-11,19,53,41,-24,-3,-7,-14
1499879228940520,33,8,-62,-49,2,-8,-20,25
1499879228963583,-20,-26,86,-9,-26,-5,-18,-26
1499879228963583,1,66,26,-50,20,9,21,25
1499879228963583,1,36,62,4,-21,-5,4,44
1499879228963583,26,3,48,70,29,2,-11,-67
1499879228977566,-8,-3,-37,-82,-31,-4,6,18
1499879228977566,18,15,62,103,36,1,-29,-56
1499879228978523,-3,-63,-51,-97,2,-3,21,1
1499879228978523,20,51,-5,25,7,6,25,43
1499879229000523,-3,-26,-54,45,-34,-6,-11,2
1499879229000523,-9,29,27,-24,9,1,15,-10
1499879229000523,-10,-79,-20,-12,-63,-11,-41,-12
1499879229000523,-2,-18,-48,85,50,-1,-5,12
1499879229023567,-5,-3,24,-77,-16,1,26,2
1499879229023567,1,29,25,-19,-9,-9,-27,1
1499879229023567,11,74,117,104,10,9,23,-5
1499879229023567,-24,-28,-82,-49,-2,1,6,-16
1499879229037557,11,-5,-81,31,13,3,-17,-7
1499879229037557,-1,10,103,7,11,-1,-14,12
1499879229038527,11,46,-49,7,-8,-4,5,45
1499879229038527,-33,-75,93,10,3,3,2,-35
1499879229059558,-17,-17,-55,13,-13,-5,-5,-11
1499879229059558,7,28,45,-25,-19,1,-1,-22
1499879229060524,16,-40,1,37,-13,0,16,39
1499879229060524,-3,37,-13,-72,20,3,13,11
1499879229082593,8,10,64,34,7,0,15,21
1499879229082593,-4,-22,-60,-44,-44,-9,-6,50
1499879229083527,4,13,22,-8,49,7,-22,-77
1499879229083527,-22,-9,-47,24,-26,-3,29,42
1499879229105574,6,49,44,28,5,-2,-32,-37
1499879229105574,-18,-36,17,-7,12,-5,-16,-34
1499879229106557,1,26,19,29,-13,3,31,36
1499879229106557,-10,-36,-30,-43,-24,-8,-53,-62
1499879229119552,21,32,42,-14,27,5,26,34
1499879229119552,-33,-71,-110,22,-1,0,-19,-20
1499879229120562,33,62,-66,-29,6,8,10,25
1499879229120562,-11,-17,-29,12,-38,-5,0,22
1499879229142607,-3,4,54,2,23,-3,-30,-41
1499879229142607,6,-41,-54,-27,7,-3,7,25
1499879229143531,-9,-8,44,69,26,0,7,-7
1499879229143531,9,42,8,-64,-27,0,5,-16
1499879229156597,-12,-10,-52,-28,-19,-8,-18,-4
1499879229156597,-4,-9,26,26,14,2,2,-4
1499879229164573,-7,54,79,-29,-35,-2,-11,-23
1499879229164573,-8,-87,-43,53,45,1,11,24
1499879229179577,-13,21,-71,7,-4,1,12,19
1499879229179577,6,-45,20,-6,4,-3,10,-26
1499879229180568,-17,6,-72,-28,-40,-9,-22,-6
1499879229180568,22,22,80,31,-5,1,0,15
1499879229202605,2,-36,-32,-4,27,8,39,5
1499879229202605,-21,69,13,89,-6,-7,-51,-40
1499879229203534,-29,-84,-43,-89,2,-3,-3,-20
1499879229203534,23,23,32,-21,-35,-3,-1,29
1499879229216608,13,77,49,45,17,13,4,10
1499879229216608,6,-53,-63,4,15,4,30,14
1499879229224605,-13,24,111,-34,-8,-11,-28,-5
1499879229224605,-29,-1,-78,26,-21,-9,-10,-27
1499879229240536,12,-60,-63,-104,-36,-14,-13,1
1499879229240536,-10,-5,-32,-58,15,7,19,15
1499879229240536,9,14,3,44,37,-2,-3,13
1499879229240536,-5,-4,-18,-19,-4,1,16,18
1499879229262602,-24,28,3,9,-40,-5,-24,-39
1499879229262602,5,-18,-22,-28,25,2,7,-1
1499879229263537,-7,-22,30,35,21,-4,-16,-3
1499879229263537,4,57,9,11,-15,1,-3,15
1499879229276577,10,-37,-11,10,17,3,21,0
1499879229276577,-10,-4,16,8,-16,-7,1,0
1499879229285555,7,31,3,18,-2,8,15,4
1499879229285555,3,-26,91,10,19,0,20,12
1499879229299542,-18,29,-3,33,0,-3,-24,16
1499879229299542,-20,3,5,-16,-36,3,3,15
1499879229300541,3,-43,43,42,15,-4,1,11
1499879229300541,0,-4,-62,-50,-16,0,-6,-11
1499879229322616,10,-1,90,-55,12,-1,24,24
1499879229322616,7,93,3,28,-16,-2,-7,-9
1499879229323542,-5,15,7,-29,45,8,-8,9
1499879229323542,35,15,-64,30,5,-4,-18,-33
1499879229336582,-42,-60,74,39,-25,-3,1,4
1499879229336582,22,39,-10,2,11,2,-3,4
1499879229345555,-7,-36,-7,-49,-9,-1,-4,-16
1499879229345555,-2,48,121,26,31,5,21,21
1499879229359611,-6,-60,-68,6,-20,-10,-30,-9
1499879229359611,9,-8,117,14,4,2,3,-10
1499879229360556,-12,32,-7,27,-7,-1,-14,-52
1499879229360556,-9,-74,-85,-61,-18,-5,-20,19
1499879229382592,12,22,-24,2,7,2,-4,-7
1499879229382592,-4,-34,6,14,-3,-5,-3,19
1499879229383566,-12,-16,9,10,9,1,21,22
1499879229383566,8,26,34,-33,9,-4,6,1
1499879229396586,32,0,-106,-38,21,8,13,7
1499879229396586,-5,37,-34,-22,-11,0,12,13
1499879229405571,-4,-21,-21,-64,-17,-1,0,-14
1499879229405571,-17,-7,56,75,27,-2,2,-9
1499879229419617,13,32,14,50,6,5,-4,4
1499879229419617,-16,-12,-9,-31,3,-3,7,-15
1499879229420559,2,-16,-26,-9,-16,-12,-19,20
1499879229420559,10,-24,-34,27,-28,-1,-6,4
1499879229442591,-15,7,66,-44,20,11,13,-4
1499879229442591,-9,-55,-73,30,-2,-8,-12,-1
1499879229443560,-8,-10,-55,-29,-31,-2,9,-5
1499879229443560,20,51,11,-12,23,-2,-17,-15
1499879229456596,-2,22,-3,22,1,2,36,41
1499879229456596,8,-11,-26,-35,-28,-3,-19,-54
1499879229464593,3,23,23,22,26,0,0,18
1499879229464593,-13,-14,-40,-19,-7,6,-6,-34
1499879229480550,1,-18,23,8,-21,-13,-4,7
1499879229480550,14,35,8,-32,1,6,7,8
1499879229480550,21,39,82,29,2,-2,7,3
1499879229480550,-19,-5,-16,13,10,7,12,12
1499879229502625,-15,-48,29,-35,-32,-8,-3,-2
1499879229502625,11,18,33,-6,6,-5,2,-15
1499879229503576,-2,-19,-69,50,-14,5,-6,-8
1499879229503576,-19,-9,-53,-21,35,-4,-21,-28
1499879229525624,5,4,30,22,-10,-1,11,-5
1499879229525624,12,35,27,22,5,-2,17,57
1499879229526567,-11,-42,-102,-79,-4,-5,-38,-16
1499879229526567,17,12,27,46,-13,-3,17,33
1499879229539553,-4,15,-14,-48,9,5,-11,-25
1499879229539553,-5,-42,-19,68,-17,-2,3,18
1499879229540596,1,54,8,-33,30,-1,-7,-28
1499879229540596,-5,-46,1,35,4,0,-11,14
1499879229561599,-16,-55,-11,-27,1,-7,-29,-26
1499879229561599,9,36,0,16,-3,4,0,1
1499879229570563,-1,15,-93,15,-8,4,16,12
1499879229570563,-20,-56,69,11,-16,-5,3,17
1499879229585616,17,13,-61,18,5,-1,21,-8
1499879229585616,-14,-6,18,1,6,-1,-54,-63
1499879229587557,12,9,20,7,-35,-9,0,-5
1499879229587557,-24,-5,-5,-26,20,5,30,-10
1499879229608567,25,76,79,50,-9,-3,-4,30
1499879229608567,13,-29,29,-24,-6,4,29,33
1499879229609558,-38,-9,-10,-6,15,-7,-41,-32
1499879229609558,23,41,39,13,10,5,-9,1
1499879229621591,6,-5,-64,22,-5,3,6,8
1499879229621591,-10,38,-28,-27,-3,-6,-2,-15
1499879229630559,14,-1,90,32,-3,0,17,34
1499879229630559,7,6,16,-33,-43,-6,-22,17
1499879229645559,-22,-3,-85,18,20,-1,-13,-72
1499879229645559,7,10,24,-19,-16,6,-2,6
1499879229647562,12,-21,15,54,16,9,15,20
1499879229647562,-16,36,-30,-2,-27,-3,0,-17
1499879229668565,-27,-40,26,-7,-3,-6,-11,8
1499879229668565,-3,26,-10,-21,25,9,19,5
1499879229669569,-1,-27,14,-11,-5,-2,5,6
1499879229669569,13,15,74,9,-9,-10,-11,-10
1499879229681589,-10,-18,-75,3,-7,-5,-30,-30
1499879229681589,-10,-42,89,14,10,-3,10,-15
1499879229690570,-9,8,-6,8,7,7,1,10
1499879229690570,10,1,-37,-46,-10,-1,10,-11
1499879229705564,6,-22,0,-5,-32,-4,36,45
1499879229705564,-6,6,35,-54,32,-8,-59,-37
1499879229707567,13,15,7,32,-13,-1,19,16
1499879229707567,-18,-41,-103,-72,-8,-4,-4,-14
1499879229728636,4,-26,1,13,3,1,2,0
1499879229728636,-6,20,-70,42,-6,7,14,23
1499879229729575,29,31,10,20,8,0,9,0
1499879229729575,-8,-19,-14,-16,5,1,-7,-9
1499879229741610,-10,-10,-5,-16,-1,0,13,18
1499879229741610,29,-1,18,16,-14,-4,12,43
1499879229750565,-20,-1,92,-49,-2,1,-14,-46
1499879229750565,17,-5,-74,52,-21,-5,-22,-10
1499879229765589,-4,8,67,-46,34,8,16,22
1499879229765589,0,6,-4,11,-20,-5,-3,-33
1499879229767599,-5,-32,27,-16,18,-2,-1,14
1499879229767599,-1,-2,14,22,-18,1,2,-15
1499879229788586,5,6,27,62,33,-1,-15,12
1499879229788586,-8,2,-43,-41,6,-2,13,6
1499879229789568,-3,-15,-36,-33,-32,-6,-10,-35
1499879229789568,-8,18,67,46,31,-2,-4,-10
1499879229801614,33,42,-50,-40,-3,3,0,19
1499879229801614,-7,-61,5,15,12,4,11,22
1499879229810578,-24,-14,-80,-9,-4,-4,7,-6
1499879229810578,16,48,46,47,-10,1,1,19
1499879229825577,-14,-51,39,-84,-32,-3,0,-2
1499879229825577,2,18,-20,47,25,-3,-18,-6
1499879229827571,24,-6,-64,-37,25,1,35,64
1499879229827571,-31,-4,-48,-6,3,1,-16,-29
1499879229848608,12,87,49,29,-31,-13,-11,9
1499879229848608,-14,-11,7,-4,9,8,-1,-31
1499879229849573,-18,-53,-53,9,6,-3,-5,-7
1499879229849573,21,51,20,9,10,2,13,37
1499879229861615,-10,-69,-25,6,23,4,8,-1
1499879229861615,-35,-46,-43,-30,-35,-12,-17,-25
1499879229870579,17,26,6,14,0,5,-7,-4
1499879229870579,0,37,32,-56,6,-3,-12,-11
1499879229885626,9,1,28,0,-30,-3,-4,-4
1499879229885626,9,67,-25,58,36,3,10,9
1499879229887574,-6,-99,-4,-10,-3,-11,-8,14
1499879229887574,-17,-27,13,1,-5,-2,-2,-8
1499879229908617,3,13,2,44,17,7,-10,-20
1499879229908617,-1,-13,-43,-80,-18,2,29,20
1499879229909576,5,64,52,37,-22,-10,-30,-12
1499879229909576,1,-44,12,7,18,4,-3,-9
1499879229921621,-27,-68,-97,-46,22,-2,-6,-15
1499879229921621,10,-2,17,5,-21,0,-6,-3
1499879229930576,-1,40,-10,-21,-11,3,28,3
1499879229930576,-7,-30,32,31,2,-8,-38,-32
1499879229945643,11,36,33,-4,16,0,0,2
1499879229945643,1,21,46,7,-3,1,-3,0
1499879229947576,5,11,38,-9,-14,1,-20,-11
1499879229947576,3,-6,-82,7,10,1,30,4
1499879229968621,-3,1,12,11,-6,-3,-25,-5
1499879229968621,2,-64,32,-27,2,-3,-17,-16
1499879229969579,-4,-13,14,20,-7,-1,12,6
1499879229969579,2,10,-13,-26,15,5,49,57
1499879229981624,-9,-18,9,36,-4,-9,-45,-64
1499879229981624,1,13,-1,-4,7,-2,-11,-1
1499879229990592,-3,3,-2,-8,-14,1,3,2
1499879229990592,29,35,-20,7,12,0,6,14
1499879230005590,-36,-61,25,-16,-55,-3,30,15
1499879230005590,-7,13,-47,20,27,-5,-38,-41
1499879230007580,-2,-32,9,-24,-11,-4,1,11
1499879230007580,-17,-25,-10,12,-10,1,-9,-10
1499879230028629,23,81,24,-38,5,3,11,11
1499879230028629,3,-50,-46,2,-7,-9,14,36
1499879230029603,1,3,-52,1,18,8,-3,-36
1499879230029603,-17,-10,24,0,-39,-10,-22,-7
1499879230050616,-6,-12,-12,28,11,1,7,-5
1499879230050616,0,15,22,-42,-5,1,-2,9
1499879230052584,17,39,28,18,19,8,15,24
1499879230052584,-3,12,34,22,-11,2,3,-33
1499879230065634,4,-3,-94,23,3,-7,-23,-41
1499879230065634,-7,-13,13,-35,-18,-2,10,-5
1499879230067585,-3,-6,-29,17,-1,1,-1,3
1499879230067585,3,8,-33,-57,-18,0,16,18
1499879230088651,14,33,52,31,27,-1,-13,-5
1499879230088651,-8,-5,-20,4,-14,3,9,30
1499879230089586,-27,-8,12,30,1,-9,-3,-38
1499879230089586,-2,20,-14,-17,-17,-5,-22,-5
1499879230110632,3,-5,-3,3,-12,4,12,2
1499879230110632,2,17,-28,-10,14,2,10,10
1499879230112590,16,25,88,15,9,7,41,66
1499879230112590,-4,-3,31,-16,13,-4,-40,-71
1499879230124633,19,9,-9,-6,-31,-9,2,12
1499879230124633,4,29,92,-10,-2,11,-12,-17
1499879230131649,5,38,2,24,18,-3,11,11
1499879230131649,-21,-58,-2,-16,-4,6,27,34
1499879230148654,-7,-14,28,-13,6,0,-5,1
1499879230148654,25,39,-42,40,-15,-4,12,10
1499879230149590,-19,-38,-73,-2,-13,-9,-31,-39
1499879230149590,2,-23,-2,-64,5,-6,-7,10
1499879230170628,6,9,22,10,41,4,11,18
1499879230170628,-12,-22,-14,-4,-9,-8,-1,-8
1499879230172591,22,54,33,-12,8,5,10,25
1499879230172591,-23,-96,-85,-32,-9,-8,-48,-50
1499879230184624,-14,38,76,16,-6,0,4,12
1499879230184624,-10,-11,12,1,-13,0,-11,-28
1499879230193608,-2,-14,42,-5,-9,2,4,3
1499879230193608,20,47,11,19,24,-5,10,10
1499879230208636,-11,-36,-108,-23,-4,2,4,7
1499879230208636,-1,4,-28,5,1,0,10,4
1499879230209593,-5,45,31,-1,-27,-2,-18,-16
1499879230209593,-2,-20,27,73,-3,3,31,35
1499879230230633,6,-13,-38,-80,-4,2,-2,-22
1499879230230633,21,29,-4,14,4,-5,8,14
1499879230232626,-11,-17,-42,-4,-35,-6,-4,9
1499879230232626,14,19,5,22,44,15,2,0
1499879230245599,-13,30,19,6,17,-2,21,11
1499879230245599,-7,-27,44,49,-24,1,-15,7
1499879230251635,9,6,-21,-40,-2,-1,12,10
1499879230251635,7,9,59,25,0,0,-9,7
1499879230268671,-12,-25,-76,-10,16,-3,6,4
1499879230268671,-7,16,-6,-6,-18,-7,-8,-10
1499879230269597,15,-2,-9,-3,25,5,-2,10
1499879230269597,-16,-10,-11,-28,12,-7,13,-9
1499879230298633,0,12,-61,16,-12,2,4,-1
1499879230298633,2,-9,19,22,-3,-4,-7,30
1499879230299598,-1,3,-39,16,-4,-7,-16,-47
1499879230299598,4,4,60,-83,-17,5,26,3
1499879230304649,-10,-52,25,13,-19,-5,-32,-23
1499879230304649,0,17,28,-11,28,0,-2,-2
1499879230311641,-3,2,23,30,-3,1,2,18
1499879230311641,-4,23,-75,10,-24,-5,2,3
1499879230328600,3,-41,41,14,37,4,9,19
1499879230328600,-20,6,26,-8,-20,3,27,-17
1499879230329601,12,-38,37,-23,36,-2,-25,-9
1499879230329601,-1,14,-45,-30,-19,-9,-5,19
1499879230350639,-1,22,61,-6,-26,6,-6,-20
1499879230350639,5,-2,4,38,1,-6,0,-21
1499879230352605,-17,-11,-51,-9,37,5,2,6
1499879230352605,1,-29,13,18,10,-1,0,17
1499879230365613,13,19,57,17,-6,0,5,2
1499879230365613,-9,-28,-34,-8,2,-2,-29,-37
1499879230373638,-8,58,-26,0,-2,-2,0,-5
1499879230373638,1,-36,-3,-40,-26,-7,-7,-5
1499879230388633,-4,-12,-10,-11,-36,0,13,18
1499879230388633,15,23,-7,8,29,1,-2,3
1499879230389603,-4,-69,-72,-25,-15,2,27,20
1499879230389603,0,23,59,60,20,2,-30,-20
1499879230410637,-3,37,6,-2,-6,-9,-11,-16
1499879230410637,-13,-57,-87,-37,-19,-2,-12,8
1499879230412605,1,11,-19,3,-15,-4,5,-15
1499879230412605,19,9,68,11,14,3,21,10
1499879230424637,-2,-16,-51,18,11,4,-14,0
1499879230424637,11,1,39,22,7,-1,1,7
1499879230431605,-5,2,77,4,-7,-4,-15,-6
1499879230431605,-3,0,-60,2,-19,0,7,-15
1499879230448624,-2,47,18,-60,40,2,-10,12
1499879230448624,4,-19,-40,4,3,3,13,7
1499879230449612,-7,-4,41,23,3,-2,-14,-3
1499879230449612,-3,25,23,7,-16,-1,1,2
1499879230470646,-1,2,-3,9,-1,-4,-16,-34
1499879230470646,6,23,70,0,-7,4,7,3
1499879230472607,-7,17,-59,-29,13,-3,7,6
1499879230472607,4,-59,14,19,-13,-1,-7,22
1499879230484647,4,24,-31,-4,20,-1,0,9
1499879230484647,-7,-15,9,-31,-8,-3,-1,-5
1499879230491655,-1,-2,5,5,-10,-1,-1,-2
1499879230491655,-10,12,-1,-3,7,3,28,-15
1499879230508669,13,26,14,-6,-47,-2,-23,10
1499879230508669,-4,-23,36,24,39,-4,9,2
1499879230509609,-1,5,-59,1,8,1,-11,4
1499879230509609,-10,-3,-22,-30,-7,-1,-4,0
1499879230530651,-10,-27,-26,35,-8,-2,3,-8
1499879230530651,21,49,-48,-16,-9,0,-2,-10
1499879230532645,0,-44,28,-15,-9,-3,7,10
1499879230532645,1,9,-10,35,36,4,0,8
1499879230544637,3,8,19,-20,-13,-6,9,18
1499879230544637,-25,-15,-12,4,3,2,-14,-25
1499879230553612,18,-1,5,-21,12,3,5,9
1499879230553612,-4,10,56,8,11,3,-7,-5
1499879230568682,6,-6,-57,43,-5,1,-16,-9
1499879230568682,-2,-5,69,31,3,-8,-14,3
1499879230569613,-9,21,-23,-45,-28,-2,-9,-16
1499879230569613,2,15,-30,-11,-15,0,2,19
1499879230590655,-10,-69,-9,23,17,1,21,4
1499879230590655,-10,3,41,-12,-18,-3,9,-7
1499879230592614,19,-3,-47,-28,-6,5,-5,2
1499879230592614,8,9,7,28,-2,-3,-2,-11
1499879230604645,-12,0,8,-15,-8,-8,0,-4
1499879230604645,7,0,-51,3,28,1,20,21
1499879230613616,-17,-6,37,-21,-14,-10,-16,-29
1499879230613616,16,-2,2,20,9,2,6,14
1499879230628642,1,18,-7,8,-12,2,-2,9
1499879230628642,-4,12,-20,-33,-11,5,-15,16
1499879230629627,-4,-17,3,58,14,-2,1,-32
1499879230629627,-1,13,-16,-34,-12,-2,0,9
1499879230650663,-13,-37,52,13,-9,0,13,-9
1499879230650663,6,23,-37,-33,-5,-2,-13,-21
1499879230652619,-20,-17,18,15,-4,-3,-5,-10
1499879230652619,11,25,3,27,-32,-5,10,11
1499879230664638,4,30,-22,-61,27,1,-3,-5
1499879230664638,11,-33,46,24,25,3,5,1
1499879230673621,-8,-8,-36,12,-14,-3,10,16
1499879230673621,-19,12,21,12,-8,-5,-13,-16
1499879230688634,4,-5,6,-5,-2,-4,-2,-19
1499879230688634,-10,20,-20,16,-19,1,4,2
1499879230689621,12,4,38,-8,13,-1,-9,18
1499879230689621,5,13,2,-27,4,7,11,-12
1499879230710660,3,2,47,52,2,1,-4,-3
1499879230710660,-6,20,-9,-51,-11,-1,-5,2
1499879230712621,-5,-11,34,16,-11,0,0,-5
1499879230712621,-16,-40,6,-21,-12,-4,2,10
1499879230724665,13,-1,4,61,26,2,1,6
1499879230724665,18,-29,-67,5,-7,1,6,4
1499879230733638,-10,31,29,-1,-3,5,6,17
1499879230733638,0,12,-79,-1,14,1,-5,-11
1499879230748638,-13,-7,-27,-65,-21,-5,6,-6
1499879230748638,-3,-8,-2,6,-10,-3,-8,6
1499879230749627,16,1,21,7,10,2,-12,-24
1499879230749627,7,18,7,16,24,2,2,16
1499879230770663,8,-8,-15,-24,-7,-2,-9,-9
1499879230770663,-10,23,-50,-17,-3,-1,2,-2
1499879230772625,2,-36,-4,-6,6,1,5,49
1499879230772625,-2,-18,-56,7,-8,1,2,8
1499879230784661,0,3,39,4,17,-4,9,-14
1499879230784661,-20,-44,2,-50,-5,-7,0,32
1499879230793628,2,-5,-7,30,-18,-4,-38,-26
1499879230793628,12,-10,-9,3,14,4,-6,8
1499879230808638,-12,-20,20,20,-8,-1,11,25
1499879230808638,-4,16,-10,-16,-6,-4,-11,-31
1499879230810627,-1,52,-4,-10,25,2,36,-48
1499879230810627,-4,-90,56,-6,-1,-2,-27,40
1499879230831635,-10,27,-30,18,-11,-2,-2,-20
1499879230831635,11,19,76,34,-3,-2,5,5
1499879230832630,-3,-3,21,-33,-9,-9,-17,-6
1499879230832630,-7,20,22,-19,6,6,10,-22
1499879230844657,13,-11,-22,5,2,5,0,16
1499879230844657,-2,-17,54,18,-7,-6,-15,7
1499879230853631,-22,-29,-100,-2,-39,-3,11,15
1499879230853631,-4,6,107,-21,-6,-3,1,-26
1499879230868630,2,28,-64,8,38,5,3,16
1499879230868630,14,28,31,20,7,3,1,-12
1499879230869633,2,8,-31,17,1,0,5,-4
1499879230869633,5,-31,-26,-32,-11,-3,-12,-5
1499879230890632,-12,9,21,-9,-15,-6,-7,0
1499879230890632,-2,-1,-34,26,-1,-2,8,-3
1499879230892641,1,18,90,37,-10,-1,-23,-40
1499879230892641,-14,-3,-125,-22,33,-2,-6,9
1499879230904631,10,-20,7,-9,7,2,-7,4
1499879230904631,1,27,-8,-11,-7,-5,-3,2
1499879230913634,-13,-33,-5,-1,-2,2,6,-14
1499879230913634,-4,4,-5,20,-6,-7,-5,-24
1499879230928635,-3,9,34,2,-7,-1,-3,-6
1499879230928635,5,-13,-55,-33,5,0,27,34
1499879230929635,1,-23,-27,6,-11,0,-4,-21
1499879230929635,12,32,14,-42,7,-3,-20,-15
1499879230950672,-8,-17,11,-3,-1,-3,4,18
1499879230950672,-5,-21,32,3,-8,-1,-12,-21
1499879230952635,11,12,51,7,-5,1,9,10
1499879230952635,-10,20,-6,-28,14,-2,4,-6
1499879230973681,-7,-39,-79,-48,-12,-6,-11,-14
1499879230973681,5,-5,20,20,3,4,-1,6
1499879230974648,14,-3,-3,-26,-11,-5,4,33
1499879230974648,-45,-34,-73,13,-21,-9,12,-38
1499879230988637,38,49,54,21,-3,3,-5,27
1499879230988637,-12,-3,-20,-23,-3,6,-2,-23
1499879230989644,8,-2,17,4,47,0,-4,3
1499879230989644,5,7,10,8,-23,-1,0,37
1499879231010678,-9,-24,46,1,2,0,-2,-26
1499879231010678,-8,-14,-53,-10,-8,-4,-15,13
1499879231012638,4,24,61,27,13,2,-7,-27
1499879231012638,-4,5,-51,-1,-10,-3,7,-8
1499879231033690,2,17,45,13,-5,1,3,1
1499879231033690,-6,-9,-19,1,5,1,17,10
1499879231034641,-11,4,-13,0,14,1,-3,-7
1499879231034641,2,2,52,15,-18,-5,-4,7
1499879231048684,22,-6,30,-6,-17,2,-5,4
1499879231048684,0,15,-10,12,15,-7,-2,-9
1499879231049651,-1,-11,-81,-18,-13,-2,25,43
1499879231049651,-2,12,54,27,-9,1,-10,-35
1499879231070684,-8,-24,-80,-62,25,-6,-26,-3
1499879231070684,2,-17,15,8,-16,-4,-2,-14
1499879231072673,-6,1,9,-6,10,-1,-7,-8
1499879231072673,2,-11,-50,-2,6,6,19,15
1499879231092654,-14,19,38,-4,15,0,1,-15
1499879231092654,-5,-2,-19,20,-18,0,-6,-8
1499879231100670,4,4,43,14,20,-3,8,30
1499879231100670,15,35,10,-20,-14,-1,4,-11
1499879231108661,-8,-8,-17,-2,-3,-2,6,25
1499879231108661,2,4,15,-16,-1,-1,8,-15
1499879231109644,-14,7,32,17,-15,-5,-52,-19
1499879231109644,25,-11,54,34,19,6,6,18
1499879231130685,-21,-48,-95,-11,-12,-5,6,-1
1499879231130685,-1,-49,40,-43,3,-6,-17,-10
1499879231136705,-3,28,-22,17,-4,7,27,15
1499879231136705,-8,-29,-17,-13,11,-6,-19,-13
1499879231153658,5,14,14,-15,-9,1,-8,7
1499879231153658,8,13,-27,-9,13,-1,2,-10
1499879231154657,-7,-16,-17,-6,14,-2,5,-11
1499879231154657,-1,25,-2,-19,8,5,2,8
1499879231167690,4,22,68,68,-16,3,12,-10
1499879231167690,3,-1,-62,-38,-11,-1,1,25
1499879231174676,-3,7,-41,-57,-6,-4,2,-17
1499879231174676,-1,1,24,18,14,3,9,5
1499879231190688,-3,-25,-65,19,-15,-7,-11,-1
1499879231190688,-4,16,55,47,15,-1,-10,-5
1499879231192650,-7,-3,-11,-7,-35,0,17,14
1499879231192650,12,5,12,16,-8,6,-4,-21
1499879231213670,5,15,-33,-11,35,3,3,23
1499879231213670,-12,-16,28,33,-13,-6,8,15
1499879231214650,3,-7,-39,-31,-16,4,-6,-29
1499879231214650,-1,21,75,6,-13,-6,-1,5
1499879231227692,9,50,45,11,-2,-4,12,18
1499879231227692,0,13,-6,-3,8,4,-19,-37
1499879231234684,-16,-3,5,26,11,-1,-3,25
1499879231234684,14,-18,-7,-10,-12,-6,-10,3
1499879231250696,-9,-4,-19,-19,-4,-1,-2,-23
1499879231250696,8,19,76,15,2,1,18,22
1499879231252654,-7,-62,-90,-23,-9,-2,-11,-11
1499879231252654,0,9,42,13,5,0,-11,-3
1499879231273682,1,5,13,18,1,0,5,4
1499879231273682,3,12,66,-32,2,3,15,8
1499879231274666,9,31,-9,15,4,3,-11,-10
1499879231274666,5,-48,-85,3,37,-8,-6,-23
1499879231287725,-24,-30,-37,-24,-35,-5,10,1
1499879231287725,-11,11,5,29,-4,-2,-15,-13
1499879231294667,13,-19,-6,-40,18,1,2,-4
1499879231294667,-4,36,12,1,-5,-3,-3,13
1499879231310694,6,-68,-22,-24,-9,-3,-3,11
1499879231310694,-6,-17,-5,23,-5,3,-8,5
1499879231312657,1,19,60,39,-7,-4,11,23
1499879231312657,-3,-7,-63,7,-10,1,13,12
1499879231333682,15,62,-10,-4,14,4,-10,-1
1499879231333682,-9,-42,-83,-26,-26,-11,-14,-28
1499879231334657,-6,-15,26,13,32,-1,-9,3
1499879231334657,-6,9,-4,28,-1,3,4,-1
1499879231355727,0,11,58,-28,0,2,12,9
1499879231355727,2,20,-24,-15,-18,-4,-10,-18
1499879231357659,-5,-3,20,9,-2,3,4,1
1499879231357659,-4,-6,-18,1,3,2,-5,2
1499879231370699,0,10,52,2,-21,-3,-2,-6
1499879231370699,1,-4,-57,31,19,4,-1,10
1499879231372661,5,19,-3,-38,-17,-3,9,11
1499879231372661,-1,-30,-26,-24,-22,-4,21,13
1499879231393682,-1,34,109,43,11,-6,-42,-18
1499879231393682,-8,-72,-43,-15,1,3,3,1
1499879231394662,5,38,24,9,7,-2,-4,-5
1499879231394662,-4,-7,-35,-19,8,5,3,12
1499879231407703,-1,-3,-35,-16,5,2,11,2
1499879231407703,7,7,0,38,25,0,6,-12
1499879231414680,-8,20,8,12,-12,2,-16,-3
1499879231414680,-19,-31,-13,-14,-12,-8,1,-32
1499879231430677,-7,-41,11,35,-11,-6,-9,-24
1499879231430677,2,44,90,-40,17,1,0,25
1499879231432663,28,4,-22,20,3,8,41,29
1499879231432663,-17,-4,7,-23,-7,-1,-34,-37
1499879231453682,-3,-14,-50,32,-8,-11,-3,-4
1499879231453682,7,34,18,-39,9,7,2,4
1499879231454671,7,17,18,46,6,-5,-6,10
1499879231454671,-6,-50,55,-49,-8,-2,27,5
1499879231466728,-3,-5,-78,-32,13,7,-6,-32
1499879231466728,15,34,36,32,0,-3,-10,32
1499879231475704,1,-14,-40,2,-10,0,5,-11
1499879231475704,2,24,11,9,-8,-3,-13,20
1499879231490677,-12,-13,-16,-37,4,-1,9,-29
1499879231490677,-5,0,6,-5,-3,-3,1,-10
1499879231492699,-6,-15,45,-8,-6,0,-9,-4
1499879231492699,19,30,11,61,8,0,20,36
1499879231513667,-8,-14,24,-81,-20,-7,-19,-28
1499879231513667,-6,-7,8,66,16,5,1,-12
1499879231514666,-10,1,38,-58,-9,-7,-11,-15
1499879231514666,5,24,-36,-4,15,6,21,18
1499879231526667,3,-13,77,19,-45,-7,-32,-15
1499879231526667,-2,14,-64,1,80,-1,-10,-4
1499879231543670,-9,-19,-23,-17,-13,-3,-8,-9
1499879231543670,-2,-29,21,3,-8,-8,-4,-1
1499879231551671,15,29,-53,21,17,11,21,38
1499879231551671,-3,-23,-13,-20,-36,-3,24,5
1499879231552670,-3,8,21,5,11,1,-22,-53
1499879231552670,3,-2,-11,-17,9,-4,-9,-7
1499879231572670,-8,9,-17,17,0,-4,6,-1
1499879231572670,6,-17,-33,10,-4,-1,0,8
1499879231574670,4,7,-43,-29,0,-1,23,26
1499879231574670,-5,-9,-72,-10,-18,0,-31,-22
1499879231586671,-3,-2,14,1,10,1,7,13
1499879231586671,-6,-7,0,-18,-13,-4,-4,-10
1499879231595671,-3,-12,-3,-16,-19,-2,3,5
1499879231595671,-1,9,75,66,25,3,10,10
1499879231610682,11,45,4,-30,-8,-4,-15,-31
1499879231610682,-11,-79,30,-4,-17,0,-4,-6
1499879231612673,-6,-24,-47,-13,9,-3,5,-3
1499879231612673,3,22,-15,8,-18,0,1,8
1499879231632706,-12,11,-50,9,18,2,17,-8
1499879231632706,11,11,31,7,-27,0,-7,9
1499879231634674,10,-16,20,12,11,0,-3,1
1499879231634674,-1,-2,8,7,2,-1,-15,-10
1499879231646702,2,-16,36,2,-1,2,12,25
1499879231646702,-1,16,-58,-25,-19,-4,-2,0
1499879231655677,1,-14,-40,-7,-5,-3,1,6
1499879231655677,0,25,82,3,20,6,-3,-4
1499879231670681,-3,-6,-43,10,-18,-2,-3,-13
1499879231670681,1,-10,-31,1,10,-6,-8,1
1499879231672677,-14,-13,-29,4,1,4,-4,-16
1499879231672677,-7,-13,10,-7,-42,-4,-3,2
1499879231693677,1,-1,9,-14,38,-1,1,14
1499879231693677,5,33,8,-8,-2,-3,6,12
1499879231694700,-1,-16,-3,10,-3,-4,-7,9
1499879231694700,-2,-4,4,-20,-4,1,-2,-22
1499879231706677,4,14,20,49,-13,2,-8,7
1499879231706677,-12,4,-30,-52,-8,-5,-10,-18
1499879231715681,3,-17,19,40,0,-4,-1,17
1499879231715681,-5,11,-13,-50,3,1,-7,-15
1499879231730686,12,14,2,4,-2,1,11,7
1499879231730686,-15,-54,-10,29,15,1,-11,-9
1499879231732683,-5,16,-15,-25,-18,-1,-1,-8
1499879231732683,-7,-25,1,9,-6,-1,12,5
1499879231753711,4,26,23,21,-10,-1,-14,13
1499879231753711,-4,26,53,-20,4,-2,3,-4
1499879231754681,-1,-48,-15,-3,19,4,22,-1
1499879231754681,4,34,-18,1,7,2,-18,5
1499879231766682,-7,-27,23,-27,10,1,5,-3
1499879231766682,-4,-7,38,11,-13,1,-4,-2
1499879231775683,-8,7,-4,12,16,-4,-7,-5
1499879231775683,2,-6,-4,28,12,-5,3,6
1499879231790688,-2,-11,5,-58,-20,-2,5,7
1499879231790688,4,38,20,9,2,6,13,3
1499879231792685,4,-19,33,-7,-9,1,-20,4
1499879231792685,-11,21,-11,20,2,-4,0,-4
1499879231812717,-4,-2,32,23,0,-6,-20,-14
1499879231812717,2,-1,-14,-8,-2,3,15,-3
1499879231820685,-2,26,17,-4,-9,0,-9,15
1499879231820685,7,17,4,3,-26,-3,-7,8
1499879231826713,-1,-64,-49,28,43,4,9,-3
1499879231826713,-5,14,47,-15,-5,-4,-1,8
1499879231835686,-4,-14,-26,-12,-14,-2,-5,-9
1499879231835686,-5,-26,11,-1,-16,-5,2,-15
1499879231850715,1,36,24,-16,33,-2,26,18
1499879231850715,14,19,-18,49,-16,2,-18,-10
1499879231852717,-12,-25,39,-34,-3,-4,-4,0
1499879231852717,11,9,-47,6,10,5,2,10
1499879231873687,-7,12,29,-6,-30,0,9,3
1499879231873687,9,-8,0,-13,21,0,14,6
1499879231874694,4,39,-8,23,-9,-7,-14,-5
1499879231874694,7,-15,-8,-4,15,-1,2,-1
1499879231886696,-12,-1,-18,11,-5,-1,-9,-8
1499879231886696,4,12,-14,-25,-19,-5,7,-14
1499879231895690,-9,-19,65,-2,9,3,-1,10
1499879231895690,-4,-7,-30,-14,-1,0,1,5
1499879231910718,8,-16,-37,2,-2,0,-7,-7
1499879231910718,-12,17,10,-5,7,2,3,14
1499879231912690,14,52,0,-4,-1,-2,-1,-47
1499879231912690,-18,-65,-17,19,-1,-9,-6,1
1499879231933722,-19,7,34,-3,-18,-4,-14,-15
1499879231933722,1,-19,-10,-15,-1,5,12,33
1499879231934692,-5,-9,-28,11,17,4,-3,-40
1499879231934692,5,21,-18,5,-6,-2,-5,-9
1499879231955726,5,-3,-51,-45,4,2,-2,2
1499879231955726,-4,-16,-9,-9,-49,-5,-4,-5
1499879231957695,1,21,88,38,41,3,18,17
1499879231957695,2,-15,48,7,0,-1,-14,-26
1499879231970727,4,-17,24,-7,-10,2,7,26
1499879231970727,7,20,-53,-16,0,-1,-9,-6
1499879231972694,-4,-24,69,-19,-20,-2,4,20
1499879231972694,-5,34,9,-5,23,-6,14,-11
1499879231993695,6,-8,-18,12,2,-4,5,-3
1499879231993695,-1,-14,-12,-5,11,3,-20,-15
1499879231994696,0,51,-53,-3,8,3,8,13
1499879231994696,-6,-36,28,-13,2,-1,3,3
1499879232015732,1,10,-20,3,-9,-2,-12,-18
1499879232015732,-2,-8,27,-1,-9,-10,-2,8
1499879232017701,3,14,-58,12,-19,-6,-7,-4
1499879232017701,0,9,56,-1,21,10,5,13
1499879232030696,5,-22,-26,0,1,1,8,-2
1499879232030696,-16,-22,-33,15,-5,-10,-10,-2
1499879232032699,-1,-16,-43,-43,-19,-5,-3,6
1499879232032699,0,11,52,-30,-21,-2,2,3
1499879232052707,4,15,-24,33,-1,8,4,0
1499879232052707,-6,-2,32,22,19,-2,-4,6
1499879232054700,-5,-28,-57,-15,-15,1,-12,-24
1499879232054700,7,29,-50,13,8,0,2,28
1499879232075700,-13,-6,98,3,-12,-3,-18,-35
1499879232075700,8,4,-61,-16,11,4,3,-7
1499879232077702,-11,-15,-15,-8,4,-2,1,11
1499879232077702,6,16,-43,12,-8,-2,-14,-11
1499879232089729,3,28,58,-31,4,-3,6,25
1499879232089729,-11,-77,-41,30,-6,3,12,15
1499879232096702,5,-3,31,-5,-3,2,8,17
1499879232096702,0,-10,-63,-21,-16,-2,-1,-33
1499879232113702,-2,-32,-28,33,35,-1,8,24
1499879232113702,-9,34,12,-1,-4,-4,-30,-31
1499879232114703,3,6,34,-8,-2,-1,-5,-8
1499879232114703,-7,-25,-25,-14,-16,4,7,12
1499879232135708,2,30,-7,-4,-13,-5,10,16
1499879232135708,7,-10,14,-17,11,-3,-11,-24
1499879232137712,-4,13,-54,31,-2,5,4,10
1499879232137712,7,17,37,-16,20,2,0,0
1499879232149704,2,-25,-39,-25,-11,2,4,4
1499879232149704,-13,-30,30,10,3,2,10,8
1499879232156771,5,22,51,-34,6,-7,5,13
1499879232156771,-11,-10,-1,-2,-15,-6,-17,-29
1499879232173722,4,4,-15,13,6,3,-5,-5
1499879232173722,12,56,-18,-1,7,7,4,0
1499879232174706,-1,-14,42,19,-9,-4,5,-2
1499879232174706,-1,27,17,1,3,2,4,12
1499879232195770,-11,-49,-94,-29,-40,-10,-13,-21
1499879232195770,0,9,30,5,56,3,-2,-5
1499879232197712,7,6,-22,19,-10,-2,-3,-1
1499879232197712,3,20,22,33,-8,0,6,12
1499879232209751,-11,-15,41,18,-7,-3,0,-8
1499879232209751,6,5,-2,-33,0,8,4,12
1499879232216777,0,-15,-86,8,-10,-1,4,-11
1499879232216777,-13,-38,29,-1,-6,-4,-12,4
1499879232232770,1,5,6,-21,10,2,2,2
1499879232232770,-5,36,21,10,-32,-6,-3,-9
1499879232239721,14,-26,-23,-12,9,0,-9,-6
1499879232239721,-3,20,20,5,7,-1,9,1
1499879232255752,-5,-18,-7,5,8,0,5,15
1499879232255752,-2,2,77,0,-8,-6,-7,-17
1499879232257710,-5,18,21,7,-17,0,-3,-10
1499879232257710,1,33,-13,4,23,0,2,10
1499879232269727,-1,15,1,12,-2,-4,-9,-16
1499879232269727,11,-2,8,8,-4,2,12,6
1499879232276756,-12,-17,3,-2,13,0,-3,0
1499879232276756,-8,1,36,15,-32,-5,-4,3
1499879232293730,10,21,-63,-39,27,12,11,23
1499879232293730,-7,-15,11,11,-22,-11,-1,-15
1499879232294713,-8,-5,-77,-17,6,-4,-27,-21
1499879232294713,-3,-37,4,-15,-14,-3,3,-3
1499879232315782,-3,49,38,29,15,3,-21,-21
1499879232315782,7,-19,-32,-7,-8,-3,-1,14
1499879232317714,0,4,16,-9,8,0,9,17
1499879232317714,7,9,-10,22,1,-3,0,-2
1499879232329784,-10,-19,-31,-20,-10,1,1,-10
1499879232329784,-8,-5,-33,17,19,1,2,-26
1499879232336757,7,2,59,-4,-8,-5,6,5
1499879232336757,1,-7,-36,-18,2,-1,-3,2
1499879232353733,-5,0,44,-18,-9,-7,-5,-6
1499879232353733,2,12,22,4,0,5,1,4
1499879232354717,-1,16,-21,-7,-4,0,5,15
1499879232354717,2,-29,-33,-12,-1,0,10,3
1499879232375785,1,10,90,24,-2,-1,-20,-7
1499879232375785,-12,-22,-60,-20,-2,-4,6,3
1499879232377717,-5,-1,54,13,3,2,-17,-18
1499879232377717,10,-21,21,7,11,0,-2,9
1499879232389782,3,13,-31,33,-5,-1,6,12
1499879232389782,-14,-28,-23,-60,-37,-8,-3,1
1499879232396785,3,18,59,-24,43,2,6,10
1499879232396785,1,8,-50,10,0,3,-7,-13
1499879232412759,0,-10,21,-1,-1,-2,8,-1
1499879232412759,5,28,-10,-12,9,-1,-4,9
1499879232414730,4,-3,-16,-1,-11,4,5,-5
1499879232414730,-10,-21,23,-3,1,-1,-6,-17
1499879232435793,4,-1,-38,5,4,-3,5,9
1499879232435793,2,7,-11,17,-7,0,-3,-12
1499879232437722,-4,10,-20,-1,-10,-7,-1,2
1499879232437722,-2,8,-3,1,13,-2,2,8
1499879232449762,-4,-32,7,16,-15,-1,10,12
1499879232449762,-10,-57,-8,-24,18,0,-19,-38
1499879232458734,5,-2,49,16,-9,1,-9,8
1499879232458734,5,22,-38,-1,9,-3,-5,0
1499879232472763,-3,-4,13,-21,-6,-3,-12,-17
1499879232472763,1,-14,-60,-6,-13,0,17,31
1499879232474756,2,17,16,7,8,-3,-16,-25
1499879232474756,1,-3,42,-4,-30,2,-4,6
1499879232495724,-2,16,64,39,46,-1,0,-19
1499879232495724,4,8,21,-9,11,3,-1,7
1499879232497725,-12,-36,-85,23,-24,-8,2,0
1499879232497725,9,25,10,-17,0,5,10,6
1499879232509744,-14,-49,-9,-17,-14,-2,-6,0
1499879232509744,1,54,76,26,-12,0,-3,-6
1499879232518759,-11,-37,-39,5,13,-3,10,16
1499879232518759,1,11,44,-9,-3,-3,1,-10
1499879232532787,3,23,-7,-14,-17,-3,11,34
1499879232532787,-5,-32,-28,-7,2,-2,-13,-28
1499879232534727,4,11,-22,-14,1,2,0,-9
1499879232534727,-7,4,-60,15,-4,-1,-3,-17
1499879232555797,7,16,-20,-18,21,0,3,14
1499879232555797,4,13,9,-9,-22,-9,-1,20
1499879232557728,2,11,26,14,-12,1,13,2
1499879232557728,-4,0,-19,3,24,5,-10,-8
1499879232577797,4,-1,-4,-16,-14,-2,-1,-1
1499879232577797,5,-14,-37,12,-6,0,0,4
1499879232579761,-3,6,31,-25,-1,3,1,1
1499879232579761,-8,-9,-3,11,-28,-12,-6,3
1499879232593739,3,-3,2,-23,16,8,7,-3
1499879232593739,0,3,17,15,22,-3,-6,-9
1499879232594731,8,4,-48,2,-30,-5,-7,10
1499879232594731,-7,-54,14,-9,13,1,4,0
1499879232615774,-7,-20,-23,-35,-18,-2,-3,-9
1499879232615774,3,26,12,50,13,3,7,20
1499879232617732,-7,-11,36,-39,-8,-2,10,-24
1499879232617732,3,-5,34,-16,-7,-4,-12,-2
1499879232629749,5,13,2,29,32,3,-7,2
1499879232629749,2,-3,47,21,11,1,5,11
1499879232638734,-2,2,0,9,-51,-6,-9,-3
1499879232638734,8,16,-15,-32,62,10,18,8
1499879232653750,-15,4,-7,35,-18,-4,-12,-31
1499879232653750,4,-16,84,-15,-14,1,-5,6
1499879232654734,-5,17,28,16,8,2,10,12
1499879232654734,-3,6,2,37,-10,-9,-11,-13
1499879232675786,2,20,-49,-64,-10,3,0,-2
1499879232675786,-4,0,7,3,-32,-1,-1,-5
1499879232676738,-3,-31,-94,4,76,2,-2,1
1499879232676738,1,15,68,-7,-19,-2,4,3
1499879232689753,2,17,25,18,-16,-7,-7,-4
1499879232689753,-9,-4,-11,-15,-9,1,2,3
1499879232698737,1,-30,-14,-10,2,3,-2,-2
1499879232698737,1,10,-25,-19,-32,-5,2,-4
1499879232713754,-4,-1,-78,37,21,3,3,9
1499879232713754,12,4,7,-23,-3,1,1,-3
1499879232714739,-10,9,41,13,3,0,-2,-15
1499879232714739,5,23,0,27,-22,-1,8,12
1499879232735777,-5,-15,25,4,23,2,-7,-15
1499879232735777,4,-11,-77,1,1,-6,-2,9
1499879232737739,-3,9,40,-3,-4,-3,-6,5
1499879232737739,-7,-20,-37,-7,-13,-2,-4,-7
1499879232749750,8,13,17,9,-1,0,12,15
1499879232749750,-3,15,-20,5,24,0,0,-1
1499879232758741,2,-5,53,7,7,1,1,-5
1499879232758741,-15,12,26,-9,-14,-5,-4,-15
1499879232772740,9,-1,-26,-33,-32,-4,-7,6
1499879232772740,-10,3,-16,-15,18,2,3,-3
1499879232774742,-3,15,-3,14,-11,-9,-7,2
1499879232774742,4,-1,-66,2,22,5,6,16
1499879232795808,-9,-7,-3,31,-8,-2,5,-39
1499879232795808,7,-25,30,-17,-21,-5,-9,-4
1499879232797744,-7,19,11,-23,9,-1,1,-3
1499879232797744,0,-19,-6,28,10,-1,-3,8
1499879232809761,1,-7,-21,-24,0,4,13,31
1499879232809761,-3,-1,-44,24,-23,-6,-6,-33
1499879232817752,-2,-1,-7,-5,7,2,-7,2
1499879232817752,6,15,4,-14,-1,0,10,9
1499879232832820,1,-14,52,-14,0,-4,-23,-7
1499879232832820,1,1,12,30,27,4,7,13
1499879232834744,-2,13,-44,-5,-8,3,0,-2
1499879232834744,7,-21,43,29,-8,-1,-5,3
1499879232855787,-15,12,5,-9,-10,-6,-6,-32
1499879232855787,-3,-25,34,-19,1,1,0,-4
1499879232857746,9,4,5,17,0,-6,-5,-1
1499879232857746,-5,7,-12,-33,-5,1,10,6
1499879232877789,-1,-51,-7,30,6,0,3,2
1499879232877789,-12,9,-45,5,3,0,-5,-6
1499879232879779,6,-4,40,1,-7,-1,2,5
1499879232879779,-8,-7,16,-43,2,-7,-5,-14
1499879232892810,7,-8,-6,-20,-7,3,4,11
1499879232892810,5,22,-17,14,6,-3,-2,11
1499879232894780,11,-1,7,9,-8,2,10,9
1499879232894780,-21,-51,-45,-26,3,-8,-18,-23
1499879232915782,5,15,62,11,3,4,4,-3
1499879232915782,0,12,-7,-1,2,3,4,6
1499879232917749,4,22,-22,1,-12,1,13,8
1499879232917749,-4,-1,8,-23,0,-3,-22,-9
1499879232937769,3,-23,-46,-9,1,-6,-2,10
1499879232937769,1,-1,5,3,9,1,2,-6
1499879232939783,-5,-7,13,-2,3,-1,0,5
1499879232939783,3,9,-69,8,-4,-1,8,2
1499879232951783,3,3,44,23,-9,-3,3,1
1499879232951783,-2,2,-39,-48,-8,-5,-12,4
1499879232960753,4,9,35,8,30,9,-1,2
1499879232960753,8,11,63,10,2,6,8,6
1499879232975805,-5,1,4,-10,-20,-9,-9,-2
1499879232975805,2,-10,-11,1,16,-4,4,2
1499879232976751,-2,-1,3,-5,-4,4,1,4
1499879232976751,-1,1,48,-9,2,3,-3,0
1499879232997799,-4,-21,-81,12,0,-1,3,1
1499879232997799,-2,8,19,-11,-12,0,-4,-9
1499879232999760,6,4,-86,-4,-9,-5,-3,-6
1499879232999760,-6,18,30,16,7,-1,-2,6
1499879233012795,-4,-9,-7,-52,-10,-5,-6,2
1499879233012795,-1,-13,20,19,-15,-5,6,-1
1499879233019762,-15,-29,-51,45,17,3,-12,-16
1499879233019762,9,10,14,-24,-2,1,3,2
1499879233035765,3,29,19,15,-2,-2,3,-6
1499879233035765,-6,-10,11,-9,3,5,-4,8
1499879233037757,5,13,65,-8,-39,-3,2,4
1499879233037757,5,-23,-62,-23,42,-3,-10,-2
1499879233057832,-6,13,3,19,6,0,4,7
1499879233057832,3,-17,14,-20,-17,-6,-2,-39
1499879233059789,-1,-1,15,4,11,-1,-1,4
1499879233059789,-2,0,-20,19,-15,-2,-1,-6
1499879233072795,1,0,-18,-2,15,5,0,1
1499879233072795,-3,5,8,14,-18,-3,0,4
1499879233079769,1,-6,-7,-9,-9,-9,2,5
1499879233079769,0,9,-8,8,-1,7,-2,-8
1499879233095825,-1,-1,21,6,19,-4,-5,5
1499879233095825,4,29,78,0,6,4,3,3
1499879233096759,-15,-46,12,-36,-48,-9,-10,-7
1499879233096759,13,33,3,38,53,4,21,8
1499879233118770,-3,-30,-50,51,-23,-5,-26,-17
1499879233118770,-8,-1,-43,-64,0,0,-5,-3
1499879233119793,9,-2,16,-10,12,-1,-3,2
1499879233119793,-7,-9,12,18,-19,-2,2,2
1499879233132808,-5,4,-38,-20,-7,2,8,-7
1499879233132808,1,5,-15,19,-1,-2,7,12
1499879233139794,-4,21,-34,0,-4,-5,-20,-17
1499879233139794,2,-39,-14,-10,9,-2,-9,-14
1499879233155831,-1,10,52,9,15,7,20,8
1499879233155831,0,12,-53,25,-13,-5,-40,-16
1499879233156785,-2,-9,17,-34,-10,-4,2,2
1499879233156785,-12,-13,-55,-16,10,0,-6,-3
1499879233177802,1,31,56,21,14,-1,2,3
1499879233177802,3,-3,39,-2,-14,3,13,4
1499879233179776,4,5,-10,45,7,-3,4,-3
1499879233179776,8,9,-10,-66,-12,-1,-4,6
1499879233192769,-11,-16,11,-25,-20,-1,1,2
1499879233192769,-4,-5,19,14,16,-5,8,7
1499879233199794,-1,13,-29,13,-1,6,-3,-5
1499879233199794,-4,-25,-37,9,-1,-3,-3,5
1499879233215807,3,19,14,2,0,-2,0,-1
1499879233215807,4,7,-2,-3,-3,4,9,1
1499879233216766,9,17,7,-16,11,0,-1,6
1499879233216766,-10,-55,-14,28,-8,-4,-5,-8
1499879233237810,0,-12,12,-21,-23,-5,1,-3
1499879233237810,-6,-20,-13,8,12,-1,-14,-8
1499879233239767,-1,-1,22,5,13,2,4,-5
1499879233239767,-3,16,-8,-5,6,-3,2,17
1499879233252805,-3,24,54,1,6,-7,-1,-8
1499879233252805,6,-5,1,17,-26,0,4,-18
1499879233259790,-12,-4,-23,-30,6,1,-16,1
1499879233259790,2,27,34,37,34,13,5,-13
1499879233275833,-6,-17,-7,-19,-10,-3,-10,-7
1499879233275833,8,25,-51,15,11,-2,16,14
1499879233276779,-7,-24,3,-1,-21,0,-1,4
1499879233276779,-2,10,53,-9,-25,-5,-5,-5
1499879233297832,8,25,-62,-27,-4,5,1,7
1499879233297832,-1,-22,-17,4,14,0,-6,3
1499879233299770,-1,-18,-43,11,7,1,10,-1
1499879233299770,1,24,55,-20,-16,-6,3,4
1499879233312809,-1,-15,-7,14,12,-3,-3,-1
1499879233312809,-4,6,-23,-13,-26,-5,2,8
1499879233318804,-14,-44,-49,-7,40,4,-1,-9
1499879233318804,5,21,-40,-3,-6,4,0,-11
1499879233335812,8,-5,-23,-18,-13,-5,-2,0
1499879233335812,-11,-4,64,13,0,-1,0,1
1499879233336785,15,37,39,-17,4,1,12,12
1499879233336785,-13,-24,-38,1,-19,-4,-5,-11
1499879233357841,-6,-8,12,10,8,4,-6,0
1499879233357841,1,1,39,-1,6,1,6,9
1499879233359786,-1,17,-33,-15,-9,-1,-3,-10
1499879233359786,5,-7,-10,42,-26,-6,1,1
1499879233371819,-1,15,-2,-60,11,5,0,-20
1499879233371819,-4,7,17,-9,19,0,7,6
1499879233380777,3,1,14,13,-1,1,-1,1
1499879233380777,-2,-12,24,-6,-14,-3,-2,3
1499879233395819,-3,-15,-3,28,5,-1,-3,2
1499879233395819,2,-3,-28,-18,-7,-1,-2,-3
1499879233396810,-4,-6,6,-11,-4,-4,-1,-3
1499879233396810,1,18,67,8,6,3,2,1
1499879233418792,-1,-13,-54,10,-13,-4,0,2
1499879233418792,-4,-11,-1,-20,6,-1,-3,-2
1499879233419788,3,11,11,10,-8,0,1,1
1499879233419788,1,-2,-6,-6,4,3,1,5
1499879233431824,0,-2,11,0,-1,-4,-3,-2
1499879233431824,3,7,-43,11,-2,1,-1,2
1499879233440790,-6,-13,45,4,2,-3,-1,-3
1499879233440790,0,1,-29,-14,-2,0,-3,-3
1499879233455790,-1,-10,4,1,-2,0,4,4
1499879233455790,-1,2,14,5,3,-4,-4,-3
1499879233456791,2,-1,0,10,-2,1,0,-1
1499879233456791,-2,2,5,-11,0,0,0,-1
1499879233485831,0,0,-7,5,-5,0,-2,0
1499879233485831,-3,-6,21,0,2,1,0,-2
1499879233487792,-3,2,50,-4,-5,-7,-5,-6
1499879233487792,-1,-11,-83,7,4,0,-2,2
1499879233491792,1,-7,42,3,4,2,1,2
1499879233491792,0,-4,2,6,4,-1,-2,-3
1499879233500785,1,-8,-10,-8,-5,-1,0,0
1499879233500785,-3,12,19,-5,-6,-3,-3,0
1499879233515849,-1,3,-52,0,-3,0,1,1
1499879233515849,1,-2,54,-5,-13,1,-3,0
1499879233516784,-8,-24,-31,16,21,-4,0,-2
1499879233516784,-5,-14,-10,-23,13,7,1,1
1499879233537858,1,9,-16,-6,0,-4,-2,2
1499879233537858,-4,-8,11,13,-8,-2,-2,-2
1499879233539787,4,9,-31,3,-9,-6,0,0
1499879233539787,-1,0,11,-10,-8,1,0,-2
1499879233551828,-1,-2,11,-1,0,-1,0,0
1499879233551828,0,12,14,-2,3,0,0,1
1499879233560798,-1,-7,-39,-13,-11,-1,0,-2
1499879233560798,0,-2,10,1,6,-4,-3,-1
1499879233575830,0,3,-4,3,-2,1,1,0
1499879233575830,0,6,-8,-7,8,3,0,1
1499879233576787,-1,-19,15,-7,-3,1,1,-3
1499879233576787,1,3,1,3,-6,-5,-3,-1
1499879233598813,0,6,17,5,-1,2,-2,-2
1499879233598813,-6,-12,-6,-11,2,-1,-3,-4
1499879233599789,-2,-11,-6,12,-1,-3,-3,1
1499879233599789,-1,-3,-18,-1,-9,0,2,-1
1499879233611834,1,6,-3,2,2,0,1,5
1499879233611834,-3,-5,-17,-3,-2,-4,-1,-7
1499879233620791,4,13,-10,-6,1,4,-1,1
1499879233620791,-4,-8,17,-4,-6,-9,-3,-5
1499879233635804,2,-2,3,2,0,-1,-3,2
1499879233635804,0,4,-53,-5,-1,-1,0,3
1499879233636791,-1,6,50,-11,-1,1,-2,-2
1499879233636791,0,0,-7,13,-1,1,2,0
1499879233657849,-4,-13,-19,-1,-3,-1,-1,-4
1499879233657849,-3,-9,-6,0,-5,-2,-1,-2
1499879233659790,1,5,3,4,0,-2,-2,-1
1499879233659790,1,7,22,-12,-4,-4,-2,1
1499879233671837,-1,-7,-22,-6,1,-2,-3,-5
1499879233671837,1,4,5,2,-2,1,-2,-2
1499879233680792,-3,7,-28,-3,-2,1,-1,-2
1499879233680792,-1,4,-26,-2,-2,-1,-1,0
1499879233695862,-2,-6,14,-3,-1,-3,-1,-1
1499879233695862,0,8,-12,5,-1,-2,-1,-2
1499879233696794,-1,-14,-6,-2,2,2,-1,1
1499879233696794,-1,1,-2,3,-2,0,-1,-1
1499879233717814,-1,-3,-6,-3,-3,-3,0,-2
1499879233717814,1,6,33,-3,0,1,1,4
1499879233719805,1,-1,-4,7,1,-5,-2,-1
1499879233719805,-4,1,14,0,-4,1,-4,-4
1499879233731841,-2,-4,-4,-6,7,4,1,0
1499879233731841,-3,-5,4,-3,-4,-2,-2,-2
1499879233740808,-1,2,-28,-4,1,2,0,0
1499879233740808,-1,-1,39,15,6,2,1,-1
1499879233754843,-1,7,-19,-3,-3,-4,-3,-3
1499879233754843,1,-5,-7,-5,-5,2,1,-2
1499879233763810,1,10,6,-1,-5,-5,-1,0
1499879233763810,-1,-4,-30,-3,1,-2,0,0
1499879233777817,0,-1,27,0,1,1,-1,-2
1499879233777817,1,-3,-6,3,1,-1,-1,0
1499879233779834,-3,-2,-11,-6,-7,-1,1,-1
1499879233779834,-2,2,3,6,0,-3,-3,-1
1499879233791816,-1,-8,-9,-3,-3,0,0,-1
1499879233791816,-4,-4,-23,4,4,1,-2,-1
1499879233800810,1,6,43,-3,-2,-2,-2,1
1499879233800810,-1,-8,-5,-12,-5,-4,-1,1
1499879233815844,1,9,58,15,0,0,-1,-2
1499879233815844,0,3,4,0,3,0,-2,0
1499879233817802,0,3,26,-2,4,7,1,-2
1499879233817802,-1,-12,-42,-6,1,-3,-2,-2
1499879233837865,-1,5,17,0,-7,-3,-3,-1
1499879233837865,-2,-9,-10,1,3,-1,-1,-2
1499879233839801,-3,1,7,4,-1,-2,-1,0
1499879233839801,1,6,11,-14,-5,-2,0,0
1499879233860844,-1,-4,-32,3,1,0,-1,1
1499879233860844,-2,3,10,-8,0,0,-1,1
1499879233861856,-1,-3,16,-3,1,-5,1,-2
1499879233861856,0,0,-14,16,6,7,2,1
1499879233875846,-1,-4,5,-12,-6,-7,-3,0
1499879233875846,1,-1,-10,12,0,-2,-1,-1
1499879233876805,1,3,16,7,2,-1,0,3
1499879233876805,-1,1,4,16,-1,4,-2,-9
1499879233898837,-1,-2,-13,14,2,0,1,-2
1499879233898837,1,5,-6,-34,-12,-4,-4,-1
1499879233899815,-4,-8,-29,-3,0,0,-1,0
1499879233899815,1,8,2,-7,-3,1,-1,1
1499879233920848,-5,-12,29,48,-8,-6,-5,-2
1499879233920848,-1,-2,17,-56,-3,-3,1,-1
1499879233921806,-2,-6,-14,-11,1,0,1,1
1499879233921806,0,0,-80,-19,-1,0,-3,0
1499879233935887,-1,19,60,88,3,4,-3,-4
1499879233935887,-1,-7,-9,-41,-4,-3,-1,1
1499879233936810,-1,-2,16,4,-5,-3,-4,-8
1499879233936810,-1,-5,-24,-25,-3,-3,-2,-2
