timestamp,emg1,emg2,emg3,emg4,emg5,emg6,emg7,emg8
1499876393739111,15,-1,-28,15,-2,-2,-9,-6
1499876393739111,17,1,11,-14,-2,-2,-41,20
1499876393740111,-33,-6,16,-85,-10,-6,38,18
1499876393740111,20,14,13,13,12,11,24,-46
1499876393741125,-8,0,-33,-39,-7,-2,-12,22
1499876393741125,69,0,-13,27,-2,-2,-9,10
1499876393741125,-39,1,-6,67,8,-13,-125,-16
1499876393741125,-19,-8,-4,-37,-14,6,97,97
1499876393746111,14,2,-10,-96,5,5,34,23
1499876393746111,-62,27,35,41,-3,-2,-17,-28
1499876393754111,71,-13,39,65,9,1,33,46
1499876393754111,43,23,0,1,13,7,-50,-27
1499876393768112,-56,-11,37,75,-5,-14,-79,-27
1499876393768112,11,-4,-52,-92,-8,7,50,0
1499876393776112,-60,-10,-4,95,-13,-18,6,-44
1499876393776112,27,9,45,-17,8,3,4,10
1499876393782113,17,4,2,55,7,6,37,-69
1499876393782113,-20,-6,-6,-6,-1,-8,-28,-42
1499876393806131,-6,-6,-42,48,-7,2,-7,-63
1499876393806131,2,-12,8,41,4,-2,-9,22
1499876393845118,54,-3,-64,-37,-5,-6,-39,26
1499876393845118,-70,7,20,-18,-16,-8,73,-91
1499876393846115,-21,-16,19,93,4,3,-55,-85
1499876393846115,14,-30,8,-62,-15,-9,100,12
1499876393847136,-53,-14,12,54,0,4,-18,78
1499876393847136,63,-17,-32,-21,5,2,-26,75
1499876393850116,20,17,-16,21,1,1,7,26
1499876393850116,-42,3,-15,-10,-3,0,-20,-10
1499876393857126,65,10,36,28,10,4,3,-11
1499876393857126,-29,-20,-56,50,-11,-2,10,12
1499876393864119,8,-2,3,-82,2,0,-14,43
1499876393864119,-14,0,-15,117,4,-3,-12,-81
1499876393874183,-32,-4,-1,-40,-4,2,12,-23
1499876393874183,39,23,61,21,-4,-5,-19,33
1499876393888133,-23,4,30,-13,-2,-9,14,-70
1499876393888133,29,15,-7,-36,8,10,8,29
1499876393894119,-45,-6,-10,96,9,-3,-1,-49
1499876393894119,-7,-4,6,-17,-3,-4,-3,14
1499876393909119,-39,-1,-27,43,1,-4,-21,-72
1499876393909119,22,-3,-22,-117,-7,-4,-13,32
1499876393918121,9,10,10,-14,-4,2,19,-2
1499876393918121,-1,3,-11,46,9,7,-21,-26
1499876393933119,53,6,52,-40,0,-9,-62,127
1499876393933119,-10,11,-29,61,10,14,79,28
1499876393935140,-15,-20,9,-36,-17,-13,5,-34
1499876393935140,17,-3,29,-43,-7,-5,-11,7
1499876393956142,26,-3,-28,-12,-2,0,21,-36
1499876393956142,-26,-15,-20,-42,-19,-16,-66,24
1499876393957141,-6,7,-7,-2,7,8,40,-7
1499876393957141,-8,-3,-17,-12,-3,-2,-7,-5
1499876393970123,-16,3,18,59,2,2,14,73
1499876393970123,0,5,47,4,4,2,-19,-13
1499876393978139,13,6,-16,-49,-1,2,7,23
1499876393978139,-18,-8,22,69,0,-8,-26,-17
1499876393993124,28,13,-13,-84,0,10,45,68
1499876393993124,7,1,15,49,-4,-3,-10,-10
1499876393995144,-2,-18,-36,51,0,-3,-9,5
1499876393995144,4,5,-9,-53,3,1,0,-70
1499876394016124,12,-1,24,-14,0,0,-4,14
1499876394016124,-21,17,59,63,8,4,8,-26
1499876394018145,12,-5,-16,-84,-18,-7,-23,-8
1499876394018145,74,-4,-7,21,10,7,41,30
1499876394038146,-64,-7,-1,-60,-12,-7,-27,-90
1499876394038146,-1,-13,27,-89,-9,-2,6,19
1499876394040127,-43,-9,-8,86,-5,-4,0,-23
1499876394040127,3,1,-43,2,5,4,-2,13
1499876394053126,-9,9,0,18,10,6,15,-66
1499876394053126,18,-13,-17,46,-10,-11,-36,-24
1499876394055128,3,14,23,8,-1,-4,-4,34
1499876394055128,-15,-7,-21,-114,-10,-2,27,7
1499876394077150,-12,-16,-13,100,-2,-1,-8,-19
1499876394077150,16,17,-2,-23,7,6,7,-6
1499876394079129,-15,0,26,20,6,0,0,-16
1499876394079129,-7,7,13,-19,-8,-2,-31,13
1499876394098150,83,1,-36,15,-2,-1,30,12
1499876394098150,-45,-10,-10,32,9,3,12,85
1499876394100130,6,21,60,40,-6,0,-17,3
1499876394100130,-14,9,43,62,22,9,14,27
1499876394112131,-36,-13,-58,-75,-28,-15,-31,-10
1499876394112131,95,0,-24,-14,-6,-8,-1,57
1499876394119131,-51,-12,-51,14,-1,-4,-7,27
1499876394119131,-28,4,23,-45,-4,-3,-15,-58
1499876394136153,-29,-21,-4,-22,-11,-5,-19,-13
1499876394136153,11,-3,-10,25,2,3,15,-62
1499876394137131,-23,0,-29,55,6,2,-1,69
1499876394137131,8,-9,17,6,-12,-7,8,63
1499876394158134,-14,0,3,-16,8,1,9,23
1499876394158134,21,1,-7,-73,-7,-2,-34,-9
1499876394160152,32,13,-10,-49,13,9,29,-70
1499876394160152,-55,-8,29,49,-2,0,1,-62
1499876394173150,33,13,-20,29,10,7,10,45
1499876394173150,-30,-37,13,81,-13,-11,-20,11
1499876394175134,34,11,81,-34,8,4,4,-20
1499876394175134,20,-1,-92,-61,-6,-8,-36,-15
1499876394196136,-39,-24,-31,1,-5,8,46,71
1499876394196136,-2,27,68,106,10,-4,-19,-27
1499876394197140,-6,-9,-42,-21,-3,3,-2,-13
1499876394197140,7,-7,43,-10,-2,-2,5,-27
1499876394218157,15,18,21,-13,3,0,-2,-7
1499876394218157,23,-15,-73,-96,-2,2,-5,10
1499876394220148,-5,4,5,80,11,5,54,62
1499876394220148,-39,11,21,38,5,0,-46,-1
1499876394233136,33,-12,-34,70,-13,-4,31,65
1499876394233136,4,3,-4,-33,-10,-9,-10,13
1499876394239154,-12,-4,12,-128,-9,-7,-23,-90
1499876394239154,-13,-7,-40,22,4,4,34,23
1499876394256137,4,11,34,48,7,-2,-28,-23
1499876394256137,-44,11,24,57,11,13,22,-26
1499876394257138,17,-19,-13,4,-7,-9,-13,10
1499876394257138,-9,1,26,91,13,3,-21,35
1499876394278141,12,-9,-16,-27,-16,-9,-4,-42
1499876394278141,-15,13,22,16,9,7,30,-32
1499876394280155,-16,-10,-14,-89,-14,-8,-17,4
1499876394280155,23,9,-1,-9,1,2,-7,12
1499876394293140,-16,-11,30,-21,0,-3,10,-21
1499876394293140,15,2,-10,55,5,3,12,40
1499876394299143,-15,-3,-9,-90,-9,-4,-22,7
1499876394299143,19,-2,-13,-63,-4,1,10,-11
1499876394316141,6,4,9,71,7,-1,5,17
1499876394316141,-27,-5,-35,-54,2,0,-16,-45
1499876394317144,52,2,11,85,0,1,16,54
1499876394317144,14,10,27,55,9,4,-5,-42
1499876394338164,0,15,-30,-96,10,10,10,36
1499876394338164,-9,-47,-58,-55,-32,-16,-22,-65
1499876394340143,39,13,7,94,9,2,15,29
1499876394340143,-4,-1,9,-6,-3,-4,18,8
1499876394353146,-34,5,-1,52,0,-2,-12,-114
1499876394353146,27,19,48,15,13,5,-15,69
1499876394359165,-20,-22,-57,23,-18,-10,5,25
1499876394359165,7,6,10,-29,-3,1,10,-4
1499876394376144,6,8,29,-36,2,1,-6,9
1499876394376144,-17,-10,-15,-37,-13,-9,-8,39
1499876394377162,9,4,21,19,10,2,-8,-46
1499876394377162,-25,6,17,39,3,2,4,-16
1499876394399167,-28,-5,-13,-16,-7,-3,5,-50
1499876394399167,20,15,46,82,10,2,-8,31
1499876394400168,-53,-13,-41,-73,-9,-3,-4,-59
1499876394400168,6,-9,-2,11,-4,-5,-2,12
1499876394412149,31,-8,-27,-43,-7,-7,1,61
1499876394412149,-56,4,20,-53,3,2,-2,-35
1499876394419165,13,0,30,15,7,3,-16,24
1499876394419165,0,-11,-54,-41,-8,-6,17,18
1499876394436171,14,2,24,37,3,-4,-6,70
1499876394436171,3,7,-9,84,14,9,9,-9
1499876394437148,-9,-2,-17,-110,-13,-1,-1,26
1499876394437148,-18,-10,-26,19,-5,-4,-20,-58
1499876394458153,14,2,18,-11,-1,-4,-8,26
1499876394458153,-2,10,-6,-22,-3,1,4,1
1499876394460173,8,-5,21,63,9,2,-4,-2
1499876394460173,2,-2,-16,-39,-13,-7,-13,34
1499876394472151,4,0,8,51,2,0,-1,-29
1499876394472151,13,18,-2,-20,2,2,6,23
1499876394479150,-33,-8,32,26,-6,-9,6,-85
1499876394479150,10,9,22,-69,0,6,8,85
1499876394496173,13,-17,-57,-13,3,2,3,95
1499876394496173,-29,-8,15,20,-9,-5,-14,-20
1499876394497152,39,7,-25,-48,-2,0,0,80
1499876394497152,14,7,16,61,14,9,3,-15
1499876394518155,-12,-1,10,-113,-14,-4,-6,-50
1499876394518155,18,-7,-18,-87,-7,-7,-1,-12
1499876394520174,0,9,22,21,9,5,0,3
1499876394520174,22,-4,6,21,1,-2,8,24
1499876394533172,-47,-16,-15,12,-2,0,-5,11
1499876394533172,16,1,-9,62,6,0,5,76
1499876394539154,4,5,-5,-65,-14,-7,-17,33
1499876394539154,1,-18,-23,46,3,1,4,58
1499876394556176,-11,2,24,18,3,4,3,-24
1499876394556176,0,-2,-9,22,8,4,1,-35
1499876394557156,-37,-9,-22,-35,-14,-5,0,30
1499876394557156,48,8,-11,-45,-4,-2,11,52
1499876394578177,-56,7,12,13,2,1,8,-83
1499876394578177,2,-6,6,-3,-2,-1,4,29
1499876394580157,-25,3,6,55,7,0,-16,-28
1499876394580157,5,-20,27,7,-11,-11,-15,-62
1499876394592175,16,6,13,35,2,0,3,20
1499876394592175,9,0,-3,46,-5,-1,5,17
1499876394601179,18,15,4,3,13,8,2,-100
1499876394601179,-13,-14,-26,93,-9,-10,-7,-11
1499876394616162,13,5,14,-75,-1,1,-5,75
1499876394616162,10,5,27,-10,-1,0,-10,-19
1499876394617160,28,-16,-23,25,-3,0,12,-7
1499876394617160,-19,17,24,56,15,9,3,-33
1499876394646162,2,-14,-34,-53,-24,-11,-9,-20
1499876394646162,9,5,11,19,3,2,14,-42
1499876394647163,-25,6,-3,33,3,2,-4,14
1499876394647163,-6,-11,-18,24,-10,-11,-8,11
1499876394652160,8,4,4,-3,3,4,5,-39
1499876394652160,-31,-7,-21,-63,-3,-1,9,-105
1499876394661163,13,3,35,12,9,2,0,13
1499876394661163,-22,9,-1,-24,-5,1,-5,-7
1499876394676184,11,-1,53,98,0,-4,-5,37
1499876394676184,-8,-19,-24,-74,-1,0,4,17
1499876394677184,1,-2,-45,-20,-7,-5,-2,9
1499876394677184,-4,-6,29,45,8,5,9,-78
1499876394698163,21,-6,-58,-65,-7,-3,-9,40
1499876394698163,-9,3,7,-3,-2,-3,-16,31
1499876394700163,-6,1,23,98,6,3,20,-2
1499876394700163,20,20,27,-93,9,5,4,-16
1499876394712167,-10,-8,-15,55,-7,-4,1,-74
1499876394712167,-12,-11,18,-7,-6,-10,-12,17
1499876394721186,50,8,-25,-26,-7,1,-13,5
1499876394721186,-16,2,7,16,0,-3,0,21
1499876394736187,-3,-9,-21,-21,0,5,1,31
1499876394736187,1,-9,-22,-10,-8,-2,0,6
1499876394737167,-7,-2,7,72,-2,-8,3,-16
1499876394737167,21,0,-15,-18,0,1,-1,99
1499876394758187,-20,-4,16,7,5,1,-7,-14
1499876394758187,32,2,-25,54,-2,-2,-3,-3
1499876394760171,-24,2,17,-75,-2,1,-6,28
1499876394760171,2,-7,-51,-45,-9,-1,10,-1
1499876394772189,9,4,-2,36,9,3,8,29
1499876394772189,-7,10,51,90,8,3,-1,-32
1499876394781168,3,4,65,-3,4,0,-8,-22
1499876394781168,13,5,-38,47,-3,0,5,25
1499876394796169,-1,5,24,-35,0,-3,-2,22
1499876394796169,-9,0,-25,-37,-6,-2,4,-37
1499876394797172,33,7,26,2,10,4,1,117
1499876394797172,-59,-25,-69,-88,-12,-9,-7,-49
1499876394818191,-3,13,24,50,6,-5,-7,-9
1499876394818191,31,13,18,44,-1,2,-2,43
1499876394824173,-68,-22,8,-79,-13,-8,7,9
1499876394824173,-12,0,33,10,5,0,-19,-35
1499876394841172,8,8,-4,39,3,6,16,-3
1499876394841172,-14,-6,-31,-26,3,-4,-8,47
1499876394842173,14,-7,18,-70,-17,-5,2,-26
1499876394842173,5,6,5,-35,-5,-1,-7,20
1499876394863173,-26,-5,2,20,4,0,-2,-85
1499876394863173,7,-10,1,12,-2,1,-4,8
1499876394865174,-10,-10,-115,58,-2,-2,2,-71
1499876394865174,-9,7,47,-69,0,-2,-14,-38
1499876394877179,10,6,18,73,-5,0,9,15
1499876394877179,-15,-7,-21,-85,-13,-5,-4,-8
1499876394884174,22,12,28,28,6,2,-1,-8
1499876394884174,45,-7,-20,-30,-5,-2,1,35
1499876394901175,-71,-4,-5,26,4,4,-5,-58
1499876394901175,-26,6,5,65,8,1,5,-21
1499876394902175,2,-8,28,-49,-6,-4,0,-43
1499876394902175,-20,-5,-1,-12,2,0,0,-46
1499876394923182,58,1,21,-1,0,1,3,56
1499876394923182,-2,-5,-25,7,-7,-6,-5,47
1499876394925198,1,2,12,-48,-3,-3,6,-44
1499876394925198,1,0,18,42,-3,-2,3,42
1499876394937195,16,-5,-16,-33,-4,-4,-3,21
1499876394937195,2,14,13,67,5,8,4,-33
1499876394944178,8,-1,24,-8,4,-2,-10,46
1499876394944178,-13,-8,-31,86,-6,-3,3,3
1499876394961179,-46,-6,-15,-116,-13,-4,-5,-5
1499876394961179,-37,1,16,9,9,1,-4,-31
1499876394962183,20,-6,-20,57,-5,-1,1,12
1499876394962183,-42,3,19,30,4,3,-2,-6
1499876394983201,2,-3,6,-31,3,-1,-5,16
1499876394983201,17,1,-23,-20,1,-1,-1,28
1499876394985183,6,-2,-5,20,12,5,-6,-63
1499876394985183,-32,-5,-6,-25,-9,-3,22,-34
1499876394997199,5,-4,1,64,1,-3,7,-54
1499876394997199,11,3,1,-109,-6,-3,1,8
1499876395004183,17,12,-7,52,3,2,-5,55
1499876395004183,41,19,15,43,12,6,0,23
1499876395021204,-5,-15,-6,-9,-7,-2,-3,-38
1499876395021204,-1,-9,-21,18,-5,-5,0,11
1499876395022185,1,5,28,16,2,-1,3,29
1499876395022185,-12,2,9,-75,-7,-5,-12,-49
1499876395043204,10,-2,-16,-12,1,-1,2,16
1499876395043204,-5,-11,-9,8,-2,-1,-4,-14
1499876395045187,27,-12,-7,53,-5,-3,7,86
1499876395045187,-19,13,56,-55,1,-1,-14,-55
1499876395057185,-2,-3,-36,15,-2,-1,-7,38
1499876395057185,16,6,22,-42,-5,4,18,-24
1499876395064184,-12,9,-11,-79,-3,-4,-11,-21
1499876395064184,11,-10,-8,23,2,1,5,-20
1499876395081207,28,4,7,69,1,-1,-10,73
1499876395081207,22,-1,-22,-59,-4,-1,-4,30
1499876395082185,-17,4,3,3,-2,0,5,0
1499876395082185,33,0,-19,27,6,1,-8,81
1499876395103190,-55,-6,12,-57,1,-3,4,-85
1499876395103190,6,-11,3,77,1,-2,-4,-13
1499876395105205,1,8,29,-9,8,3,0,0
1499876395105205,-6,-9,-55,42,-16,-11,-6,44
1499876395117189,18,-1,27,28,-1,2,1,-26
1499876395117189,-24,-6,2,-44,-7,-7,-17,20
1499876395126207,-11,0,-13,40,7,3,12,-4
1499876395126207,-11,-6,-26,-43,-6,-2,2,-36
1499876395141190,11,2,11,-17,0,0,4,9
1499876395141190,11,3,22,19,10,5,0,19
1499876395142191,-13,-2,33,106,-1,-2,-2,47
1499876395142191,5,-21,-42,-99,-16,-6,-2,43
1499876395163191,32,3,8,6,-3,-1,3,19
1499876395163191,-14,6,17,10,6,3,2,-7
1499876395165192,10,3,-15,-38,3,2,-6,1
1499876395165192,8,-3,23,15,3,1,4,31
1499876395177191,-24,-7,-3,24,-5,-6,-9,-13
1499876395177191,3,6,-12,-61,-3,-1,9,-28
1499876395186193,-1,-14,6,41,-2,0,0,-25
1499876395186193,15,9,0,113,3,-3,-4,22
1499876395201214,20,-8,-26,-99,-11,-1,-5,-51
1499876395201214,-8,-7,-24,53,2,0,0,40
1499876395202194,-29,5,-16,-22,-3,-2,-3,-5
1499876395202194,-12,-2,48,8,1,-2,-8,-11
1499876395223194,12,10,-14,10,0,3,9,25
1499876395223194,17,8,50,-25,4,0,-1,43
1499876395225196,35,-18,-77,6,-12,-8,-12,-17
1499876395225196,-39,-3,-36,-31,4,2,10,-31
1499876395237196,-3,2,10,67,5,1,1,10
1499876395237196,-10,-10,23,-84,-10,-7,-5,-32
1499876395246215,-11,8,-7,9,3,2,0,24
1499876395246215,26,-8,6,-20,-2,-5,-8,7
1499876395261203,-14,-3,-34,-24,3,2,5,1
1499876395261203,-3,-8,-18,-2,-9,-4,-6,-32
1499876395262198,-4,3,28,35,1,1,1,-20
1499876395262198,4,0,-44,-2,7,6,1,-60
1499876395283197,0,9,38,22,1,-2,0,-2
1499876395283197,33,-1,-28,-5,2,3,1,88
1499876395285219,-4,5,-1,-82,-7,-3,5,25
1499876395285219,-2,-8,-26,49,2,-2,-1,22
1499876395297200,-6,-3,6,46,8,2,-1,30
1499876395297200,1,5,4,50,-2,0,1,-30
1499876395306220,4,-2,-37,-5,-1,-1,-6,-40
1499876395306220,52,-11,14,-38,-9,-4,-3,46
1499876395321201,-55,6,4,34,2,2,-1,-87
1499876395321201,-11,4,16,44,5,1,-2,-17
1499876395322202,-7,-4,2,12,-5,-3,-1,-37
1499876395322202,12,6,-16,-11,9,6,8,25
1499876395343220,23,-6,5,-28,-13,-10,-12,11
1499876395343220,-19,5,11,23,2,0,-2,-39
1499876395345201,11,14,2,5,8,5,3,31
1499876395345201,-18,-6,-9,-70,-15,-4,-5,-56
1499876395357204,17,-8,-20,-19,1,-2,-11,44
1499876395357204,-33,-8,-57,-45,-7,-5,-3,-89
1499876395366205,-1,-5,14,0,4,2,1,0
1499876395366205,-24,-1,3,-1,0,0,4,-12
1499876395381203,-5,0,29,57,10,3,6,32
1499876395381203,-14,-8,-7,0,-7,-3,-1,33
1499876395382203,-17,-4,6,-33,-4,-2,-5,62
1499876395382203,-10,10,41,13,3,2,0,13
1499876395403226,-8,-4,-48,-1,-3,1,4,35
1499876395403226,12,-5,28,60,-5,-2,7,-32
1499876395405204,16,-16,-27,-36,-9,-7,-7,-11
1499876395405204,-15,9,30,63,5,3,0,-5
1499876395417224,-10,1,15,-38,-4,-1,-1,-1
1499876395417224,6,6,-43,-8,4,2,-3,68
1499876395426208,6,-2,13,53,-5,-5,-5,12
1499876395426208,13,-8,-6,-40,-8,-4,-6,4
1499876395441226,-1,2,7,-24,0,0,-2,10
1499876395441226,-11,2,1,-7,-4,0,0,3
1499876395442206,20,7,9,61,6,3,-3,-39
1499876395442206,-20,-9,-30,127,3,0,-1,39
1499876395463227,12,9,8,-116,-13,-2,0,-25
1499876395463227,-6,-10,24,-1,-6,-5,-10,8
1499876395465227,-26,-5,5,1,1,-3,-5,3
1499876395465227,5,5,18,-11,5,3,9,-25
1499876395477230,2,-2,-4,61,5,1,-2,-5
1499876395477230,-3,-20,-41,44,-13,-9,-8,68
1499876395486209,3,-3,3,-44,-3,4,9,-61
1499876395486209,22,5,15,22,6,1,-7,27
1499876395501210,-8,0,-1,-42,-7,-2,5,29
1499876395501210,11,8,29,-74,-2,-1,0,1
1499876395502210,4,1,-11,-14,-5,-4,-1,59
1499876395502210,16,3,1,-39,-2,1,-8,-24
1499876395523216,-7,-5,4,56,8,2,6,-32
1499876395523216,25,3,-1,26,2,0,-1,13
1499876395525214,-5,3,-8,-3,9,6,3,-64
1499876395525214,-26,-10,3,-28,-22,-9,-3,-20
1499876395546213,-2,1,2,39,-8,-9,-11,-15
1499876395546213,-20,-2,-27,-23,3,4,3,-40
1499876395547213,-11,0,11,-10,-3,-1,0,-12
1499876395547213,7,0,8,32,9,4,6,9
1499876395561234,-5,-16,-28,-12,0,3,-1,-25
1499876395561234,4,8,30,16,6,1,2,-14
1499876395562216,-10,0,-36,-28,-5,-1,2,-37
1499876395562216,-9,-6,-14,-5,-5,-3,-3,9
1499876395583234,1,-3,14,-11,-4,-3,-3,-3
1499876395583234,-2,-3,9,10,3,2,5,-8
1499876395585217,9,3,24,6,11,6,-1,4
1499876395585217,-6,0,-34,18,-13,-7,-3,4
1499876395606215,-16,-4,-6,0,-3,-5,-13,-33
1499876395606215,-30,-2,-8,-4,6,3,2,-74
1499876395607216,8,-7,0,-36,-10,-9,-2,82
1499876395607216,0,4,26,6,5,-2,-4,55
1499876395621237,-10,2,20,25,5,4,-4,-7
1499876395621237,10,-3,-14,24,-2,-4,0,-13
1499876395622217,-41,-3,-2,18,-6,-2,-4,-6
1499876395622217,10,-3,-17,-25,3,3,15,-2
1499876395643239,11,-2,-9,20,2,1,-7,6
1499876395643239,18,3,57,-12,1,-1,-4,2
1499876395645218,9,-6,0,46,3,1,-2,37
1499876395645218,-8,8,-3,-3,-5,-1,5,-23
1499876395666220,-4,-8,-47,17,-2,-4,0,0
1499876395666220,-10,-2,33,-13,-6,-3,0,-55
1499876395667221,19,2,-37,20,2,-2,0,4
1499876395667221,-7,-7,8,-52,-1,-3,-6,23
1499876395681220,6,7,5,63,9,3,6,21
1499876395681220,15,-7,-28,-91,-15,-6,-4,33
1499876395682221,-12,2,16,10,4,1,-1,-22
1499876395682221,-16,-1,-9,14,-2,1,-2,-56
1499876395703221,2,7,8,-43,4,4,6,-33
1499876395703221,13,-2,7,39,1,-2,-3,39
1499876395705243,23,2,-1,-7,-1,3,5,33
1499876395705243,-13,-3,-8,-27,-9,-7,-11,13
1499876395726227,3,5,29,-21,-5,-3,1,9
1499876395726227,-14,-7,-44,37,-1,-1,1,15
1499876395727223,-10,1,48,-8,-4,-3,-6,-35
1499876395727223,8,-6,-11,11,1,2,1,-1
1499876395740226,-1,5,11,-15,0,-1,-2,-10
1499876395740226,2,10,14,18,2,2,0,-40
1499876395747224,-4,-12,-20,-32,-4,-3,0,-3
1499876395747224,1,3,13,20,6,1,0,5
1499876395763224,7,3,21,20,3,0,1,15
1499876395763224,7,4,-31,-71,-5,-1,3,-12
1499876395765228,-7,-11,16,-73,-11,-6,-9,49
1499876395765228,-4,6,40,43,0,-3,-5,-8
1499876395786243,9,-7,-15,-2,-4,-4,1,9
1499876395786243,6,-3,-14,34,3,1,1,16
1499876395787226,-12,1,-32,-5,3,2,3,-30
1499876395787226,-3,-2,24,-10,-1,1,0,18
1499876395800248,67,9,12,18,7,5,7,105
1499876395800248,-20,-5,1,-18,-9,-7,-8,-12
1499876395807228,2,6,2,16,3,0,0,-36
1499876395807228,-34,-3,-25,-78,-11,-5,-2,-17
1499876395823229,30,-6,-1,-18,0,1,3,96
1499876395823229,-7,8,-3,-3,6,3,-8,-58
1499876395825233,3,-1,-2,-16,4,4,5,26
1499876395825233,45,4,-6,46,-3,-4,1,14
1499876395846230,-17,0,5,-13,-1,-1,-2,-46
1499876395846230,8,-5,-7,40,-5,-4,-1,69
1499876395847230,-33,-2,14,-22,2,-3,-7,-64
1499876395847230,0,2,4,-6,6,4,1,-34
1499876395860230,-15,-3,25,-23,-5,-2,-1,-18
1499876395860230,9,-11,-56,4,-2,0,4,22
1499876395867233,10,8,-23,13,1,0,3,2
1499876395867233,-3,-16,11,-4,-6,-4,-4,17
1499876395883234,-34,1,9,-6,-4,-2,0,-94
1499876395883234,-4,15,32,13,6,2,0,7
1499876395885234,12,-35,-19,63,-15,-7,-7,93
1499876395885234,1,5,-21,-24,6,1,3,-7
1499876395906235,26,-1,-46,-33,-3,0,1,99
1499876395906235,-51,-5,-4,8,1,-1,-6,-86
1499876395907236,-2,13,9,-79,-7,-2,1,-5
1499876395907236,7,-2,11,-35,1,3,6,-64
1499876395920251,-17,-11,-11,19,-1,-4,-6,33
1499876395920251,27,-7,-11,-7,-2,-1,2,41
1499876395927234,21,8,19,11,5,1,-4,-35
1499876395927234,10,-4,-7,38,4,2,2,116
1499876395943235,-17,5,3,-10,1,-1,-4,-38
1499876395943235,24,1,16,9,0,0,6,38
1499876395945257,-13,-3,-30,13,1,2,3,-1
1499876395945257,5,-3,0,-17,-7,-4,-8,17
1499876395965239,-9,-7,-19,-14,0,-2,-3,-8
1499876395965239,-15,1,25,34,-3,-1,-1,6
1499876395967237,16,4,13,47,6,1,2,28
1499876395967237,-44,7,-15,12,11,7,3,-22
1499876395980259,-11,-9,7,1,-20,-8,-6,-9
1499876395980259,-13,0,-15,28,7,0,-1,-31
1499876395987254,4,-9,-4,-9,-8,-4,-3,3
1499876395987254,-7,1,-8,-45,-1,0,0,-22
1499876396003260,-14,-7,-18,14,1,-4,-11,-95
1499876396003260,6,-2,17,-14,3,2,0,15
1499876396005260,-24,2,8,26,-3,-2,-5,-75
1499876396005260,6,3,-1,31,-2,-4,-4,7
1499876396026243,1,-5,-8,-37,-5,-2,5,1
1499876396026243,-2,-3,-15,-72,-12,-7,-4,-32
1499876396027242,19,3,-20,-17,5,2,-3,15
1499876396027242,-27,1,22,35,0,0,-1,-11
1499876396040267,10,10,22,4,3,2,5,55
1499876396040267,-34,-9,-3,55,-1,-1,-2,-13
1499876396048242,5,-3,-8,-91,-12,-7,-7,-24
1499876396048242,15,3,4,18,9,3,-1,31
1499876396063244,9,-5,-13,52,-2,-1,-1,-22
1499876396063244,-11,-3,20,-34,0,-2,-1,4
1499876396065244,-5,-4,-3,25,0,-1,-2,-26
1499876396065244,19,5,29,17,2,-4,-8,6
1499876396086244,-32,-9,-3,15,-6,-3,-5,-22
1499876396086244,29,6,-11,-28,2,1,3,39
1499876396087244,-19,0,1,8,4,1,3,-28
1499876396087244,11,2,-14,10,-5,-2,1,-25
1499876396099265,18,-20,-42,-20,-8,-6,-3,95
1499876396099265,-25,6,41,-1,-1,-1,-3,-6
1499876396108245,3,-2,-4,3,-1,-2,-1,37
1499876396108245,-1,8,2,4,2,0,-1,-17
1499876396123249,24,8,-1,-13,3,2,4,18
1499876396123249,-2,-1,10,19,1,-1,1,0
1499876396125246,0,0,-10,27,0,-1,0,3
1499876396125246,9,-15,-31,-18,-5,-4,-3,64
1499876396145268,-11,13,14,-16,5,1,-3,-89
1499876396145268,7,0,-7,-11,-1,0,3,-39
1499876396147247,4,1,22,45,1,0,5,44
1499876396147247,3,-2,-4,-13,-1,0,3,-28
1499876396159251,4,2,10,8,4,2,2,-14
1499876396159251,-33,-7,-24,27,4,-3,-9,-24
1499876396168250,-9,-10,0,37,-4,-1,-1,-16
1499876396168250,-3,-3,2,-52,-3,2,4,-3
1499876396183250,13,1,28,-58,-3,-2,1,37
1499876396183250,14,2,7,22,8,4,3,18
1499876396185249,-4,-11,-6,-9,-1,-1,-2,-35
1499876396185249,-4,-3,-4,9,-6,-5,-3,50
1499876396205250,-12,6,22,32,4,2,0,-30
1499876396205250,17,0,-24,-11,-11,-5,-2,21
1499876396207254,-21,3,10,-50,6,2,2,20
1499876396207254,3,-7,9,53,-7,-3,0,-38
1499876396219272,-3,5,-11,46,10,4,3,15
1499876396219272,6,-9,6,-21,-6,-4,-6,23
1499876396228254,-6,6,-8,-91,-8,-3,-1,1
1499876396228254,9,-7,7,19,-3,-7,-3,-37
1499876396243276,-5,1,-15,-9,-1,0,0,-6
1499876396243276,4,-3,5,26,1,0,0,1
1499876396245275,2,12,29,-7,3,1,-5,-1
1499876396245275,-10,-3,-40,-10,4,2,0,-2
1499876396265273,-41,-9,-10,26,-10,-5,-7,-41
1499876396265273,32,1,-10,-26,-1,1,3,47
1499876396266255,-14,0,-23,-12,2,-1,0,13
1499876396266255,-4,-5,12,14,2,-1,-3,64
1499876396287260,4,-3,-10,15,1,2,-2,11
1499876396287260,-9,8,24,6,-2,-1,-3,-13
1499876396288256,7,6,25,17,-5,-4,-2,1
1499876396288256,-24,3,11,33,2,2,-4,-44
1499876396302277,-3,-4,-16,-67,-9,-7,0,-19
1499876396302277,0,1,11,0,2,-2,2,17
1499876396303256,4,-3,-6,35,-3,0,-1,-7
1499876396303256,17,7,-10,-80,0,1,4,-64
1499876396325278,22,4,5,6,-4,-4,-5,48
1499876396325278,-36,-4,-4,-2,-1,-1,-2,34
1499876396326280,-10,4,19,40,6,3,0,-23
1499876396326280,2,-17,-30,-50,-4,-1,-3,-14
1499876396347261,28,-5,21,21,1,-1,2,-19
1499876396347261,-42,1,-20,18,-2,-3,-4,-51
1499876396348259,36,-2,-16,-5,-6,-2,4,71
1499876396348259,-13,3,-10,34,2,0,-3,32
1499876396362260,-9,-6,-10,-66,-6,0,2,-26
1499876396362260,18,-2,-7,29,4,2,-1,-7
1499876396363261,0,2,25,6,1,-2,-3,-4
1499876396363261,0,0,2,-25,-4,-2,-1,8
1499876396385264,22,3,-3,67,10,6,8,9
1499876396385264,7,3,-16,-41,-4,3,-3,-26
1499876396386264,-2,-27,-34,-38,-17,-12,-5,21
1499876396386264,-5,-7,13,-13,-1,0,-2,13
1499876396407262,-13,1,-7,11,2,2,0,-15
1499876396407262,17,16,45,2,1,-1,-4,-9
1499876396408262,6,-5,-19,5,1,0,0,38
1499876396408262,27,8,28,48,5,3,0,-15
1499876396422283,-44,0,-8,-32,6,3,1,-14
1499876396422283,31,-16,-41,41,-16,-7,-6,19
1499876396423264,2,6,4,-16,-4,-3,2,-12
1499876396423264,-5,-13,11,22,-1,-2,-1,18
1499876396445267,-11,-1,-7,-39,-4,-3,-4,9
1499876396445267,1,0,0,21,4,1,0,8
1499876396446281,-5,9,-10,47,4,1,1,-70
1499876396446281,1,0,-6,-23,-4,-5,-2,8
1499876396467270,-5,-11,20,-23,-3,-1,0,-10
1499876396467270,8,-6,-21,-6,2,1,6,29
1499876396468266,-15,5,12,11,5,1,-1,-54
1499876396468266,-20,5,13,51,-4,-4,-4,-53
1499876396482266,0,8,-19,-15,4,2,-1,25
1499876396482266,-6,-18,24,-22,-8,-8,-6,-14
1499876396483266,20,2,2,6,1,0,-3,-47
1499876396483266,-3,3,-9,-9,-1,0,3,32
1499876396505268,5,7,19,29,-4,-5,0,0
1499876396505268,-3,3,-20,-21,-2,0,3,-42
1499876396506269,-17,6,0,-32,2,2,-5,37
1499876396506269,20,-22,-2,-96,-7,-1,-1,-24
1499876396527291,-6,6,-11,43,-3,-5,-6,16
1499876396527291,-16,2,2,10,-1,-1,0,-36
1499876396528272,-4,-7,5,-1,3,0,1,5
1499876396528272,-2,4,-4,45,0,0,-1,42
1499876396542291,-13,-3,4,-16,-4,-3,-3,7
1499876396542291,8,6,7,24,3,1,0,-3
1499876396543272,-1,-3,-13,-13,0,0,-2,-9
1499876396543272,-8,1,15,-6,3,-1,-1,-30
1499876396565275,4,-12,-48,15,-3,-2,-5,-16
1499876396565275,-8,-1,-18,-53,-10,-5,-4,-1
1499876396566274,0,-1,5,21,-2,0,-3,-65
1499876396566274,-2,1,9,-17,4,1,3,9
1499876396587275,-3,1,12,53,6,2,-2,36
1499876396587275,3,-7,8,82,-7,-1,2,67
1499876396588272,30,6,-21,-85,-6,-3,-2,103
1499876396588272,15,9,-8,32,0,-2,0,-24
1499876396602277,-30,-15,25,-44,-6,-1,0,-20
1499876396602277,1,26,28,4,14,8,4,-1
1499876396603275,-31,-17,18,26,-1,-2,-3,-4
1499876396603275,24,2,1,43,-7,-4,-5,7
1499876396625296,18,0,8,-14,1,1,1,8
1499876396625296,-16,-8,-24,-39,-2,-3,-2,-1
1499876396626297,-6,9,-47,30,6,1,2,-13
1499876396626297,-17,-12,-69,-48,-1,2,-1,-13
1499876396647277,10,6,11,-34,6,2,2,-33
1499876396647277,5,-6,14,53,-5,-3,-4,-4
1499876396648277,-7,-9,36,-6,-4,0,1,5
1499876396648277,-8,11,71,5,6,0,-2,-30
1499876396662296,5,-12,0,20,-8,-6,-2,5
1499876396662296,3,-2,8,-15,1,-2,-6,12
1499876396663277,12,7,-9,-2,-2,-1,1,12
1499876396663277,-19,-13,-4,-9,-1,-2,1,11
1499876396685277,27,9,13,8,-2,2,2,43
1499876396685277,-14,1,-23,-33,-1,2,2,-70
1499876396686280,-7,-5,-15,-18,-4,-2,-2,-3
1499876396686280,-4,2,5,42,-9,-3,-3,8
1499876396707280,-4,-5,-23,12,-2,-4,0,-11
1499876396707280,0,2,6,9,10,4,2,14
1499876396708282,-18,-2,-10,20,-5,-1,1,-21
1499876396708282,7,-1,20,-23,-5,-6,-12,73
1499876396722297,-6,2,-8,-3,0,0,-1,-48
1499876396722297,-9,-4,-10,-14,-2,-2,-3,-40
1499876396723282,-29,-6,10,13,3,-1,-2,26
1499876396723282,-25,6,-22,30,6,1,2,-65
1499876396745286,-22,2,5,-59,-5,-3,-6,-40
1499876396745286,6,-2,-1,0,-2,0,1,25
1499876396746302,16,-8,-19,-12,-5,-2,-2,72
1499876396746302,9,-10,-22,-34,-8,-6,-2,-32
1499876396767283,9,8,11,3,3,0,-3,-28
1499876396767283,-17,1,4,-6,3,0,2,-35
1499876396768283,17,5,5,-16,4,1,1,-9
1499876396768283,0,0,-17,14,-1,2,4,4
1499876396782286,-1,5,15,2,-4,-4,-1,4
1499876396782286,32,-4,-14,-44,1,0,0,44
1499876396783284,9,6,20,60,1,-2,2,-2
1499876396783284,-7,-4,-8,-42,-2,2,-1,2
1499876396805287,-8,7,19,40,5,0,0,-2
1499876396805287,12,0,5,10,-2,-1,-2,5
1499876396806285,4,-2,-31,-96,-3,0,-3,15
1499876396806285,-14,1,9,80,2,1,3,-35
1499876396827308,31,-12,-19,-12,-8,-7,-7,87
1499876396827308,-35,2,-5,18,-2,-3,-6,-67
1499876396828287,4,-7,12,-69,-5,-2,-3,-32
1499876396828287,-14,2,-25,-20,-2,-2,-3,-32
1499876396842287,-4,-3,-16,18,2,-1,-3,-1
1499876396842287,19,6,10,17,2,2,0,48
1499876396843287,-17,-5,11,26,2,0,1,-26
1499876396843287,18,-7,-14,-52,-4,-2,-2,48
1499876396865288,21,10,24,69,4,-1,2,-2
1499876396865288,3,-13,-39,-32,-8,-3,-2,-10
1499876396872291,3,13,16,32,1,-2,1,-20
1499876396872291,6,-7,-22,-94,0,2,4,28
1499876396887311,-13,-9,5,5,-4,-3,-3,-16
1499876396887311,5,0,2,-8,1,-3,0,-13
1499876396888291,-5,-3,9,43,2,-1,-4,29
1499876396888291,5,7,23,68,-1,-3,-3,29
1499876396902313,-12,0,-29,-43,-3,2,1,-11
1499876396902313,-16,-7,41,2,-1,-1,3,-52
1499876396903291,0,0,-20,38,2,-1,-4,-3
1499876396903291,-7,1,4,-60,-5,0,2,-24
1499876396925309,-8,-3,-21,11,-2,1,1,32
1499876396925309,0,1,-1,-17,-2,1,1,-16
1499876396926309,1,-1,4,-26,1,-1,-1,-21
1499876396926309,-5,-1,4,33,2,1,0,-7
1499876396947293,4,-4,-15,-3,-3,-2,3,-20
1499876396947293,-5,-2,1,-8,0,-2,-5,71
1499876396948294,6,-2,17,24,1,1,2,-32
1499876396948294,38,3,-5,63,4,-1,-8,23
1499876396962294,-28,9,12,-99,1,4,0,-38
1499876396962294,6,-10,2,57,-8,-5,-2,37
1499876396963294,-24,-2,-4,-29,-10,-5,-4,-71
1499876396963294,20,7,34,-22,3,2,3,16
1499876396985295,-2,-10,-31,38,2,-1,-2,15
1499876396985295,4,4,-6,-3,2,2,-1,-2
1499876396986296,9,0,10,-8,1,3,4,13
1499876396986296,-17,-3,-21,9,3,-1,1,-29
1499876397007297,4,-8,-4,-57,-12,-6,-7,-21
1499876397007297,-13,2,17,-15,0,-1,-4,54
1499876397008297,10,3,-30,83,3,-1,-2,-48
1499876397008297,-33,-10,-22,-75,-7,-2,-3,17
1499876397022300,8,-1,17,40,2,-2,-2,21
1499876397022300,5,4,5,-24,-6,-2,1,-21
1499876397023298,-15,-7,-3,24,2,1,-1,-13
1499876397023298,-3,2,-4,-10,-3,-6,-3,-1
1499876397045299,-2,2,25,11,-6,-1,0,3
1499876397045299,14,-1,-33,17,4,-1,1,-14
1499876397046299,-24,5,14,-2,3,-1,-6,-43
1499876397046299,-18,7,20,22,3,4,4,-6
1499876397067304,-1,-9,4,27,1,-1,1,21
1499876397067304,25,-7,-31,-10,0,1,2,3
1499876397068302,-41,2,16,-15,-3,-3,-1,44
1499876397068302,21,1,-10,23,1,1,2,-11
1499876397082324,2,12,58,70,8,3,-1,-20
1499876397082324,17,-5,-3,-98,-8,-3,-5,3
1499876397090321,-39,-19,-61,-8,-4,-5,-6,23
1499876397090321,1,-9,13,8,-5,-4,-2,-17
1499876397105302,-3,7,-15,9,8,2,1,3
1499876397105302,-14,2,12,39,6,1,2,-61
1499876397106303,27,1,17,9,-7,-2,0,27
1499876397106303,0,5,1,-33,1,0,-1,-5
1499876397127306,5,-8,-23,-19,1,2,-2,-19
1499876397127306,15,13,3,37,6,3,6,27
1499876397128304,-4,-7,35,-2,-3,-1,2,-26
1499876397128304,6,-2,-12,14,0,0,0,36
1499876397142327,-4,-2,0,22,-4,-2,-1,-32
1499876397142327,-18,1,14,-13,-1,0,-4,-7
1499876397150326,27,7,-10,3,5,1,2,29
1499876397150326,16,-7,-8,-17,-11,-5,1,42
1499876397165307,-4,-6,-9,-30,-5,-3,-3,2
1499876397165307,0,-5,-3,25,0,0,-3,3
1499876397166317,-7,2,18,3,2,1,-2,57
1499876397166317,6,5,11,38,7,3,6,43
1499876397187308,-63,2,-22,-63,-11,-9,-12,-76
1499876397187308,11,0,-19,-19,-6,-3,-3,28
1499876397188308,5,-18,7,6,-4,-4,-1,9
1499876397188308,0,2,27,6,6,4,1,-26
1499876397202308,17,7,-4,5,6,2,3,31
1499876397202308,-9,-4,9,-8,-5,-4,-3,7
1499876397210330,5,9,-5,-46,-3,-1,-1,-25
1499876397210330,-5,7,-1,9,-1,-1,-1,-34
1499876397225310,19,-13,-4,22,-2,-6,-9,93
1499876397225310,-8,0,4,21,0,0,-1,-1
1499876397226325,18,-11,-26,-27,-4,0,1,13
1499876397226325,-11,-5,4,46,0,-3,-6,-23
1499876397247333,14,8,3,-57,1,2,5,1
1499876397247333,-21,-5,-3,-29,-8,-3,-1,-16
1499876397248314,-2,-1,-3,0,1,-2,-4,8
1499876397248314,-10,-4,-25,-42,-3,-3,-3,55
1499876397262311,11,3,6,15,6,2,6,48
1499876397262311,-7,4,28,29,6,2,-1,23
1499876397270333,1,-13,-43,-13,-12,-5,-6,-39
1499876397270333,-10,4,13,22,3,3,2,-12
1499876397285315,21,-5,-21,-4,-4,-2,1,29
1499876397285315,-21,0,-7,-39,2,0,-3,1
1499876397286323,8,5,19,17,-1,-2,1,65
1499876397286323,9,1,-20,-6,-2,-3,-4,-25
1499876397307314,-7,-1,-3,-1,-3,-2,0,-22
1499876397307314,8,-5,-2,40,4,0,2,-27
1499876397308314,0,2,-9,-15,1,3,1,-38
1499876397308314,14,-3,36,43,0,-2,-2,39
1499876397322315,-58,-15,-2,-11,-13,-5,-4,-109
1499876397322315,9,1,3,-4,-3,-1,-2,-2
1499876397330337,7,10,4,13,2,1,3,29
1499876397330337,-6,4,14,24,3,2,2,12
1499876397345316,12,3,-12,-60,0,1,0,9
1499876397345316,-32,-7,-3,-3,-6,-3,0,-75
1499876397346330,-1,-1,2,-13,-3,-1,0,-30
1499876397346330,-9,1,-13,-18,-1,-2,-4,-17
1499876397367321,14,3,-4,39,0,1,2,6
1499876397367321,-2,0,-6,-19,1,0,2,6
1499876397368319,8,3,8,-6,1,-1,1,2
1499876397368319,-14,-2,13,15,-3,-4,-2,-27
1499876397382328,0,0,-6,66,3,1,2,31
1499876397382328,16,1,-13,-88,-8,0,1,36
1499876397390338,3,-3,-2,-15,-2,1,5,-84
1499876397390338,13,-7,-12,9,-7,-7,-6,35
1499876397405323,-4,-1,8,17,-2,-1,-2,-46
1499876397405323,11,6,6,24,5,1,0,21
1499876397406325,-3,-5,-7,-9,-5,-2,-4,-3
1499876397406325,4,5,5,7,1,4,5,-23
1499876397427321,2,-10,-7,-87,-3,-5,-3,7
1499876397427321,-10,-10,-33,-34,-13,-6,-7,-13
1499876397428321,8,-3,33,2,2,-1,1,49
1499876397428321,-28,-5,-19,-15,0,-4,-11,5
1499876397450342,46,3,-20,10,-2,-1,-2,15
1499876397450342,-31,5,-25,20,3,1,0,3
1499876397451323,7,0,1,7,-4,0,-3,54
1499876397451323,5,-6,0,9,-3,0,3,-45
1499876397465324,-4,3,21,11,2,0,-3,30
1499876397465324,15,-2,-7,-3,1,3,2,16
1499876397466324,-5,4,19,16,5,-1,-5,56
1499876397466324,-4,-4,-23,20,-5,-1,1,-14
1499876397487327,-4,1,-1,37,3,1,-1,-25
1499876397487327,0,-4,21,1,-9,-7,-5,-8
1499876397488329,2,0,-8,9,0,1,0,21
1499876397488329,1,-1,-3,-28,1,1,-1,14
1499876397510347,-8,6,18,12,8,5,5,-10
1499876397510347,1,-8,-5,74,3,-3,-4,6
1499876397511326,-9,7,12,-36,-7,-2,-1,-51
1499876397511326,-3,-7,-10,12,0,-1,-2,-14
1499876397525348,23,4,20,-32,-5,2,2,-39
1499876397525348,15,5,26,60,6,-1,-4,-10
1499876397526331,4,-11,-49,-15,-1,1,0,-5
1499876397526331,31,5,-4,-52,-3,0,2,17
1499876397547330,-52,-6,9,25,-1,-2,-2,8
1499876397547330,11,-2,4,2,-10,-3,1,13
1499876397548328,-5,7,33,13,-4,-6,-6,-60
1499876397548328,-3,-6,5,-7,3,1,-1,-1
1499876397570331,6,6,-5,15,0,-1,-1,-15
1499876397570331,-5,-13,-20,-19,-1,-1,1,-33
1499876397571330,9,1,0,31,1,-1,-2,14
1499876397571330,-29,7,9,-70,-2,-2,-1,-12
1499876397585351,0,-9,-4,-35,-8,-2,-2,7
1499876397585351,-3,2,-1,6,4,2,2,8
1499876397586331,0,-6,-15,-9,-4,-3,-3,-12
1499876397586331,0,3,17,13,0,-3,-1,11
1499876397615331,11,4,3,7,0,-3,-2,14
1499876397615331,17,3,-23,-13,1,0,-3,47
1499876397616332,-5,0,11,9,-4,0,0,-15
1499876397616332,2,-2,-27,35,-2,-2,-3,-5
1499876397630335,-15,-8,-11,-33,-4,-2,1,7
1499876397630335,-1,4,16,16,4,0,0,-65
1499876397631333,4,1,22,-62,-3,0,0,15
1499876397631333,0,1,16,1,1,1,0,14
1499876397645355,5,-5,-20,4,0,1,1,-3
1499876397645355,-22,-5,-9,-20,-8,-6,-3,-15
1499876397646338,8,3,-5,91,1,-2,-3,14
1499876397646338,-11,-9,-17,-33,-8,-3,-4,-43
1499876397667337,8,-4,41,-19,0,-3,-4,82
1499876397667337,0,0,5,-14,1,1,-1,17
1499876397668342,48,0,-16,7,2,2,7,67
1499876397668342,-41,-1,-8,-25,4,0,-4,-1
1499876397690337,0,-1,-13,84,0,-2,-2,-17
1499876397690337,-2,-1,-10,-102,-3,0,0,-1
1499876397691337,6,-4,3,8,0,-2,-2,9
1499876397691337,10,0,3,-3,4,3,4,4
1499876397705359,2,2,-3,-13,-2,0,2,25
1499876397705359,-7,-1,11,32,-1,-1,0,-11
1499876397706337,-19,2,-6,-13,6,4,2,-40
1499876397706337,10,-4,9,-3,-6,-5,-5,-2
1499876397727341,-10,0,-1,35,-2,-2,-2,-34
1499876397727341,4,1,10,-21,-3,0,-2,0
1499876397728339,-9,0,-5,-19,3,1,-1,-1
1499876397728339,2,3,7,46,-3,-2,1,-12
1499876397750360,10,-3,-14,15,3,-3,-3,-2
1499876397750360,-6,-2,-2,26,1,1,-1,-6
1499876397751341,-11,-1,-7,-3,2,-2,1,-11
1499876397751341,1,0,10,47,-6,-1,1,-3
1499876397765362,-3,5,-5,-58,-2,1,2,-22
1499876397765362,8,-2,1,-3,0,-1,-2,24
1499876397766341,-17,-8,2,5,-3,-3,-2,-6
1499876397766341,10,2,-4,28,2,0,-2,25
1499876397787363,-9,2,6,-26,-4,-2,-2,-5
1499876397787363,7,1,12,-1,-2,0,-1,6
1499876397788364,1,8,9,21,6,2,2,-7
1499876397788364,-6,-11,-48,-42,-10,-4,-1,3
1499876397810348,-7,-7,-11,-14,0,-3,-8,-20
1499876397810348,-11,-4,3,9,0,-3,-3,69
1499876397811343,-3,2,21,21,0,-1,-1,9
1499876397811343,7,4,11,-17,2,1,-1,26
1499876397825366,-2,0,-9,4,1,3,2,-12
1499876397825366,-3,0,-5,16,3,0,-1,-8
1499876397826344,-6,-1,-3,-8,-4,-3,-3,-15
1499876397826344,-1,-4,2,-13,-7,-5,-3,-23
1499876397847345,6,-4,-5,9,-3,0,0,18
1499876397847345,-1,1,2,-7,-2,-2,-1,-18
1499876397848345,-4,-1,-6,-9,1,0,1,-6
1499876397848345,-1,-1,-5,3,3,0,1,-14
1499876397870368,-1,4,5,-2,-1,-1,-2,-5
1499876397870368,0,4,14,18,0,1,-1,-8
1499876397871351,-5,-6,-13,-4,-5,-2,-2,-10
1499876397871351,1,6,6,-26,5,3,2,2
1499876397885369,-2,-4,9,13,-3,-1,0,0
1499876397885369,-1,0,-6,17,-3,-3,-1,-9
1499876397885369,6,2,-6,-16,-2,0,0,17
1499876397885369,-9,-1,5,-4,0,-1,-1,-5
1499876397907351,6,0,-7,-6,1,-1,-2,25
1499876397907351,-4,-1,-4,-5,-2,0,0,5
1499876397908351,3,-2,-6,-8,-2,1,-1,-5
1499876397908351,8,2,7,10,3,1,3,56
1499876397930369,4,2,-3,-8,0,1,0,-54
1499876397930369,-17,-7,-1,5,-2,-6,-13,18
1499876397931352,-5,0,-8,-5,-4,-1,-1,-8
1499876397931352,-15,-8,-7,-42,-8,-4,-4,-30
1499876397945373,-2,-1,-3,-15,3,1,3,11
1499876397945373,8,2,-3,41,1,1,5,-29
1499876397945373,-1,-5,8,-37,-3,-1,-1,-3
1499876397945373,-4,-2,5,27,-2,-1,-3,-14
1499876397967352,5,-1,-11,-1,-3,1,2,31
1499876397967352,1,2,0,-12,1,0,2,-13
1499876397968384,-4,1,2,-9,-3,-3,-2,1
1499876397968384,3,-2,-6,9,4,1,4,-21
1499876397990357,-15,2,9,27,2,-4,-11,-49
1499876397990357,-22,-6,-15,-22,-7,-3,-1,-39
1499876397991356,-3,1,-2,14,-4,-4,-6,-2
1499876397991356,37,-5,4,-6,-1,-3,0,89
1499876398005354,13,6,5,20,5,2,4,-17
1499876398005354,-13,4,13,-38,-1,-2,-2,22
1499876398005354,-5,-6,-31,5,-3,-2,-1,26
1499876398005354,16,-3,-22,-3,-6,-3,3,72
1499876398027377,-7,-2,-3,-8,0,-1,-5,2
1499876398027377,-15,-3,0,1,-2,0,-2,-35
1499876398028361,1,0,12,3,3,1,8,17
1499876398028361,-8,2,9,22,2,1,2,-15
1499876398050358,-1,-2,4,-42,-2,-1,3,26
1499876398050358,5,-3,-9,-11,1,0,0,53
1499876398051357,-21,-4,0,-5,-3,-6,-16,-79
1499876398051357,-8,4,6,-23,4,2,0,-33
1499876398064377,-4,-7,3,1,-5,-5,-3,-7
1499876398064377,16,-2,6,6,2,1,-1,20
1499876398072381,10,2,7,12,3,1,4,6
1499876398072381,-7,-1,-10,3,-2,-3,-4,-24
1499876398087381,5,-1,4,0,-5,-3,-4,23
1499876398087381,-6,1,-4,-7,0,0,4,-54
1499876398088360,3,2,-3,24,6,3,4,13
1499876398088360,-9,1,22,14,-4,0,-3,-31
1499876398110362,9,-8,-26,-43,-12,-6,2,96
1499876398110362,1,3,5,37,-1,1,1,-3
1499876398111362,7,-1,3,-17,-1,2,4,-21
1499876398111362,-20,0,0,21,3,0,-7,-86
1499876398124361,4,-4,-4,5,0,-1,2,-14
1499876398124361,9,-4,-9,-11,1,-1,-1,19
1499876398132361,1,2,-13,6,1,1,2,4
1499876398132361,11,-2,0,-2,-2,-4,1,40
1499876398147362,-8,0,3,15,1,-2,-2,-6
1499876398147362,4,2,1,0,-1,1,-1,-15
1499876398148363,-13,-1,6,-9,-3,-3,-3,-6
1499876398148363,-2,-1,-7,-10,-4,0,1,-8
1499876398178364,-6,-1,-4,-13,1,0,0,-18
1499876398178364,4,1,13,26,3,1,0,6
1499876398179382,11,-7,-19,6,-4,-2,-1,30
1499876398179382,-12,-3,-4,-14,-1,0,-1,-7
1499876398184364,-3,2,0,20,2,1,0,-22
1499876398184364,4,1,-2,-19,1,1,-1,-10
1499876398192366,-4,-2,-5,-23,-6,-4,-2,-3
1499876398192366,-1,0,-5,-7,-1,-2,-3,-11
1499876398207366,-6,-1,10,12,0,1,-1,-14
1499876398207366,1,-5,-2,0,-2,-3,-1,-2
1499876398208369,-4,-3,0,-12,-3,0,-1,3
1499876398208369,1,2,1,2,2,0,-1,4
1499876398230389,0,1,0,4,3,1,2,-6
1499876398230389,3,-1,-1,-5,-4,-2,-2,4
1499876398231371,-2,-1,0,12,4,2,-1,-2
1499876398231371,1,-1,4,-14,-1,-1,-1,3
1499876398244369,-4,-2,-6,0,1,-3,-2,-8
1499876398244369,3,-1,-1,-24,-6,-4,1,-6
1499876398252369,-9,-2,2,19,-5,-3,-2,-9
1499876398252369,-1,-2,-2,-6,-1,-2,-1,-5
1499876398267372,-2,-1,-2,-1,0,0,-1,-19
1499876398267372,0,0,-1,3,1,-1,-2,12
1499876398268370,4,2,1,-2,3,2,-1,24
1499876398268370,2,0,-3,-8,-5,-1,-1,2
1499876398291371,-4,-1,-2,1,-4,0,-1,-12
1499876398291371,-6,-2,-5,3,1,1,-1,5
1499876398292405,-3,-2,-5,-25,1,-4,-3,8
1499876398292405,-2,-4,11,27,-5,-3,-3,9
1499876398304393,-1,1,-1,-3,-1,0,0,-7
1499876398304393,-2,-3,2,7,-2,-1,-2,-6
1499876398312374,-1,-3,-7,-6,1,0,-1,-5
1499876398312374,1,1,-3,-11,2,1,1,1
1499876398327394,1,1,-5,7,1,1,3,5
1499876398327394,1,0,14,0,-1,-1,-2,-1
1499876398328374,-3,-2,-9,-3,-3,-4,-1,-12
1499876398328374,3,-1,-8,-8,1,-1,0,-1
1499876398350377,-2,-3,13,24,-3,-3,-1,6
1499876398350377,6,1,-6,2,-1,-1,0,2
1499876398351375,-1,1,10,5,-2,0,0,2
1499876398351375,-2,-2,-2,2,0,0,-2,-9
1499876398373377,-1,-1,-8,-16,-1,0,-1,5
1499876398373377,10,0,-2,8,-1,0,-2,4
1499876398374379,-7,-2,4,-4,-5,-2,-1,-17
1499876398374379,0,-1,-13,-16,-3,0,-3,10
1499876398387379,0,-1,-1,-18,-2,-1,-2,1
1499876398387379,-4,-4,9,26,-3,-4,-2,-9
1499876398388377,9,-1,-1,5,0,1,0,1
1499876398388377,-5,-1,-3,-5,-3,-2,0,-7
1499876398410377,1,-2,-3,-6,1,-2,-1,-1
1499876398410377,-3,-1,-8,-4,2,-2,1,4
1499876398411381,0,1,2,-2,1,0,-1,-4
1499876398411381,0,0,0,-8,2,0,1,-1
1499876398433401,-2,1,0,23,0,1,1,-7
1499876398433401,-5,-3,-1,-21,-9,-4,-3,1
1499876398434379,1,-1,0,6,-1,0,-2,2
1499876398434379,3,1,-1,0,-1,2,0,-4
1499876398447380,-3,-1,-4,-4,-3,-1,-3,-9
1499876398447380,-2,-1,-5,-6,3,1,-1,2
1499876398448381,-1,-1,1,-3,-2,-3,0,0
1499876398448381,-2,-2,4,3,-1,-3,-2,-6
1499876398470403,1,-1,-1,-2,1,-1,1,9
1499876398470403,-1,0,1,1,-2,-1,0,0
1499876398471382,-1,0,0,2,1,0,0,-1
1499876398471382,0,-1,-2,6,2,2,2,-2
1499876398493404,-2,-2,0,-3,-2,-2,-2,2
1499876398493404,-2,0,-5,-5,-3,-2,0,-3
1499876398494404,-2,-3,-2,-3,-2,-2,0,-5
1499876398494404,0,-2,0,3,-1,1,-2,0
1499876398507406,-2,-2,-1,-3,-3,-2,-2,-1
1499876398507406,-2,-1,-4,-5,1,0,-2,-5
1499876398508414,0,0,1,2,-2,-2,0,1
1499876398508414,0,-1,4,3,2,-1,-1,0
