timestamp,emg1,emg2,emg3,emg4,emg5,emg6,emg7,emg8
1499876443188478,-19,-11,-63,61,6,0,-39,108
1499876443188478,41,-30,-60,-107,-25,-10,43,8
1499876443193503,-38,13,32,-86,-8,-12,-6,-77
1499876443193503,61,-34,31,1,-3,-7,-10,-19
1499876443194473,-100,-15,-17,36,7,1,5,-116
1499876443194473,-14,-20,-33,92,-4,-8,-22,-22
1499876443196505,39,-3,21,45,11,8,9,102
1499876443196505,-110,-14,29,24,22,12,-15,-13
1499876443206512,93,13,84,8,-7,2,7,19
1499876443206512,-70,-7,-9,105,-2,-9,-18,-67
1499876443218478,34,27,-53,-39,-13,-5,-19,-13
1499876443218478,8,-13,-15,116,-4,-9,-30,11
1499876443221488,-16,-24,-30,-71,-20,-1,84,-15
1499876443221488,-12,23,6,80,14,13,7,76
1499876443236510,-5,3,17,64,6,-5,-1,24
1499876443236510,6,24,18,-79,-7,0,-6,-21
1499876443245508,23,-19,16,51,16,10,9,52
1499876443245508,-14,0,-27,9,5,-4,-11,-25
1499876443260492,3,-9,-36,-74,-21,-1,-13,-21
1499876443260492,13,9,39,108,29,4,-10,-29
1499876443266517,5,-17,-42,34,-14,-14,-18,21
1499876443266517,-3,28,61,33,9,9,7,-34
1499876443281482,1,-10,-23,-46,1,1,15,81
1499876443281482,38,11,57,8,-16,-5,-12,46
1499876443322479,-2,-12,-62,-15,-4,1,28,-15
1499876443322479,-16,1,3,19,3,4,-14,47
1499876443323512,-1,13,45,-40,14,3,23,7
1499876443323512,-6,-34,-11,-80,-22,-11,-23,-7
1499876443324477,3,46,-9,-76,13,9,12,58
1499876443324477,-15,-11,15,59,-4,-10,-12,-32
1499876443326488,21,3,-22,-55,-1,-1,-3,12
1499876443326488,-22,6,13,120,11,5,-15,11
1499876443335474,75,13,10,-43,6,3,-2,47
1499876443335474,-30,-8,-62,44,-11,-5,2,-47
1499876443341476,-9,6,34,65,3,5,7,-59
1499876443341476,-9,-19,18,-40,-10,-6,-1,-17
1499876443350476,-21,8,36,-22,-1,-5,-17,-60
1499876443350476,11,-8,27,68,10,-2,-3,64
1499876443363542,50,1,24,-60,-6,2,4,24
1499876443363542,8,-6,-98,-30,-9,4,13,-8
1499876443372482,-7,-15,15,127,-13,-11,-13,28
1499876443372482,23,-4,5,-83,-10,-6,-13,-22
1499876443395512,-1,-2,-42,-24,4,4,14,1
1499876443395512,75,38,38,-56,23,9,13,37
1499876443396517,-15,-8,-69,43,-16,1,-3,57
1499876443396517,31,-24,35,72,5,-1,26,-46
1499876443409498,-90,-19,-18,-49,-7,-3,-24,13
1499876443409498,-4,24,38,15,4,0,6,-31
1499876443416499,-29,-11,-6,-61,-3,-3,-20,-57
1499876443416499,65,22,-2,21,6,4,6,104
1499876443432480,-16,-25,-41,-2,-16,-8,-8,-17
1499876443432480,-8,-1,44,53,4,0,0,-7
1499876443434504,-45,0,29,59,9,1,-7,-44
1499876443434504,51,8,-76,-42,-13,-3,8,106
1499876443455483,8,11,5,5,6,-4,-5,-16
1499876443455483,-7,7,-2,48,3,0,2,64
1499876443456494,-10,-21,-18,-85,-15,-8,-2,-32
1499876443456494,4,-1,37,-28,4,3,-2,-40
1499876443469527,-17,11,43,-9,10,6,-4,19
1499876443469527,51,-16,-32,67,12,2,9,-13
1499876443476519,-12,-16,-45,-40,-17,-6,-3,26
1499876443476519,25,-36,-30,-49,-6,2,-1,-79
1499876443492489,-1,7,50,-9,7,3,0,58
1499876443492489,-26,-5,2,-24,-8,-5,-4,-14
1499876443494497,66,7,20,-37,6,2,-1,39
1499876443494497,-75,11,31,-53,5,-3,-13,-35
1499876443515555,21,-9,-4,70,-9,-8,2,-51
1499876443515555,-72,-8,-5,14,-3,1,7,-26
1499876443516521,84,21,4,5,12,7,-1,-12
1499876443516521,-16,28,49,23,-2,-4,-3,-46
1499876443529556,-16,-15,-37,-23,-17,-9,-7,80
1499876443529556,12,7,15,52,-4,-11,-5,6
1499876443536533,29,-4,-36,45,-9,-3,5,51
1499876443536533,-17,7,-23,-44,1,2,-4,-18
1499876443552514,36,4,-36,88,6,5,-3,11
1499876443552514,13,11,6,-128,-11,-3,-6,9
1499876443554494,-58,0,32,124,12,7,7,-13
1499876443554494,19,-20,-32,-60,-16,-3,6,53
1499876443575529,8,-2,-16,37,-16,-13,-10,-89
1499876443575529,-12,-4,-1,-33,-8,-3,-7,19
1499876443576500,-9,-5,16,37,10,0,-8,-20
1499876443576500,-42,18,26,50,15,9,9,22
1499876443589494,23,3,-19,-24,-11,-4,-4,-26
1499876443589494,29,-9,-2,7,-1,-5,-4,16
1499876443597557,-71,1,6,88,17,8,1,-18
1499876443597557,-10,-1,10,77,-19,-13,8,61
1499876443612510,-22,-3,3,1,10,5,6,55
1499876443612510,-55,-4,5,11,-1,-2,-30,-53
1499876443614496,49,0,-8,-83,-16,-7,-8,24
1499876443614496,-32,-6,-23,-58,10,8,32,-20
1499876443635555,19,5,45,127,16,-3,-14,38
1499876443635555,-1,-17,-43,12,-11,1,12,24
1499876443636496,-59,-10,14,-90,-16,-13,-19,-111
1499876443636496,14,5,18,30,11,4,-13,14
1499876443649533,8,10,-22,8,5,7,13,4
1499876443649533,4,-8,3,23,-1,-3,-6,-35
1499876443657573,18,0,-12,4,2,0,4,44
1499876443657573,-16,1,7,63,1,-1,-4,-14
1499876443672537,1,-4,16,24,-5,-6,-1,-32
1499876443672537,-37,1,-34,-7,-1,-3,-6,18
1499876443674497,-32,-5,56,17,-2,-2,8,-85
1499876443674497,38,11,-20,27,11,6,-3,37
1499876443695538,-46,-3,40,-23,-5,2,-5,-28
1499876443695538,29,-6,-40,-1,4,6,5,91
1499876443696510,-23,-2,-41,46,-5,-4,9,38
1499876443696510,47,0,-21,-8,-5,-5,-2,-22
1499876443709515,0,-5,15,-40,-2,0,-1,29
1499876443709515,-14,16,62,52,4,1,5,-21
1499876443717570,59,7,-31,-76,9,9,13,112
1499876443717570,-42,-8,40,-51,-17,-12,-28,-114
1499876443732545,2,-12,-56,-21,-1,3,-7,26
1499876443732545,30,8,-13,-53,3,4,34,66
1499876443734503,8,2,58,60,10,2,-1,21
1499876443734503,37,-2,-64,-34,-3,2,4,49
1499876443755516,-47,-8,43,81,0,-4,-14,-38
1499876443755516,-29,-7,41,-47,-17,-9,-13,-18
1499876443756509,38,14,15,3,-4,-5,-1,-23
1499876443756509,-39,-21,-22,-32,-11,-4,-7,-51
1499876443769528,14,9,-4,-57,-2,-1,2,-15
1499876443769528,7,1,9,-83,12,8,-1,-44
1499876443777514,1,-8,3,16,-11,-7,2,7
1499876443777514,37,8,9,22,6,1,-4,18
1499876443792504,11,-2,32,-125,-5,-6,-2,80
1499876443792504,59,9,-79,22,1,2,8,69
1499876443794504,-40,-10,25,-20,1,1,-4,24
1499876443794504,17,5,47,26,2,3,-5,53
1499876443815518,-56,-13,-16,-69,-7,-8,-7,-45
1499876443815518,19,14,-11,39,-1,0,13,-30
1499876443816508,-25,-10,32,36,4,0,-7,10
1499876443816508,0,5,-47,57,4,2,-5,82
1499876443829532,41,2,29,-57,-7,0,14,-5
1499876443829532,6,6,18,75,5,2,-10,53
1499876443837573,-25,-4,-48,-68,-9,-1,13,-63
1499876443837573,-44,-15,34,10,-4,-6,-10,-63
1499876443852546,38,11,-12,38,18,9,3,35
1499876443852546,-34,0,-2,-59,-17,-6,-7,-72
1499876443854518,21,4,-16,-40,-4,0,-7,-15
1499876443854518,-35,13,35,2,2,2,-4,-63
1499876443875545,27,-2,-19,19,-3,-4,1,-5
1499876443875545,-18,-17,13,23,4,0,2,-46
1499876443876509,-4,-5,34,-9,3,-3,-11,-4
1499876443876509,20,-2,-9,-11,-11,-6,1,20
1499876443889531,-11,1,-3,-11,-2,0,1,-42
1499876443889531,-31,-1,-18,35,-5,-6,-10,-84
1499876443898512,52,-4,25,0,-10,-2,6,70
1499876443898512,-89,-3,20,-11,3,-2,-10,-27
1499876443912526,25,0,-31,76,0,3,0,30
1499876443912526,40,-8,11,-65,-6,-4,1,70
1499876443914546,-34,1,-10,5,-7,-2,1,25
1499876443914546,12,-6,6,-64,-10,-4,-2,-5
1499876443935584,-17,9,15,89,14,4,7,8
1499876443935584,-16,-9,-20,-80,-8,0,-1,14
1499876443936514,9,-3,-34,39,4,3,1,-40
1499876443936514,27,14,20,-17,13,8,14,88
1499876443948574,-42,-3,50,-18,-17,-12,-11,-85
1499876443948574,7,-11,-35,84,3,-2,-8,44
1499876443957563,-24,-5,-26,-37,3,-1,0,-9
1499876443957563,42,0,22,-45,-2,-1,-4,75
1499876443972517,12,-9,-38,-5,1,-1,-5,-7
1499876443972517,14,3,17,-7,1,1,9,-8
1499876443974517,-6,10,58,88,2,-4,-8,17
1499876443974517,-6,-14,-96,-31,-15,-8,-4,30
1499876443995555,-10,10,24,70,-2,-5,2,90
1499876443995555,-29,-9,44,-98,-15,-6,-7,-41
1499876443996555,4,8,30,73,8,1,4,36
1499876443996555,-15,-11,-73,-43,2,1,-4,-70
1499876444017577,4,-14,24,-30,-13,-6,-5,9
1499876444017577,49,12,0,81,10,5,8,46
1499876444019518,0,0,-14,-88,5,5,-4,9
1499876444019518,-35,7,67,127,4,-3,0,-102
1499876444032519,-6,2,-17,-125,-8,0,0,-52
1499876444032519,-25,8,-9,30,5,0,-18,-103
1499876444034520,-16,-7,22,23,-3,-5,6,-41
1499876444034520,-5,-7,24,-37,-6,-5,2,10
1499876444055609,20,-1,-46,-4,6,7,11,42
1499876444055609,20,9,44,28,11,3,-13,32
1499876444056522,0,13,-23,68,8,-1,8,40
1499876444056522,-56,-20,-34,-72,-3,-4,-6,40
1499876444077570,34,6,-12,53,2,1,3,38
1499876444077570,31,10,-8,47,4,4,5,61
1499876444079523,-11,-16,-7,-63,-14,-10,-20,-53
1499876444079523,52,1,65,37,4,5,12,51
1499876444092553,-18,-4,-11,32,-1,-1,-7,-20
1499876444092553,-9,-10,-9,-65,-6,-3,-1,2
1499876444094523,44,4,-54,22,-5,-6,-9,42
1499876444094523,-26,-6,52,53,2,-4,4,-45
1499876444115590,10,5,1,21,-4,-1,-17,-70
1499876444115590,-73,-8,21,-3,0,-2,13,-84
1499876444116523,-29,10,79,-64,-6,-1,-6,-36
1499876444116523,74,2,-96,-128,-24,-7,1,-40
1499876444137594,-34,-18,57,40,-11,-15,-12,5
1499876444137594,-8,3,-37,22,8,5,7,94
1499876444139534,-30,2,49,77,21,8,8,-82
1499876444139534,28,13,-70,-11,-1,3,-12,29
1499876444152565,3,5,19,49,4,2,-3,-40
1499876444152565,-15,-14,-30,-26,-5,0,13,-49
1499876444159526,-22,-5,24,-14,-1,-2,-2,-25
1499876444159526,41,12,1,53,7,1,-2,14
1499876444175528,3,15,-42,19,2,2,12,94
1499876444175528,-11,-10,48,88,4,0,-7,-25
1499876444176535,-5,-5,3,-88,-14,-7,-13,25
1499876444176535,-17,-22,-37,-19,1,0,6,20
1499876444197564,-35,0,72,-53,6,1,-3,-43
1499876444197564,-4,1,-16,-39,-8,-3,-1,8
1499876444203588,20,-8,-33,88,-2,0,1,9
1499876444203588,-34,5,42,-17,-6,-5,-5,-54
1499876444212539,-9,1,-5,27,-5,-2,6,-10
1499876444212539,32,3,-4,-78,-1,-1,-1,43
1499876444218530,10,7,17,35,7,2,1,-5
1499876444218530,-12,8,25,-8,6,2,0,39
1499876444235599,12,-11,-60,-40,1,5,10,-6
1499876444235599,18,19,34,61,3,1,0,12
1499876444237530,20,0,-32,11,2,-1,-3,1
1499876444237530,14,-14,-25,65,-10,-6,-3,30
1499876444257593,-13,3,-22,-72,-1,1,-2,9
1499876444257593,8,4,13,26,-1,-2,-3,3
1499876444259551,20,6,14,-6,4,4,5,-7
1499876444259551,-14,-4,25,-41,14,11,9,-65
1499876444272574,-4,1,12,25,-7,-7,-8,-95
1499876444272574,28,-7,-36,-70,-4,-3,-2,51
1499876444278533,-34,-5,-29,-25,-7,-7,-10,7
1499876444278533,34,14,34,-10,20,8,4,33
1499876444293573,-46,-14,31,104,-17,-8,-7,-45
1499876444293573,-9,-11,26,-51,-5,-3,-5,-23
1499876444302576,2,-2,-17,4,-3,-1,6,28
1499876444302576,-10,1,13,7,-1,-4,-2,-62
1499876444317577,9,-6,-25,-49,5,2,-1,34
1499876444317577,33,10,-4,109,6,3,-3,18
1499876444319534,-38,-3,-17,-84,-7,-1,8,-41
1499876444319534,-30,-9,19,-12,-10,-8,-11,-74
1499876444340576,39,9,-30,-15,13,6,3,64
1499876444340576,-38,6,23,-5,-4,-3,-3,-51
1499876444341537,40,-4,3,-47,-1,4,5,35
1499876444341537,-21,4,45,45,0,-2,-2,-12
1499876444353594,9,-14,-77,-123,-13,-4,3,48
1499876444353594,11,-1,10,33,-2,-4,-5,-17
1499876444362577,0,4,5,50,3,1,6,0
1499876444362577,-10,12,39,61,4,2,1,32
1499876444377588,23,-21,-35,-32,-14,-10,-10,79
1499876444377588,-2,-1,-12,-53,0,2,-1,-46
1499876444379538,-55,-28,-13,-68,-16,-10,-8,-59
1499876444379538,-1,-7,-14,2,2,2,1,10
1499876444400609,1,20,67,67,13,7,7,-48
1499876444400609,-10,1,-14,101,2,-1,-8,-8
1499876444401541,18,9,41,-77,1,2,2,11
1499876444401541,-2,-15,-69,-10,-12,-8,1,-34
1499876444413605,41,7,-5,-6,5,3,4,9
1499876444413605,-55,-14,13,35,-1,-3,2,-4
1499876444422583,35,19,39,38,5,1,-5,94
1499876444422583,3,-8,-74,-24,-15,-5,5,31
1499876444437549,18,10,-20,35,8,4,3,-33
1499876444437549,-26,-1,46,-89,-7,-1,-1,-67
1499876444439552,30,-4,-39,19,2,2,4,20
1499876444439552,-19,-1,-3,7,-8,-7,-5,27
1499876444460583,-28,6,46,18,4,2,3,-66
1499876444460583,22,-7,-27,25,-3,0,0,100
1499876444461543,0,-7,-1,-23,-2,-3,-8,25
1499876444461543,-29,-3,-27,-24,-11,-10,-14,-88
1499876444474571,62,-10,-19,-63,4,6,6,113
1499876444474571,-35,19,11,-10,4,6,3,-103
1499876444482585,-52,-16,5,42,-5,-8,-7,-24
1499876444482585,32,-9,32,5,2,0,2,87
1499876444497555,-45,-4,12,-18,-6,-7,-13,27
1499876444497555,16,11,1,-29,-2,2,5,-16
1499876444499546,28,-7,-49,74,-3,1,-9,-59
1499876444499546,3,8,12,-16,5,5,14,18
1499876444520574,3,3,27,74,0,-2,4,-49
1499876444520574,15,-12,-51,-78,-3,0,-2,71
1499876444521546,11,8,24,39,7,0,-5,64
1499876444521546,-35,-18,37,7,-10,-6,-12,11
1499876444542560,-48,-4,-42,-79,-2,2,8,-41
1499876444542560,25,10,8,67,16,2,-3,62
1499876444544547,3,-10,-12,82,-7,-2,7,46
1499876444544547,48,18,-40,-11,3,3,8,14
1499876444557590,-73,-8,-10,-6,-1,-7,-15,-91
1499876444557590,-8,-23,86,21,3,-3,-3,-13
1499876444559549,-22,-9,-64,-61,-15,-7,-6,-78
1499876444559549,17,11,33,5,10,4,4,17
1499876444580594,-1,0,-26,45,-3,0,-2,-5
1499876444580594,7,1,-37,-9,4,2,4,-6
1499876444581549,4,4,57,41,10,8,6,-43
1499876444581549,-13,-10,3,-53,-6,-8,-7,44
1499876444602591,61,-2,-43,-5,-6,-3,1,87
1499876444602591,-29,-3,23,-37,-9,-5,-2,-54
1499876444604551,10,-6,-29,-37,0,1,6,1
1499876444604551,0,9,9,-11,12,8,3,-32
1499876444617553,21,9,54,44,14,8,5,71
1499876444617553,-39,-25,-67,-79,-39,-19,-13,28
1499876444623553,33,17,-18,-58,1,0,-1,17
1499876444623553,-9,-12,2,34,1,-1,4,-33
1499876444640596,31,24,51,57,8,4,5,1
1499876444640596,11,2,-25,-8,4,-2,-2,-22
1499876444641556,-22,-19,16,-2,-8,-7,-6,-51
1499876444641556,3,-11,-62,12,-4,-2,-3,22
1499876444662597,-9,2,28,-21,-2,-1,0,-37
1499876444662597,4,16,37,58,7,0,-10,-54
1499876444664554,-13,-3,-6,-37,-2,2,9,-64
1499876444664554,-1,11,14,29,0,-1,-6,-7
1499876444677605,-30,-23,-1,-16,-4,-3,-4,-33
1499876444677605,41,6,-11,-1,5,2,2,41
1499876444683566,11,5,19,41,1,1,5,-12
1499876444683566,-31,-2,28,86,-4,-5,-9,-69
1499876444700600,-10,4,3,-31,-3,-4,-1,41
1499876444700600,-1,-9,-58,-1,-9,-5,4,-25
1499876444701557,3,-1,-2,-36,2,2,0,12
1499876444701557,18,9,34,2,10,8,4,57
1499876444722597,68,-1,7,43,-2,-1,-2,-16
1499876444722597,-81,-19,-12,24,-2,-6,-8,10
1499876444724559,-7,16,32,32,8,4,2,15
1499876444724559,21,-7,19,-10,-12,-5,-3,-2
1499876444737559,0,3,-69,30,11,5,6,13
1499876444737559,38,-20,-19,8,-4,4,8,-25
1499876444743632,-28,-4,23,-87,-10,-10,-14,-22
1499876444743632,-1,-1,14,2,3,3,4,19
1499876444760593,-75,-7,25,21,-5,-5,-6,-64
1499876444760593,41,13,12,36,6,6,10,30
1499876444761563,-34,-13,-15,35,-7,-4,-5,-35
1499876444761563,5,9,-9,-6,2,2,0,31
1499876444782600,2,-10,10,4,-8,-6,-4,-62
1499876444782600,45,-3,-24,-48,-6,-2,8,92
1499876444784561,16,4,12,-4,2,2,0,34
1499876444784561,-34,4,-6,-25,10,5,-1,-36
1499876444797578,14,-6,-38,24,-8,-5,-1,55
1499876444797578,1,5,3,62,2,-1,-6,57
1499876444803565,-5,5,-45,-13,2,2,4,-18
1499876444803565,23,-9,41,-17,-11,-8,-5,-3
1499876444820565,-20,5,33,31,5,2,-6,29
1499876444820565,-11,-6,-12,-100,-14,-3,-5,-62
1499876444821564,29,10,-57,86,5,1,0,74
1499876444821564,-39,-23,36,-64,-5,-6,-13,-95
1499876444842568,-21,-18,-34,-88,-9,-5,-2,-18
1499876444842568,15,12,23,22,8,2,0,26
1499876444844565,-10,-4,12,20,2,-1,-1,-10
1499876444844565,47,17,-32,29,5,5,10,65
1499876444857565,5,-9,11,-60,-12,-6,-8,-2
1499876444857565,-20,-6,14,-14,1,-7,-15,3
1499876444863566,-5,2,-4,-8,-2,-1,1,-1
1499876444863566,21,18,26,42,9,3,9,62
1499876444880569,24,-3,-22,3,-3,0,-3,46
1499876444880569,-14,-5,6,29,-1,-4,-4,12
1499876444881565,21,1,0,7,2,2,5,11
1499876444881565,12,-14,-38,4,-7,-7,-6,41
1499876444902610,-14,5,-16,-6,6,3,4,-25
1499876444902610,-16,22,69,101,11,3,1,-42
1499876444904567,3,-20,-65,-89,-22,-8,-9,13
1499876444904567,3,-12,-41,52,-9,-2,-2,0
1499876444925609,-5,8,36,3,0,-1,0,-50
1499876444925609,7,0,28,54,8,4,6,37
1499876444926591,3,7,56,-70,9,7,4,8
1499876444926591,-16,8,18,77,-10,-2,-5,-30
1499876444940636,22,-6,-68,-6,-4,-6,2,24
1499876444940636,-2,-3,7,-1,-11,-6,-6,-3
1499876444941569,-10,5,-16,31,4,4,13,-56
1499876444941569,-7,4,10,-51,10,7,2,10
1499876444962611,17,3,15,31,2,1,2,60
1499876444962611,-21,-4,-21,39,-7,-4,-2,-43
1499876444964592,10,-10,-16,-57,-8,-5,-6,22
1499876444964592,8,2,12,12,-1,-2,-2,25
1499876444977580,-75,-2,32,3,4,0,-14,-102
1499876444977580,6,-2,-11,-59,-2,0,14,14
1499876444983631,5,11,41,55,8,2,-3,75
1499876444983631,-80,-11,14,-15,-7,-12,-21,-25
1499876445000617,26,-11,-23,-37,-12,-5,0,63
1499876445000617,13,4,0,-14,6,3,-5,-3
1499876445001595,-23,-7,18,12,-5,-4,-6,-29
1499876445001595,2,8,-37,28,14,6,8,-12
1499876445022614,22,24,33,-66,3,7,6,20
1499876445022614,-8,-20,-20,14,-5,-5,-8,-8
1499876445024599,-10,-5,-21,-59,-7,-6,-2,-66
1499876445024599,24,12,-2,-35,-4,-1,-2,41
1499876445036618,-7,0,-25,49,1,3,7,8
1499876445036618,-13,10,63,-18,7,6,3,-6
1499876445045574,4,-8,-9,9,-2,-2,0,45
1499876445045574,-27,-14,-16,-36,-12,-6,-2,-108
1499876445060617,-8,1,1,60,2,-4,-5,13
1499876445060617,28,0,15,-34,-3,-2,-1,13
1499876445061599,-22,-5,39,19,-5,-6,-8,-10
1499876445061599,57,3,-15,18,3,1,0,4
1499876445082618,-23,-13,6,13,2,0,4,20
1499876445082618,3,5,-35,49,-7,-3,-1,47
1499876445084577,-11,-2,-4,48,1,-1,-2,1
1499876445084577,41,-2,-19,-38,-10,-3,3,62
1499876445096621,7,-5,68,33,0,-3,-7,11
1499876445096621,13,-8,-80,-12,3,-1,1,49
1499876445105579,10,1,-21,-6,6,6,3,18
1499876445105579,-21,4,62,25,7,1,1,-5
1499876445120643,11,6,-53,88,-3,-1,-1,-1
1499876445120643,-3,-4,-10,-114,-17,-5,-1,-39
1499876445121603,-15,6,39,55,0,-4,-2,1
1499876445121603,-14,-6,-26,-30,2,2,3,-11
1499876445142620,18,-3,8,-33,5,3,4,33
1499876445142620,19,-2,-9,21,-1,-1,-1,27
1499876445144588,-17,-2,27,-11,0,-4,-2,55
1499876445144588,-20,-1,27,-12,-5,-5,-8,1
1499876445156624,4,2,52,-14,-1,-2,2,-40
1499876445156624,-7,1,2,17,11,7,-2,-56
1499876445165581,-28,-5,13,-24,-12,-5,-11,-29
1499876445165581,1,-10,-48,-38,2,1,9,27
1499876445180646,4,-7,-37,-7,-8,-3,-5,7
1499876445180646,-8,8,13,-22,1,-1,1,-53
1499876445181610,-25,4,59,48,2,0,-5,-68
1499876445181610,10,9,-10,14,2,5,6,-81
1499876445202626,13,6,28,-21,6,2,-5,28
1499876445202626,-45,-22,-19,92,-16,-12,-6,-80
1499876445204584,25,4,35,24,4,0,5,33
1499876445204584,22,-2,11,9,2,2,5,85
1499876445216629,-12,1,-1,-22,5,2,4,-20
1499876445216629,19,6,-36,-28,7,5,3,20
1499876445232603,21,-7,-34,99,-5,-5,-3,-3
1499876445232603,-27,-6,11,-91,-18,-11,-12,-17
1499876445240652,1,-7,-3,-7,-5,-2,-2,-87
1499876445240652,29,7,40,4,10,3,-3,25
1499876445241588,36,4,-72,-32,3,4,5,81
1499876445241588,-18,3,13,62,7,2,-5,-91
1499876445262627,-5,6,-37,-21,-4,-2,0,3
1499876445262627,3,2,22,26,-5,0,-1,4
1499876445264610,12,-1,-11,-81,-1,-1,4,-16
1499876445264610,11,5,22,52,2,3,10,20
1499876445276620,-9,-2,-24,15,0,-1,1,43
1499876445276620,-11,1,17,-3,2,1,3,-62
1499876445285589,26,8,29,103,13,4,0,39
1499876445285589,-67,-11,-56,-105,-24,-10,-6,-41
1499876445300633,1,-7,12,30,-4,-2,-1,-9
1499876445300633,13,-5,9,0,-1,-2,-3,94
1499876445301613,-25,5,37,16,4,2,-3,-65
1499876445301613,-5,5,18,-44,4,1,-3,-55
1499876445323657,8,-9,-58,2,-2,0,2,9
1499876445323657,-37,-3,-35,17,-9,-7,-7,-23
1499876445324633,15,-11,2,-80,-4,-5,-4,-48
1499876445324633,20,6,2,76,12,6,5,36
1499876445336626,16,2,5,-40,-3,-4,-8,43
1499876445336626,-4,8,22,12,6,7,6,-26
1499876445345593,-17,-3,-2,-45,-4,-6,-11,16
1499876445345593,-18,2,3,24,-6,-7,-4,-15
1499876445360637,-70,-2,-3,14,6,1,-1,-79
1499876445360637,-4,8,27,-1,-3,0,-1,2
1499876445361592,4,-10,-2,-22,-1,-1,1,1
1499876445361592,5,2,20,17,7,5,1,34
1499876445382636,26,0,-16,52,1,-1,-4,20
1499876445382636,-34,-11,-2,-102,-14,-7,-6,-41
1499876445384594,20,0,-8,-6,-2,-1,4,-8
1499876445384594,36,-1,-5,58,-1,-1,-1,38
1499876445396639,-9,-8,-2,-8,-4,-3,0,-13
1499876445396639,2,6,27,16,13,4,2,29
1499876445405596,-35,-5,-45,-59,0,6,3,-29
1499876445405596,38,-15,-7,56,-15,-15,-9,24
1499876445420637,10,12,29,-63,-3,1,2,24
1499876445420637,-7,-10,19,46,6,0,-3,7
1499876445421604,-18,-6,-53,-40,-7,-2,1,0
1499876445421604,5,0,-13,1,8,7,4,24
1499876445442638,10,8,-5,-6,1,1,2,-24
1499876445442638,-7,-10,80,19,-1,-7,-5,-22
1499876445444605,28,-4,-60,81,-13,-5,1,28
1499876445444605,-1,-1,-15,-117,-9,-2,-3,-42
1499876445465645,-61,2,43,-18,3,-1,-8,-55
1499876445465645,4,19,24,8,7,4,5,22
1499876445466605,18,-12,-28,35,-3,-4,-4,7
1499876445466605,2,-7,1,-2,-3,1,3,-37
1499876445480641,2,2,5,-3,-1,-2,-2,50
1499876445480641,46,5,-58,-28,-2,2,5,91
1499876445481606,-79,-5,62,-15,-4,-9,-13,-15
1499876445481606,4,5,8,32,5,5,1,-3
1499876445502642,28,-1,-11,48,7,1,0,54
1499876445502642,-7,-19,-39,-11,-15,-6,0,11
1499876445504601,24,11,39,-3,1,1,3,17
1499876445504601,-9,8,-5,-32,6,2,3,6
1499876445525602,-18,-1,67,-16,-2,-3,-5,-16
1499876445525602,-14,-16,-54,99,-8,-7,-8,-80
1499876445526602,-2,4,-4,-40,4,2,1,-2
1499876445526602,-11,8,-9,17,-2,-1,0,-15
1499876445540613,4,-4,-37,-9,-2,-2,-1,2
1499876445540613,-15,-10,10,-20,1,-2,-5,-26
1499876445541604,1,-5,14,7,2,0,2,-1
1499876445541604,1,8,13,11,3,1,-3,14
1499876445562651,24,-3,-11,84,-5,-3,2,60
1499876445562651,-1,7,-12,-85,-8,-1,1,8
1499876445564605,0,11,16,16,7,3,2,11
1499876445564605,63,1,17,51,3,1,6,97
1499876445585664,-23,1,9,-21,0,0,1,-47
1499876445585664,-6,-15,-49,-55,-7,-5,-2,36
1499876445586611,-5,5,26,18,-6,-3,-7,-19
1499876445586611,2,2,-51,-1,3,3,6,5
1499876445599650,-3,-19,59,-34,-8,-5,-5,-86
1499876445599650,1,4,4,20,3,2,-1,13
1499876445606656,15,3,-13,15,1,1,-1,-2
1499876445606656,-58,-9,-11,-84,-7,-5,-2,-77
1499876445622656,22,7,-24,6,-2,-4,-6,25
1499876445622656,-5,7,33,-28,-4,-1,4,2
1499876445624609,8,0,19,19,2,1,1,1
1499876445624609,-22,-14,26,3,3,2,-3,-8
1499876445645672,6,-8,-44,-12,-6,-2,-1,-5
1499876445645672,16,17,23,-20,2,1,1,27
1499876445646615,-2,0,23,46,1,-3,2,10
1499876445646615,-21,-5,-3,-6,-3,-3,-6,24
1499876445659654,8,-8,-39,29,0,1,2,29
1499876445659654,-44,-10,-4,-43,-9,-5,-9,-62
1499876445666654,9,6,20,-43,-4,-3,0,23
1499876445666654,3,0,17,14,3,-1,-2,-25
1499876445682652,1,-2,3,-8,-7,-7,0,-7
1499876445682652,34,1,11,38,7,2,2,-21
1499876445684611,-30,2,-12,64,3,2,1,-19
1499876445684611,-12,-20,-45,-79,-18,-9,-6,3
1499876445712653,1,8,3,-17,3,6,7,20
1499876445712653,12,-3,-7,20,6,1,2,-18
1499876445714656,19,7,26,-59,2,2,1,12
1499876445714656,6,-13,-23,25,-4,-3,-4,-7
1499876445719682,-4,-4,-52,19,-3,-2,0,31
1499876445719682,-9,9,13,13,11,0,-1,27
1499876445726661,5,-8,26,10,-2,0,1,-22
1499876445726661,1,14,37,10,6,0,-4,75
1499876445742615,-12,-1,25,30,-2,-1,-4,-6
1499876445742615,-43,-12,-57,-23,-17,-9,-9,-47
1499876445744623,11,-8,-7,-44,-4,-4,-3,-3
1499876445744623,3,10,3,16,2,3,8,-15
1499876445765666,4,0,22,2,9,1,-3,-52
1499876445765666,13,-4,2,54,0,1,-3,-25
1499876445766617,-1,-1,-2,-75,-7,0,1,-1
1499876445766617,1,-12,-25,14,-5,-7,-12,50
1499876445779659,38,9,3,-4,-3,0,3,46
1499876445779659,-12,-4,8,-4,0,2,2,-36
1499876445786662,6,-7,-21,9,-4,-5,-5,-7
1499876445786662,4,19,36,17,15,11,9,-26
1499876445802618,-4,-4,49,13,2,-1,1,-40
1499876445802618,19,-3,-60,-97,-13,-6,-2,63
1499876445804627,-37,-11,17,-2,1,-1,-1,-20
1499876445804627,-10,9,31,35,2,-2,-6,-39
1499876445825662,-16,-9,-26,-29,6,3,-2,-18
1499876445825662,13,12,33,51,-2,3,5,2
1499876445826624,-20,-17,-5,-28,-10,-4,-2,-27
1499876445826624,12,1,-19,-18,-7,-10,-9,78
1499876445839685,-1,-3,-26,-9,-5,2,3,8
1499876445839685,17,6,35,-23,8,1,-2,9
1499876445846663,-14,7,-2,68,3,4,3,-4
1499876445846663,11,-4,-29,-31,-7,0,2,-23
1499876445862666,19,-2,-35,1,0,0,0,43
1499876445862666,-23,-8,21,26,6,-1,-1,-13
1499876445864637,17,6,-28,-17,-1,0,0,45
1499876445864637,2,-12,15,-7,-11,-6,-4,-76
1499876445885694,-49,5,5,23,1,-2,-2,-5
1499876445885694,4,-5,1,1,7,2,2,6
1499876445886628,6,-3,27,32,3,1,-1,-6
1499876445886628,-20,-8,-24,75,-7,-4,-2,-49
1499876445907673,7,-4,-16,-62,-4,-1,2,-35
1499876445907673,25,8,-13,5,-2,-3,-2,51
1499876445909654,-2,12,13,14,1,0,0,11
1499876445909654,-1,-22,-22,0,-2,-2,0,34
1499876445922666,4,6,-4,-78,3,2,0,-7
1499876445922666,-12,-4,32,88,-6,-7,-3,10
1499876445924630,3,-8,-13,-38,-3,-1,0,5
1499876445924630,33,-2,-19,-29,3,2,1,18
1499876445945683,-42,1,43,30,-5,-8,-10,-113
1499876445945683,5,1,-4,-43,5,6,5,10
1499876445946631,8,7,-22,65,6,1,-2,-40
1499876445946631,-20,8,16,-74,-9,-1,1,-23
1499876445958650,24,-11,-28,-53,-10,-6,-3,86
1499876445958650,-26,10,7,43,7,3,0,-29
1499876445967646,-1,-28,-27,6,-9,-11,-5,-11
1499876445967646,24,10,14,19,3,4,4,6
1499876445982668,11,4,8,23,-1,-1,-1,46
1499876445982668,17,1,24,-11,3,5,2,16
1499876445984655,13,-5,-60,-98,-3,0,4,98
1499876445984655,-10,6,12,44,14,3,2,-12
1499876446005651,-39,-13,-21,83,-10,-7,-4,5
1499876446005651,15,-3,-29,-72,-6,-3,-4,11
1499876446006630,4,5,31,0,6,2,2,18
1499876446006630,5,6,-4,-1,3,1,2,2
1499876446018672,13,6,28,2,4,4,3,-5
1499876446018672,7,-3,-16,69,4,2,4,19
1499876446027643,-54,10,44,8,0,0,-7,-73
1499876446027643,-31,-16,-29,-40,-18,-8,-5,-16
1499876446042639,37,2,22,16,0,-2,-2,32
1499876446042639,-6,-9,-26,31,2,0,1,-2
1499876446044640,27,4,0,-43,0,2,3,43
1499876446044640,-6,6,4,-26,8,3,1,28
1499876446065677,-8,-1,16,-58,-7,-2,-2,5
1499876446065677,4,1,6,-1,-3,-4,-2,54
1499876446066640,13,6,-12,81,5,0,-1,-25
1499876446066640,-9,-6,24,-39,-2,-1,-2,12
1499876446078635,61,-5,-24,-50,0,1,3,12
1499876446078635,-62,0,37,59,-5,-4,-4,-26
1499876446087646,-1,2,-60,-58,-8,-2,-1,-5
1499876446087646,8,-7,1,41,-5,-5,-2,4
1499876446102677,-3,5,-9,-38,4,4,3,-36
1499876446102677,8,-3,28,-13,1,-2,-4,-69
1499876446104641,-1,9,10,-31,1,-1,-2,-1
1499876446104641,1,-6,-33,-5,1,2,1,-6
1499876446125637,-24,-2,5,31,-1,2,2,-57
1499876446125637,-14,8,16,-23,-4,0,0,-45
1499876446126636,-1,-3,39,17,-1,-2,-6,22
1499876446126636,12,1,29,61,-2,-4,-1,41
1499876446138702,-28,2,-3,3,2,-2,-2,-3
1499876446138702,-31,-5,19,-6,-2,0,-5,-84
1499876446147651,13,-2,-1,-35,-2,-1,0,-9
1499876446147651,8,5,11,60,10,4,3,73
1499876446162679,-2,12,15,-74,-11,-4,-2,-38
1499876446162679,15,-29,-104,-46,-4,-2,5,52
1499876446164640,9,-2,20,48,-9,-5,-4,16
1499876446164640,-58,-5,27,0,4,1,-5,-97
1499876446185689,5,-2,13,41,6,-2,-3,28
1499876446185689,12,14,12,-84,3,5,5,29
1499876446186645,2,1,8,42,-4,-2,-3,-35
1499876446186645,25,8,-3,16,0,-2,-2,10
1499876446198686,-49,-10,9,-19,1,-1,-6,-50
1499876446198686,19,14,-19,-61,-18,-4,-1,58
1499876446207652,2,-4,-43,68,6,0,2,21
1499876446207652,-13,11,21,-12,2,0,-1,-45
1499876446222687,7,-6,52,84,3,-3,-4,13
1499876446222687,28,-20,-19,-2,-6,-3,-1,31
1499876446224644,-27,13,38,-51,-4,0,-4,-1
1499876446224644,16,-11,-73,-40,-7,0,4,20
1499876446245709,16,5,-41,-39,1,0,5,45
1499876446245709,-21,9,69,40,7,0,-8,-66
1499876446246650,-1,-22,-10,19,-7,-4,-1,-18
1499876446246650,20,-9,-1,5,-1,-2,-4,57
1499876446258689,-46,0,18,-22,-2,0,-3,-16
1499876446258689,-4,3,-19,10,-2,-3,-2,-17
1499876446267657,-19,-8,-51,40,1,-4,-6,-15
1499876446267657,11,-2,-16,-47,-5,-1,2,-11
1499876446282686,12,2,1,37,0,0,1,-26
1499876446282686,14,-2,-2,71,2,-4,-6,53
1499876446284654,-11,1,22,-41,2,1,1,-50
1499876446284654,12,1,22,21,2,0,-1,12
1499876446304720,9,9,-5,27,-2,-3,-4,-48
1499876446304720,-19,-19,-38,-54,2,-1,-3,-66
1499876446312652,4,0,6,25,0,-3,1,14
1499876446312652,-15,10,35,36,2,3,-2,-34
1499876446318710,12,-8,-21,-39,-15,-5,0,79
1499876446318710,-7,-7,-42,7,6,2,3,-26
1499876446327662,-14,14,44,28,3,1,2,27
1499876446327662,9,-7,-15,-21,-2,-2,-1,-14
1499876446342692,9,-2,-10,65,-1,-3,-2,-6
1499876446342692,10,-3,29,-27,-2,1,0,-39
1499876446344651,-1,-4,-4,7,0,1,2,10
1499876446344651,-6,3,-11,-6,2,0,1,5
1499876446365722,-29,-7,8,26,2,-3,-18,-36
1499876446365722,-3,0,-1,6,-3,-5,-4,-38
1499876446366650,20,-1,-8,-14,-5,-1,4,17
1499876446366650,-17,-2,36,23,5,2,0,-20
1499876446378652,0,-8,-21,-78,-10,-3,-1,16
1499876446378652,-9,11,12,27,3,-1,-4,28
1499876446387663,23,2,-14,17,3,4,2,-5
1499876446387663,1,-7,4,-11,-5,-5,-1,20
1499876446402695,2,9,39,50,0,3,5,-4
1499876446402695,26,-7,-77,-7,-3,-1,-2,30
1499876446404694,18,-3,56,-22,-1,-1,-1,51
1499876446404694,-31,-12,-76,-59,-17,-9,-7,-3
1499876446425656,20,6,16,21,8,2,0,11
1499876446425656,5,4,38,-42,-5,-3,-1,13
1499876446426661,2,-1,-41,-12,1,1,0,24
1499876446426661,22,18,42,57,4,0,-3,8
1499876446447705,-16,-2,3,-78,-11,-3,1,17
1499876446447705,5,-3,-12,-10,0,0,3,51
1499876446449656,-30,-1,29,-5,1,-2,-5,-57
1499876446449656,27,-5,-36,11,-1,-4,-1,49
1499876446462697,9,-6,-56,-51,-5,-5,-2,34
1499876446462697,0,9,29,79,1,1,1,-7
1499876446464698,8,0,7,-38,-5,-2,-2,-24
1499876446464698,-12,3,26,11,6,4,1,-9
1499876446485663,6,-3,-26,-22,8,5,5,25
1499876446485663,-4,-7,-11,64,-6,-7,-4,25
1499876446486663,-8,-10,-41,-43,-13,-6,-3,32
1499876446486663,4,4,9,24,-2,-1,1,-47
1499876446507730,-4,11,22,-48,7,1,-1,0
1499876446507730,1,-5,37,-31,-2,-4,-2,-27
1499876446509667,4,7,20,10,8,5,1,-10
1499876446509667,-8,-18,-37,38,-13,-8,-5,-13
1499876446521730,-12,0,-28,65,-1,2,4,-55
1499876446521730,-22,-3,-8,13,6,4,-1,-37
1499876446528730,13,-5,-19,12,-1,-2,-1,8
1499876446528730,2,11,73,42,8,4,1,-1
1499876446545673,-16,-11,-30,-62,-5,1,1,-77
1499876446545673,-5,-8,2,-94,-13,-7,-3,-1
1499876446546661,7,-1,-6,-7,5,3,5,89
1499876446546661,-58,-1,5,-33,-5,-6,-13,-87
1499876446567725,30,6,-13,48,7,3,4,14
1499876446567725,1,-3,48,16,0,0,0,24
1499876446569663,-13,-7,-44,-19,-13,-7,-6,-2
1499876446569663,20,2,9,10,-1,3,5,28
1499876446581731,-10,-15,-16,27,-2,-6,-6,-17
1499876446581731,7,17,11,20,7,5,3,2
1499876446588712,11,-5,38,56,-2,1,-1,-19
1499876446588712,-1,-5,-42,-45,-2,-3,-2,12
1499876446605726,-13,-7,-7,-3,0,-2,-1,6
1499876446605726,9,-7,-27,10,-9,-4,0,7
1499876446606665,7,9,8,-2,5,3,2,-20
1499876446606665,-2,-1,4,13,5,3,-1,17
1499876446627723,1,8,30,-63,1,1,0,-1
1499876446627723,14,-6,-11,20,-4,-5,-3,46
1499876446629672,-30,0,-7,2,0,-1,-4,-37
1499876446629672,-22,-5,18,-28,-5,-5,-3,2
1499876446641668,20,9,27,48,4,2,0,16
1499876446641668,6,15,12,10,13,10,7,-50
1499876446648711,-5,-33,-34,-37,-16,-10,-10,-7
1499876446648711,32,14,1,17,3,3,3,-26
1499876446665711,-12,-18,-30,19,-8,-3,-5,48
1499876446665711,-19,-2,30,9,0,-2,-5,-31
1499876446666687,32,9,4,-2,7,2,4,103
1499876446666687,-22,-1,3,36,3,3,1,-62
1499876446687732,5,-1,12,-45,-8,-6,-10,-2
1499876446687732,4,-6,-74,-108,-10,-4,-3,64
1499876446689710,-4,3,6,15,-1,-1,2,-36
1499876446689710,18,3,8,1,7,4,0,71
1499876446702678,-16,-11,-5,53,-3,-2,-4,-26
1499876446702678,3,5,43,19,-2,1,1,9
1499876446708694,-20,9,22,31,5,0,-3,-29
1499876446708694,10,-9,-70,-22,-10,-7,-4,62
1499876446725714,-6,-1,-23,62,10,5,13,20
1499876446725714,-8,9,61,5,1,0,-6,-33
1499876446726687,4,-11,-47,-36,-4,0,2,-20
1499876446726687,8,0,2,-15,-5,-1,0,35
1499876446747739,-7,6,5,-3,1,-1,-3,-10
1499876446747739,26,8,16,86,9,2,5,82
1499876446749714,-14,2,-11,5,-3,0,-5,-61
1499876446749714,10,-5,10,-70,-9,-4,-1,-29
1499876446761674,-53,-2,22,2,-1,-6,-5,5
1499876446761674,-26,-14,-16,-28,4,2,3,-7
1499876446768723,0,6,6,-37,-6,-3,-4,-30
1499876446768723,0,0,-19,35,11,4,4,-4
1499876446785746,22,4,-9,-11,-4,0,4,-33
1499876446785746,-15,6,11,-7,1,2,3,-34
1499876446786682,-76,-16,56,30,-2,-10,-22,-77
1499876446786682,-10,-3,-29,-9,-1,0,1,4
1499876446807744,18,-4,37,20,-3,-3,-3,29
1499876446807744,-14,-9,-39,6,2,2,1,-20
1499876446809683,37,16,17,15,1,3,9,39
1499876446809683,-1,4,61,6,6,-1,0,-44
1499876446821741,-30,-11,-61,24,-13,-7,-5,19
1499876446821741,22,2,-15,18,-4,-2,-1,-9
1499876446828726,2,2,17,-45,5,3,5,14
1499876446828726,-6,3,17,12,5,2,-2,9
1499876446845693,16,-2,-12,-12,-3,-4,0,11
1499876446845693,-17,-6,15,24,-2,-5,-3,-15
1499876446846689,23,6,-14,-34,-4,-1,3,60
1499876446846689,-9,-8,0,35,-3,-1,2,2
1499876446867728,26,4,26,-36,0,1,1,66
1499876446867728,-3,0,7,-42,-1,-3,-4,-34
1499876446869681,3,-8,-22,8,1,0,3,-37
1499876446869681,8,-2,-5,-11,-2,0,0,34
1499876446881739,-9,5,18,-27,-5,0,-2,-55
1499876446881739,-12,-2,-15,-75,-8,-4,-2,-18
1499876446888746,30,8,6,25,4,2,3,43
1499876446888746,-20,-7,-8,12,0,-3,-6,-13
1499876446905749,4,0,6,41,1,1,2,-39
1499876446905749,3,-3,1,0,-2,0,-2,118
1499876446906691,30,-1,-2,4,-1,-1,0,-67
1499876446906691,-10,3,-21,20,-10,-6,-4,-65
1499876446927729,10,-4,-22,-18,4,1,0,6
1499876446927729,-10,-3,-8,-19,-2,-1,-3,-40
1499876446929684,-12,-5,22,27,8,1,1,26
1499876446929684,5,1,-96,-33,3,0,-3,39
1499876446941725,5,-12,-8,26,-4,-3,-2,0
1499876446941725,-2,-8,86,45,-6,-4,-3,1
1499876446950708,10,10,115,46,4,1,2,11
1499876446950708,-7,-2,127,-54,-9,1,3,-41
1499876446965755,-16,-12,82,-34,-3,-3,-6,15
1499876446965755,26,16,84,-17,5,3,3,71
1499876446966685,-32,-19,67,-26,-8,-3,-5,-28
1499876446966685,1,-6,33,-39,-2,-1,2,-6
1499876446987731,19,9,4,100,2,0,5,43
1499876446987731,-4,-9,-13,7,-5,-5,-5,35
1499876446989693,-11,4,-27,-15,-4,-1,-4,-12
1499876446989693,6,-1,-6,-1,0,0,-1,-14
1499876447001688,4,6,12,34,12,7,5,-9
1499876447001688,11,-3,-58,39,-1,-1,1,-29
1499876447010689,-25,-7,-89,-63,-8,-3,0,25
1499876447010689,25,13,-19,4,3,0,1,69
1499876447025729,26,4,-5,-11,1,0,4,4
1499876447025729,-21,5,6,27,8,4,-2,-90
1499876447026711,6,-20,-47,-1,-4,-4,-1,12
1499876447026711,-1,0,32,9,2,0,-1,17
1499876447047735,11,4,-13,-39,-3,-2,0,17
1499876447047735,59,7,-33,-19,-6,-2,5,36
1499876447049691,-40,-8,-1,-30,1,0,-5,-54
1499876447049691,2,0,-5,-15,-3,1,-1,-5
1499876447061733,17,-3,15,29,-5,-4,-2,19
1499876447061733,0,10,-22,16,-3,0,0,5
1499876447070691,7,0,21,11,9,2,-2,-4
1499876447070691,6,-9,-35,-12,-14,-7,-4,62
1499876447085759,3,6,6,-36,4,3,2,61
1499876447085759,16,5,-26,-15,2,1,9,40
1499876447086692,-2,-2,-18,47,-2,1,1,89
1499876447086692,-8,-3,17,-31,0,-3,-5,-54
1499876447107744,-21,6,36,62,10,2,-2,-24
1499876447107744,-13,-16,-17,-80,-18,-8,-6,-6
1499876447109716,13,6,-5,24,3,0,2,1
1499876447109716,42,-13,-31,-45,-6,-3,1,13
1499876447121757,-38,2,20,-14,-4,-4,-6,-38
1499876447121757,-14,-3,25,21,9,2,-3,-49
1499876447130695,31,11,-3,22,4,2,5,8
1499876447130695,-16,-6,6,31,-7,-3,-2,-19
1499876447145711,21,4,-9,-38,1,1,0,9
1499876447145711,-16,-9,-14,83,-5,-6,-6,-6
1499876447146695,40,5,-15,-9,0,2,11,59
1499876447146695,-26,4,-2,10,0,-2,-2,-54
1499876447167761,-7,-14,-42,-12,-6,-3,-2,-82
1499876447167761,-26,-7,36,-17,1,-1,-3,-23
1499876447173767,-14,7,11,35,-2,-4,-5,-22
1499876447173767,-4,5,-21,19,5,1,5,-60
1499876447181746,-10,-8,-7,-8,0,-4,-4,6
1499876447181746,1,5,32,21,6,5,0,4
1499876447190722,-11,-10,-16,-55,-9,-6,-8,-18
1499876447190722,-3,7,-14,-23,4,2,4,-9
1499876447205735,-9,0,2,-34,-7,-2,-9,12
1499876447205735,21,13,27,-38,9,3,2,71
1499876447206722,15,-13,52,10,-13,-6,-12,-48
1499876447206722,-39,-3,6,35,-5,-5,-7,-96
1499876447227701,-4,-1,-18,-15,-1,2,2,3
1499876447227701,1,-2,23,-20,1,0,0,7
1499876447229708,-10,3,-15,8,5,3,3,-14
1499876447229708,4,-1,9,10,-4,-2,-2,54
1499876447241702,8,5,15,40,10,1,1,-23
1499876447241702,-17,-9,-46,-2,-16,-8,-6,-40
1499876447250761,-2,2,12,2,-1,0,0,4
1499876447250761,3,-6,-13,-9,1,2,0,17
1499876447265739,-4,-1,-26,18,4,0,-3,2
1499876447265739,-2,-5,-20,1,4,0,-2,24
1499876447266725,11,-4,-36,-42,-6,-1,-3,55
1499876447266725,-1,-14,-49,12,-7,-4,-3,0
1499876447287770,-3,13,55,11,0,-3,-1,-4
1499876447287770,1,-10,-19,-15,-4,1,2,31
1499876447289745,2,2,24,29,13,5,2,1
1499876447289745,6,5,10,6,-12,-4,-2,21
1499876447301779,-4,-14,-21,-28,-9,-7,-3,-11
1499876447301779,10,18,49,28,3,3,6,-16
1499876447310724,-37,-12,-20,-33,0,1,2,-26
1499876447310724,25,-2,42,39,9,0,-9,96
1499876447325711,-31,-8,-27,-2,-9,-5,-1,63
1499876447325711,-9,-6,-20,-28,-7,-3,-2,-23
1499876447326718,-3,12,13,19,4,3,2,-24
1499876447326718,19,8,22,-7,0,0,2,42
1499876447347775,4,-10,-1,-11,-2,0,1,-20
1499876447347775,-16,-3,-9,7,4,-1,1,-30
1499876447349708,1,12,11,30,4,1,-3,-4
1499876447349708,-21,-10,-50,-36,-5,-4,-2,-17
1499876447370727,35,-3,6,-14,-5,-1,-2,30
1499876447370727,-8,5,-5,10,5,10,11,-86
1499876447371712,-34,-13,20,-23,-12,-10,-12,-39
1499876447371712,-27,6,23,-23,0,-5,-9,-48
1499876447385730,9,0,4,9,5,4,2,-1
1499876447385730,1,-10,-8,-5,-11,-3,-3,-8
1499876447386721,13,9,16,-5,6,0,3,20
1499876447386721,-5,-21,-8,18,-5,-2,0,-5
1499876447407778,-8,11,27,10,0,1,0,-25
1499876447407778,-6,-13,-46,-5,1,-3,-9,4
1499876447409750,10,-6,-24,-30,-7,-2,-2,2
1499876447409750,-2,15,22,-16,8,3,0,-6
1499876447430728,12,-2,-44,-2,1,3,5,-19
1499876447430728,-39,-11,52,5,-11,-10,-13,29
1499876447431714,38,5,3,-11,-4,-2,-1,20
1499876447431714,-16,1,29,-2,2,-4,-1,-71
1499876447445714,-1,-6,-38,-16,-4,-5,-7,54
1499876447445714,13,6,27,-10,3,1,3,3
1499876447446713,-9,-3,-60,6,-9,-4,-2,0
1499876447446713,2,-11,1,-26,0,1,0,32
1499876447467775,-8,9,17,26,4,6,4,-44
1499876447467775,41,1,-8,-24,-4,-2,2,58
1499876447469715,-48,-7,14,4,-2,-4,-4,-8
1499876447469715,18,15,-2,39,3,5,9,17
1499876447490728,-3,-8,-17,-5,-2,-2,-3,2
1499876447490728,-3,-2,-6,-5,-1,0,1,0
1499876447491717,11,-2,10,2,-4,-1,-1,-7
1499876447491717,-1,-3,2,-10,0,1,0,-1
1499876447504782,-16,-5,-1,-13,-1,-2,-3,-15
1499876447504782,8,1,-11,-73,-7,-3,-5,-8
1499876447511783,-18,0,44,18,-2,-2,-3,-30
1499876447511783,-1,-15,-61,36,3,4,4,-3
1499876447527787,17,1,-11,-94,-13,-6,-1,30
1499876447527787,-30,0,4,42,5,-3,-8,-82
1499876447529757,20,1,-2,-13,1,1,2,37
1499876447529757,4,5,-31,15,1,-1,1,55
1499876447549769,-3,-1,18,26,2,1,1,-16
1499876447549769,-4,-9,-14,1,-8,-6,-2,8
1499876447550732,-4,13,2,38,4,-2,1,-16
1499876447550732,3,-3,0,-1,0,0,-2,-13
1499876447563783,-1,-3,-25,-53,-5,-3,-3,-7
1499876447563783,-22,-5,28,23,-1,-3,-1,-6
1499876447571778,37,5,-26,-63,0,1,-1,0
1499876447571778,-2,0,26,-24,-9,-6,-8,65
1499876447586766,-8,4,16,32,5,2,6,-5
1499876447586766,-18,-12,21,25,-2,-3,-8,-46
1499876447587721,10,-6,-31,-28,3,0,3,40
1499876447587721,13,1,-12,-3,2,0,2,42
1499876447609809,-9,0,37,-12,1,0,-1,-47
1499876447609809,-15,6,-18,-30,-3,2,0,-9
1499876447610727,2,-4,-8,44,0,1,1,-24
1499876447610727,9,-3,10,16,1,0,2,-38
1499876447623773,-1,4,15,33,6,2,2,38
1499876447623773,2,1,-5,-7,3,-1,1,8
1499876447631724,-10,-3,-4,2,-1,-1,1,-20
1499876447631724,-2,12,54,5,2,-1,-4,15
1499876447646774,-5,-9,-10,27,-2,-3,-5,12
1499876447646774,13,-5,-25,80,-4,-2,-3,40
1499876447654768,-34,0,-4,-68,-7,0,0,-42
1499876447654768,22,-8,5,18,-3,-5,-4,-71
1499876447669791,7,4,30,7,1,-2,-1,-8
1499876447669791,16,15,14,-11,6,4,4,-1
1499876447670732,-7,-11,16,18,3,1,1,18
1499876447670732,-9,6,-28,27,-6,-6,-1,2
1499876447683795,-4,-9,-29,9,-4,2,1,-47
1499876447683795,1,5,-3,10,3,0,1,-4
1499876447691728,-1,8,35,-7,2,1,-1,-22
1499876447691728,-7,-1,-6,2,4,3,4,22
1499876447706771,17,-2,-16,-21,-4,-3,-5,60
1499876447706771,-14,4,-5,-20,-1,1,-2,-69
1499876447707729,30,2,51,-1,-4,-3,-4,26
1499876447707729,-56,-16,-38,-7,-4,-4,-8,-79
1499876447729774,-15,6,6,-21,-4,-2,-1,4
1499876447729774,2,-2,13,-7,6,1,2,9
1499876447730772,-7,-11,-33,-11,-10,-7,-4,7
1499876447730772,-9,0,6,-1,-1,0,0,3
1499876447743781,7,-1,10,-9,0,1,-1,-27
1499876447743781,-12,2,17,-23,1,2,0,49
1499876447751792,34,3,-23,23,-1,-1,-2,-1
1499876447751792,-7,-4,-21,-12,-3,-2,1,9
1499876447766737,-3,-7,0,-43,0,-3,-3,-2
1499876447766737,27,10,28,41,3,0,6,16
1499876447767738,-26,-23,-74,27,-17,-9,-5,10
1499876447767738,-13,2,14,-15,1,0,-5,-41
1499876447789792,7,-2,5,31,-3,0,0,11
1499876447789792,2,-13,-21,-37,-1,0,0,6
1499876447790774,-10,14,21,59,11,2,-3,-71
1499876447790774,-8,8,5,-75,-8,-3,-3,-10
1499876447803794,-5,-6,-2,37,-1,0,1,-5
1499876447803794,4,7,19,-8,1,0,1,-13
1499876447811782,-4,-7,-20,-23,2,1,-1,18
1499876447811782,14,1,23,33,-2,2,2,24
1499876447826743,-4,-2,-51,-15,-6,-3,-1,-32
1499876447826743,-1,-5,-7,2,-2,-2,0,-5
1499876447827740,3,-8,-17,-7,3,-2,0,18
1499876447827740,13,6,30,14,6,3,-1,34
1499876447849778,-13,0,-25,-9,-3,1,1,9
1499876447849778,13,-4,-12,-7,-6,-2,1,8
1499876447850777,-21,-3,29,44,4,-2,-2,-43
1499876447850777,42,-1,-8,-50,-1,-1,-3,33
1499876447872779,-20,-1,14,24,-3,-4,-1,47
1499876447872779,-2,3,-17,-9,2,0,-4,32
1499876447873761,-6,2,32,4,-1,0,2,8
1499876447873761,-4,-9,-27,-4,-2,-2,2,-10
1499876447886785,13,0,-4,18,4,0,-2,-7
1499876447886785,5,2,4,26,-3,-4,-4,7
1499876447887761,4,13,7,27,5,3,1,19
1499876447887761,-9,-3,3,7,1,-1,-3,-19
1499876447909815,10,7,19,-5,2,1,1,3
1499876447909815,-8,-16,-5,-24,-11,-8,-3,-4
1499876447910740,7,5,11,-25,3,4,2,6
1499876447910740,-3,-2,-36,-29,-1,0,2,6
1499876447923768,-3,-1,42,26,5,-2,-3,27
1499876447923768,-8,-16,-39,34,-5,-2,-4,9
1499876447931790,14,3,-14,-48,-3,1,1,91
1499876447931790,-22,-12,-18,-5,-7,-2,1,-46
1499876447946782,27,0,15,-45,-4,-3,-3,-4
1499876447946782,1,7,4,2,4,2,1,-9
1499876447947764,-3,-5,5,-22,-6,-3,-4,5
1499876447947764,-6,5,9,-1,2,-3,2,7
