timestamp,emg1,emg2,emg3,emg4,emg5,emg6,emg7,emg8
1501883081156088,1,-6,-8,45,3,3,-7,-20
1501883081156088,44,12,30,96,21,6,11,40
1501883081159116,-22,-13,1,-89,-23,-6,-8,24
1501883081159116,0,10,22,4,5,2,-3,-3
1501883081160049,14,-2,-48,-94,-3,0,10,22
1501883081160049,-28,-3,18,41,-6,1,-3,19
1501883081161080,-21,6,18,31,18,5,4,-26
1501883081161080,18,-6,-11,3,-2,0,9,22
1501883081166066,22,15,27,61,1,-1,-1,30
1501883081166066,-16,-30,-75,-128,-26,-11,-4,-6
1501883081173068,45,-5,-17,22,0,1,-3,16
1501883081173068,-22,12,14,-4,1,2,7,-43
1501883081196091,-34,-6,-25,-27,5,1,-5,-13
1501883081196091,22,-1,19,91,2,-1,5,23
1501883081197089,-16,4,14,39,7,1,-8,-35
1501883081197089,-14,-5,-27,-80,-30,-8,-3,-45
1501883081203073,-4,-6,-29,-72,-8,-5,-9,-39
1501883081203073,-13,9,20,-7,1,3,-7,-16
1501883081226110,-7,-12,12,87,11,-1,1,-17
1501883081226110,2,12,43,-45,-9,-3,-2,31
1501883081228083,-34,-4,-14,-8,-13,-6,3,-23
1501883081228083,-5,2,-14,-30,-9,-5,-15,-55
1501883081280072,-36,-11,20,16,-5,-6,-2,-56
1501883081280072,-3,-6,-12,-21,3,2,-7,-8
1501883081281062,33,13,15,8,-13,-4,8,25
1501883081281062,-25,-8,14,69,22,8,-6,-78
1501883081282059,88,6,2,-77,-14,0,6,34
1501883081282059,-38,-2,1,81,6,-1,-4,17
1501883081286098,-26,0,10,-10,8,4,12,-16
1501883081286098,41,-6,-27,-6,-19,-7,-14,21
1501883081287059,4,3,27,-9,17,5,4,56
1501883081287059,6,-1,-30,-53,-5,-6,-4,-36
1501883081293077,6,7,-11,-43,2,2,-6,26
1501883081293077,21,11,18,65,11,3,12,10
1501883081299098,-42,-23,-39,-45,-18,-12,-13,-13
1501883081299098,16,2,-6,-41,5,3,3,56
1501883081315099,-33,0,34,39,4,-6,-7,-68
1501883081315099,-18,1,-2,-24,-14,-2,5,-36
1501883081322071,47,10,-14,80,5,2,-1,17
1501883081322071,54,2,14,52,1,0,4,54
1501883081353127,-10,-6,2,-86,-17,-3,-7,-29
1501883081353127,-45,-6,5,51,1,-8,0,7
1501883081355096,-77,1,-5,-34,-2,1,-1,-68
1501883081355096,-11,-4,-31,-59,0,3,5,-28
1501883081360101,6,-4,31,95,5,-2,-8,-13
1501883081360101,8,0,10,-81,2,4,11,60
1501883081367125,85,9,-25,-1,-5,-6,-15,-69
1501883081367125,-41,-8,24,15,4,7,6,3
1501883081383107,-4,-22,-75,-59,-5,-8,-5,-62
1501883081383107,15,8,4,-31,-5,-4,-10,-19
1501883081385064,-14,0,-16,29,4,2,13,48
1501883081385064,24,-5,-41,-18,1,2,-7,-10
1501883081405105,14,4,61,44,3,1,7,25
1501883081405105,-10,-6,-5,68,6,-1,-4,10
1501883081413080,-3,1,8,-120,-15,-1,8,46
1501883081413080,-43,-10,-36,68,0,-6,-15,-60
1501883081420111,-21,-2,-22,38,-7,-2,-3,0
1501883081420111,22,-12,-44,-13,15,9,4,-11
1501883081427108,-32,8,64,41,-1,-3,-5,14
1501883081427108,-20,-2,-10,15,-4,-4,4,-59
1501883081443139,14,4,18,20,-1,2,0,18
1501883081443139,-7,0,-5,-28,4,3,-5,8
1501883081445096,-1,-11,-26,-1,0,4,-2,-27
1501883081445096,28,1,-7,-84,-11,-5,8,85
1501883081466139,-16,-4,-1,4,0,-6,-11,-38
1501883081466139,18,7,18,49,2,-3,-3,-45
1501883081467069,-28,-7,-32,-82,-14,2,5,19
1501883081467069,-22,9,60,95,6,-5,-1,23
1501883081480133,32,12,14,-7,14,11,6,12
1501883081480133,9,-13,-27,-14,-20,-14,-8,-21
1501883081487131,-26,5,6,-39,7,0,-1,-17
1501883081487131,2,-3,2,1,-11,-4,-8,-36
1501883081503130,29,-3,-20,36,0,-3,1,64
1501883081503130,-26,15,47,-18,15,6,0,-41
1501883081505071,2,-11,-2,127,-12,-5,-7,32
1501883081505071,11,7,1,-115,-4,-3,-3,-4
1501883081526121,-19,-17,-9,55,-1,0,7,10
1501883081526121,12,-11,-21,-26,-19,-5,-6,13
1501883081527073,15,13,29,43,14,3,8,18
1501883081527073,9,5,21,-13,-5,2,-11,55
1501883081540134,43,2,-21,-26,-4,0,14,38
1501883081540134,-9,-4,13,-21,1,-1,1,10
1501883081547116,2,5,-18,38,11,0,-8,-26
1501883081547116,-12,-6,18,54,-5,-2,-8,-16
1501883081563144,-32,-8,-30,-128,-13,-1,4,-4
1501883081563144,18,2,15,65,-2,-2,-3,44
1501883081565088,10,-5,-24,21,7,1,-2,-23
1501883081565088,-2,-2,-21,-61,-14,-4,6,-42
1501883081586111,-11,10,42,56,7,4,-6,-49
1501883081586111,-12,-12,-23,30,5,-3,-2,10
1501883081587084,1,0,-32,-55,-6,4,0,8
1501883081587084,18,6,80,90,6,2,7,0
1501883081600138,-43,5,-9,29,8,2,-1,-51
1501883081600138,2,8,3,-82,-14,1,-1,22
1501883081607094,-19,-17,-13,40,4,-14,-8,-32
1501883081607094,18,-1,-1,24,5,6,-3,25
1501883081623145,18,1,36,-5,-7,-2,-10,13
1501883081623145,-4,-7,-51,17,2,-2,9,24
1501883081625091,22,0,16,-62,3,3,2,8
1501883081625091,-11,6,11,6,-6,-5,-3,-58
1501883081645121,10,-7,-42,14,6,-6,-7,34
1501883081645121,-24,8,37,-13,-10,2,7,-17
1501883081653093,-12,-3,-5,44,12,4,-8,11
1501883081653093,-20,-1,-10,-45,1,-4,17,-18
1501883081659145,39,6,14,-38,1,1,-7,14
1501883081659145,-24,-11,-32,30,-13,-9,-5,-12
1501883081668090,-10,3,42,32,2,-1,0,28
1501883081668090,16,-4,-16,41,13,4,-4,31
1501883081691125,-42,2,10,-50,3,3,1,-49
1501883081691125,29,4,-1,-1,-3,0,2,3
1501883081692083,-37,-1,20,76,-3,-4,-5,3
1501883081692083,37,0,-2,-30,-5,-5,-3,1
1501883081706155,-39,-7,-42,-32,-5,-2,-2,30
1501883081706155,27,-2,22,6,-3,-3,-3,28
1501883081707084,25,17,38,24,6,2,3,-20
1501883081707084,-20,-18,-55,-100,-13,-2,-2,-38
1501883081719131,-12,5,24,113,12,-1,0,7
1501883081719131,-32,-5,-11,-17,-5,2,0,-34
1501883081728086,41,-6,-7,-11,-4,-4,-3,9
1501883081728086,-10,5,6,55,9,2,8,0
1501883081742085,-25,-10,-22,-67,-19,-6,-4,-11
1501883081742085,13,5,4,-20,0,0,-2,56
1501883081751095,-8,0,-10,-53,0,3,10,-4
1501883081751095,15,-2,-2,43,0,-3,-3,23
1501883081766135,1,-6,-1,-12,-6,-2,-5,27
1501883081766135,13,10,8,-57,8,-1,4,23
1501883081767088,-11,-8,2,15,-8,0,-2,-16
1501883081767088,0,-5,-8,-40,1,-2,-3,24
1501883081779089,-13,-4,-22,-32,-8,-7,-8,-45
1501883081779089,10,-1,32,-40,-13,4,5,-48
1501883081788089,23,7,22,78,11,4,3,20
1501883081788089,-16,-9,-19,-77,-17,-8,-11,4
1501883081803146,4,-1,1,71,10,0,7,23
1501883081803146,-16,1,-5,-24,-9,-3,-12,-10
1501883081805089,1,-4,-8,-28,-9,-6,-2,-11
1501883081805089,10,-2,-12,49,1,1,-1,14
1501883081834114,25,6,48,52,-2,0,-1,-3
1501883081834114,-43,-10,-18,10,4,-8,-5,-13
1501883081835093,-5,-3,-19,-36,-7,0,-1,-21
1501883081835093,-33,2,2,-20,6,0,-4,-36
1501883081839133,2,-5,-2,-16,-7,0,-1,22
1501883081839133,-7,6,35,23,14,5,5,10
1501883081848104,-9,-6,-54,-91,3,-3,-7,-19
1501883081848104,25,-2,20,48,-6,-3,-4,46
1501883081863120,-18,0,-26,1,13,3,10,-14
1501883081863120,18,-1,7,-1,-6,0,-2,13
1501883081865124,13,6,32,15,2,2,0,11
1501883081865124,-11,1,-17,-4,-2,-1,-5,-74
1501883081886139,6,0,-6,21,5,2,7,29
1501883081886139,10,3,0,-11,13,1,-5,34
1501883081887099,-27,0,20,-7,-14,-5,-2,-27
1501883081887099,-27,3,16,71,16,7,6,-10
1501883081900130,24,-11,-53,-44,-16,-8,-7,25
1501883081900130,4,10,24,21,11,0,0,14
1501883081908095,14,1,-1,59,-4,4,-2,-57
1501883081908095,-14,-6,-3,-41,-4,-7,-2,24
1501883081931124,16,5,-7,-107,-23,0,2,30
1501883081931124,-16,-4,-8,18,1,-1,-6,-8
1501883081932104,1,5,8,57,13,1,11,39
1501883081932104,0,1,-5,-45,-16,-2,-1,-2
1501883081946098,10,-4,15,51,9,3,-3,-16
1501883081946098,-23,-7,-34,-13,-1,-3,-3,-37
1501883081947097,0,-6,-13,-3,-7,-2,9,24
1501883081947097,4,10,24,33,11,3,3,10
1501883081959116,-11,1,7,13,13,1,-1,-5
1501883081959116,34,1,4,-48,-31,0,-10,33
1501883081968117,-94,-20,-30,-31,-8,-10,5,-69
1501883081968117,6,5,13,54,11,6,7,14
1501883081991112,25,4,-16,-91,-20,-5,-4,29
1501883081991112,-15,-7,0,37,3,-3,-1,-44
1501883081993104,36,-1,-52,-19,0,0,-7,54
1501883081993104,-5,3,40,46,3,-5,-6,-19
1501883082006163,-7,-1,-10,-15,-11,-1,-1,-22
1501883082006163,-33,1,-5,87,12,4,6,-7
1501883082007102,6,8,19,-85,-4,3,-5,7
1501883082007102,14,-5,11,37,13,2,2,16
1501883082019169,-27,1,-18,99,8,0,-7,-75
1501883082019169,-12,-5,-13,-68,-35,-12,-10,35
1501883082028120,82,-12,10,53,-1,-7,1,79
1501883082028120,-15,18,16,-60,0,4,2,-15
1501883082043146,7,-13,-33,-46,4,-4,-10,35
1501883082043146,35,3,10,-8,-1,1,4,10
1501883082045103,-26,-3,13,-7,3,-3,-10,-5
1501883082045103,19,-10,-18,-22,-10,0,-4,2
1501883082066129,-20,-2,6,15,-4,-5,7,43
1501883082066129,-2,1,-16,7,3,0,2,0
1501883082068120,-5,5,15,7,9,0,-4,-6
1501883082068120,-9,-3,-2,-61,-8,-3,-3,-17
1501883082088176,1,3,14,14,9,7,4,-1
1501883082088176,-9,-12,-6,56,4,-4,-3,-21
1501883082090107,-41,-2,-17,-71,-23,-6,-5,-61
1501883082090107,-19,-10,-18,1,-15,-5,-2,3
1501883082103139,13,8,21,-7,8,2,-4,31
1501883082103139,11,9,57,76,13,4,0,-14
1501883082105108,25,-17,-71,3,-14,-6,8,34
1501883082105108,3,9,0,-26,2,-1,-10,34
1501883082126155,12,1,19,7,0,4,14,-47
1501883082126155,1,-4,-25,-12,9,0,-1,17
1501883082127114,0,8,21,-10,-9,-2,-4,34
1501883082127114,2,-8,-19,-50,4,2,3,21
1501883082148171,-13,-4,-13,73,-2,-5,-9,-1
1501883082148171,18,-3,6,51,6,1,3,8
1501883082154147,-45,9,40,48,13,6,-8,-37
1501883082154147,9,-8,-39,-96,-12,-9,2,17
1501883082163177,21,-1,16,34,-7,-3,-2,16
1501883082163177,-24,-5,-24,-17,-3,-1,1,-72
1501883082165137,-31,-1,10,-10,2,-1,-10,0
1501883082165137,8,4,6,72,6,4,7,-26
1501883082186172,12,-1,-5,-52,-3,1,-1,24
1501883082186172,-29,-8,-16,-8,-13,-7,5,-26
1501883082187134,42,5,6,-27,7,4,4,35
1501883082187134,3,8,12,65,13,4,-1,-25
1501883082208179,-8,-12,-34,-43,-20,-8,2,-19
1501883082208179,-15,2,7,-15,7,2,-6,-39
1501883082210113,-2,-1,-13,-31,-2,0,-1,-33
1501883082210113,1,6,30,58,0,-1,-4,11
1501883082223132,-18,-11,-36,-30,-3,-1,-1,0
1501883082223132,33,7,11,-38,0,0,-2,37
1501883082229156,-4,-5,-4,51,3,1,4,22
1501883082229156,-23,-5,-6,5,-10,-5,0,-70
1501883082244158,-30,10,37,36,14,4,-2,43
1501883082244158,21,-9,-24,-70,-25,-8,0,32
1501883082253134,20,-6,5,45,4,0,-4,15
1501883082253134,15,1,-10,-42,-11,-2,-1,34
1501883082268163,-2,0,26,85,5,-2,-2,-16
1501883082268163,7,5,-23,-11,6,5,6,29
1501883082270117,-4,4,8,-1,-8,-3,-5,-25
1501883082270117,23,-10,-43,34,2,0,-1,31
1501883082291126,7,4,22,-52,-4,-4,-3,-1
1501883082291126,-12,-5,-11,-3,8,6,-5,-31
1501883082292128,12,7,8,-60,-5,-1,1,-8
1501883082292128,-20,-11,-28,16,-15,-7,-5,-16
1501883082304160,-3,2,14,19,-1,-1,2,-22
1501883082304160,33,4,6,28,10,1,2,124
1501883082313138,-13,-10,-5,5,-2,-1,7,-47
1501883082313138,7,3,-14,-13,5,2,-7,-3
1501883082336159,-7,4,19,80,1,0,-2,50
1501883082336159,-15,2,-13,-18,-4,-1,-2,0
1501883082338131,-4,-6,5,39,3,-1,0,2
1501883082338131,15,3,11,77,14,4,0,5
1501883082350187,0,-3,-22,-119,-12,-5,-1,-7
1501883082350187,-47,-7,0,53,-9,-5,-6,-33
1501883082366183,3,-2,11,9,-3,-5,-5,9
1501883082366183,8,4,2,-36,2,5,4,7
1501883082367122,0,-1,-2,89,14,4,-2,-4
1501883082367122,-15,9,38,-51,7,3,2,-55
1501883082373141,-29,-14,-40,-21,-17,-5,-5,-17
1501883082373141,24,-1,20,0,0,-8,-9,-4
1501883082396142,20,9,4,-22,3,7,6,11
1501883082396142,11,-7,-12,29,4,-7,-2,-11
1501883082397126,8,11,30,-4,-3,-1,-1,35
1501883082397126,-23,-4,-5,-23,-7,-2,-1,-3
1501883082411188,51,0,11,26,4,0,-5,23
1501883082411188,20,-2,-1,-78,-9,1,3,-7
1501883082413124,-16,1,-27,-24,1,4,1,-23
1501883082413124,-3,4,31,54,7,-1,1,22
1501883082424191,13,-8,-21,-54,-15,-11,-7,17
1501883082424191,-31,0,9,24,9,1,-3,-71
1501883082433126,8,-6,-32,-15,-9,-3,-3,-2
1501883082433126,4,1,-5,13,7,3,3,7
1501883082463136,-35,-4,-18,8,3,4,-4,-16
1501883082463136,9,0,-13,-94,-27,-4,3,-31
1501883082465160,13,10,24,13,12,3,4,2
1501883082465160,14,-1,22,44,-13,-6,0,0
1501883082471140,-18,-2,-12,-28,5,-4,-1,-27
1501883082471140,-42,-3,-9,47,8,-2,-14,-47
1501883082477134,30,2,0,-3,1,2,5,30
1501883082477134,-33,2,6,15,2,1,3,-78
1501883082493162,-9,0,-4,-75,-9,0,-3,-26
1501883082493162,34,1,16,-13,-3,-2,-3,93
1501883082495162,1,-4,-9,7,-6,-2,4,6
1501883082495162,3,-8,-3,-30,0,2,0,1
1501883082509132,-6,5,13,40,4,-2,-2,-26
1501883082509132,-3,-4,-15,31,-9,-2,2,5
1501883082510129,4,1,32,85,11,-2,-8,1
1501883082510129,59,-6,-57,-104,-12,-2,5,114
1501883082531160,11,0,9,-27,-5,-2,-6,-93
1501883082531160,-11,-5,-8,48,12,5,5,47
1501883082532151,24,5,18,6,1,-3,-2,-34
1501883082532151,-23,6,27,-16,-8,-2,-3,-20
1501883082553173,8,-6,-23,3,5,-3,-2,28
1501883082553173,8,-13,-37,-46,-7,-5,0,29
1501883082555134,-22,4,-20,-55,-10,1,-3,-21
1501883082555134,-23,-10,-19,2,5,-4,-5,-2
1501883082569144,16,5,28,0,-6,-5,-2,-22
1501883082569144,37,3,-3,21,-5,1,1,-2
1501883082576172,-13,-2,13,47,11,-1,0,36
1501883082576172,-17,1,6,33,12,5,6,69
1501883082590198,12,-2,5,-12,-5,4,4,7
1501883082590198,25,4,12,-42,-9,-6,-3,14
1501883082591135,-9,-3,-8,-7,4,0,-1,-27
1501883082591135,-28,-7,-33,-3,-21,-6,-3,-25
1501883082613173,-4,-15,-16,-10,14,0,-1,18
1501883082613173,-4,2,-21,64,6,5,10,22
1501883082613173,-25,0,6,36,-4,-2,-3,-42
1501883082613173,-1,2,10,-17,3,0,-3,-24
1501883082628207,8,-1,-10,61,5,-1,-1,19
1501883082628207,9,-1,35,-66,-33,-8,-5,13
1501883082635186,-17,-1,-2,-3,12,4,-2,58
1501883082635186,-2,3,6,-39,-9,-1,-5,-67
1501883082650201,3,1,11,41,1,2,11,-8
1501883082650201,-5,6,30,111,19,5,-3,0
1501883082651149,4,-12,-36,-77,-13,-8,-1,55
1501883082651149,-39,-4,3,2,-7,-4,-9,-97
1501883082674140,9,0,-23,-37,-12,0,4,3
1501883082674140,-50,2,5,-3,5,1,-2,-77
1501883082675141,-26,-11,-5,26,4,-3,-11,-12
1501883082675141,32,7,1,23,1,-1,5,50
1501883082696198,-17,-6,-6,-43,-14,-2,4,2
1501883082696198,-2,-4,-25,-29,0,-3,-7,-5
1501883082696198,15,9,40,89,9,-1,0,-4
1501883082696198,-17,-6,-21,-70,-5,0,8,69
1501883082710177,-31,-4,22,52,-4,-6,-15,-29
1501883082710177,20,3,-6,-58,6,1,4,11
1501883082711144,10,4,24,-6,2,8,6,4
1501883082711144,6,2,-6,39,2,-6,-6,43
1501883082733212,4,-8,19,46,5,-1,0,-9
1501883082733212,-46,-9,-14,-45,-15,-7,-9,-28
1501883082734146,27,4,-32,-36,-5,3,6,-5
1501883082734146,-37,2,75,15,6,-1,1,-16
1501883082756192,7,-9,-47,-55,-15,-5,-7,53
1501883082756192,12,8,28,79,16,5,-5,-60
1501883082757147,-22,-9,-13,-63,-12,-6,11,4
1501883082757147,12,-6,-41,-8,-11,-7,-8,4
1501883082770189,28,15,26,1,7,0,1,31
1501883082770189,-7,-4,5,32,0,-4,-7,-19
1501883082771145,11,3,16,-50,-4,1,0,-31
1501883082771145,30,-3,0,-19,5,0,3,43
1501883082801169,-49,2,-5,42,-2,4,11,-53
1501883082801169,-6,-11,-28,-17,-10,-7,-8,11
1501883082801169,-4,0,-11,-67,-10,-3,-5,-36
1501883082801169,6,3,-7,67,4,2,-5,-10
1501883082807188,0,-9,-13,42,10,0,-6,2
1501883082807188,14,4,6,-101,-5,1,7,17
1501883082808186,14,-2,-2,67,1,-9,-10,97
1501883082808186,15,-9,-21,-73,-13,-1,5,-7
1501883082830220,-2,12,-19,-41,0,5,-10,-53
1501883082830220,-2,-11,-24,81,10,2,5,6
1501883082831149,-11,-1,25,0,6,-4,-10,-7
1501883082831149,-12,0,-6,-33,-6,-1,4,-34
1501883082852209,-14,6,-4,28,5,2,2,-59
1501883082852209,39,0,31,31,5,1,2,55
1501883082853185,8,-1,-32,-24,-10,-1,4,-19
1501883082853185,-5,2,11,-2,8,2,-4,-18
1501883082867196,0,2,27,65,13,-4,-2,21
1501883082867196,-9,4,-39,-82,-18,3,3,-2
1501883082868153,-21,-6,4,111,-1,-3,-2,-34
1501883082868153,-9,-2,1,-26,8,-3,-9,-22
1501883082890224,29,0,45,-5,-17,-6,-1,35
1501883082890224,-12,-3,-25,9,9,0,2,-71
1501883082891153,9,1,-21,-83,-1,0,-4,21
1501883082891153,8,5,38,69,6,2,-5,20
1501883082913192,-13,-5,-8,-80,-3,0,0,-11
1501883082913192,4,-4,-5,-28,-10,-3,-2,17
1501883082914163,-32,4,10,12,6,3,0,-18
1501883082914163,-5,-9,-34,-4,-4,-5,-2,0
1501883082927197,37,5,12,-15,-8,-1,-1,41
1501883082927197,-24,-8,-6,27,4,-7,-3,38
1501883082928195,-2,2,3,36,5,2,2,-9
1501883082928195,0,4,-10,-89,-4,4,6,-10
1501883082950214,28,-1,0,91,2,1,3,5
1501883082950214,-10,-6,-14,18,-5,-7,-5,20
1501883082951156,-6,-6,6,-9,2,2,-2,-2
1501883082951156,-8,3,15,85,5,-4,-6,0
1501883082981164,0,-5,-10,-128,-13,-5,1,13
1501883082981164,-2,10,43,57,12,4,0,-1
1501883082982157,13,-2,-1,-10,-8,-7,-2,-12
1501883082982157,-10,1,3,9,5,1,-2,-21
1501883082988194,-23,-1,-28,-21,-6,-2,-2,-4
1501883082988194,17,0,-8,-13,11,2,-4,27
1501883083002198,17,-3,14,95,3,6,9,39
1501883083002198,-7,5,10,-48,-9,-3,5,-15
1501883083010223,19,-4,-23,-2,4,-1,-2,39
1501883083010223,-17,12,46,40,11,3,0,-52
1501883083011160,1,-6,-38,-18,-17,-7,-9,20
1501883083011160,14,1,31,56,1,-3,-1,21
1501883083032198,12,-12,-8,-8,-1,-1,-2,50
1501883083032198,15,0,16,-14,0,-1,-5,-6
1501883083033199,-14,6,2,20,16,6,3,-38
1501883083033199,41,-5,-2,44,-16,-3,-5,22
1501883083047205,-63,1,-8,-52,-4,-5,3,-119
1501883083047205,4,-4,-17,-13,-3,-1,2,48
1501883083055200,3,-6,12,-22,-7,-3,-3,-8
1501883083055200,24,0,-13,0,14,6,4,71
1501883083078227,1,2,-7,47,-9,1,-3,-27
1501883083078227,-13,-7,-28,-57,-9,-2,1,-5
1501883083079199,7,8,42,-10,-1,-9,1,-7
1501883083079199,-15,-2,6,52,2,4,0,-33
1501883083093181,26,0,-5,-12,4,-1,-1,53
1501883083093181,5,4,9,41,3,3,4,19
1501883083094166,-5,-6,-38,-78,-8,-3,-5,-36
1501883083094166,-14,-4,-14,-10,11,2,-9,-5
1501883083116179,13,-4,11,60,-7,-5,-3,30
1501883083116179,60,3,-22,-105,-16,-9,-6,34
1501883083116179,-56,-5,17,10,0,4,2,1
1501883083116179,5,-11,-56,2,-8,-6,1,-23
1501883083130165,-24,10,39,-17,7,1,-6,-12
1501883083130165,-16,-9,-14,17,2,1,6,-22
1501883083131195,18,3,-4,13,-1,3,0,39
1501883083131195,-30,-5,-7,-72,2,1,3,-60
1501883083152210,6,-1,-4,33,1,1,0,18
1501883083152210,-11,2,27,-38,-3,-4,0,-13
1501883083153187,-33,4,-5,-21,3,-1,-6,-33
1501883083153187,-11,-10,6,29,0,3,0,-10
1501883083168203,-30,-8,-61,-86,-6,-2,-4,-51
1501883083168203,2,2,5,-3,1,0,5,12
1501883083175175,29,-4,1,55,-3,-1,-1,25
1501883083175175,1,-1,13,-17,2,-4,-4,-28
1501883083191185,-17,5,10,5,13,8,5,2
1501883083191185,-6,-6,-11,30,-22,-8,-3,34
1501883083191185,31,11,9,-12,3,1,4,14
1501883083191185,-25,-10,-52,-33,-10,-8,-10,-64
1501883083212213,-1,-6,23,74,6,-2,2,21
1501883083212213,-1,-3,-16,-53,1,2,0,2
1501883083213210,-33,-4,20,-5,-4,-5,-1,-22
1501883083213210,-2,0,-17,-44,-5,-4,-4,1
1501883083228209,-19,0,12,82,2,2,2,-21
1501883083228209,74,7,16,11,9,-3,-5,84
1501883083235212,-48,-5,-19,-79,-12,9,4,-73
1501883083235212,47,3,5,63,5,-3,1,33
1501883083250237,-12,-4,-10,-2,0,-3,6,32
1501883083250237,-10,-9,-6,-11,-9,-5,-12,-106
1501883083251174,22,1,-28,-18,2,-2,-4,33
1501883083251174,-11,0,1,29,1,2,0,31
1501883083281185,18,5,15,-56,-11,2,2,8
1501883083281185,-39,-1,23,103,6,3,4,-49
1501883083281185,22,4,17,-50,-8,-4,-6,-3
1501883083281185,27,17,72,106,29,7,8,15
1501883083296175,-26,-30,-107,-49,-25,-14,-11,10
1501883083296175,-15,7,33,3,8,3,-5,-47
1501883083296175,-11,-3,-16,-11,-7,1,-1,-24
1501883083296175,14,-4,28,5,-11,-8,-5,47
1501883083310240,24,8,15,-35,1,-4,-3,-42
1501883083310240,-21,10,25,-55,-1,12,12,-31
1501883083311218,44,-23,-83,93,-2,-12,0,84
1501883083311218,-53,6,21,14,7,6,-2,-51
1501883083341217,0,-2,-2,-39,-7,-6,-7,-71
1501883083341217,-10,4,7,16,-2,-4,-7,-18
1501883083341217,-16,9,42,41,15,5,5,-11
1501883083341217,24,-10,-39,-109,-23,-8,-2,29
1501883083347210,-37,-2,8,61,12,4,-1,1
1501883083347210,-2,-3,-22,-32,-6,-3,-4,-25
1501883083355180,12,7,40,66,14,4,4,-4
1501883083355180,-1,-6,-22,-36,-23,-5,-4,21
1501883083378227,6,-7,-6,-9,1,-3,-3,29
1501883083378227,16,-12,-45,45,9,7,9,32
1501883083379182,4,8,33,-89,-3,-1,-4,-3
1501883083379182,15,-6,-7,-15,-1,-4,-1,-17
1501883083392246,25,15,27,5,13,8,-1,-26
1501883083392246,-18,4,35,42,-5,-3,3,13
1501883083393183,-48,-18,-14,15,2,-4,-5,-56
1501883083393183,12,12,0,28,10,6,8,31
1501883083415206,45,-13,-27,-23,-3,1,-5,88
1501883083415206,-8,-2,-33,-42,-1,-1,0,8
1501883083422225,-21,12,13,-54,-5,0,3,-12
1501883083422225,25,-2,-7,40,2,-2,-8,-65
1501883083431204,26,5,19,-51,0,0,9,84
1501883083431204,5,-6,-26,50,-3,-3,-2,14
1501883083431204,24,-13,-9,29,-1,-5,-1,37
1501883083431204,-43,-1,29,-38,-12,-3,-2,-2
1501883083453230,-17,1,3,22,-4,-5,-5,-37
1501883083453230,14,3,25,38,11,4,1,55
1501883083454195,-20,1,-38,-84,-24,-12,-16,-38
1501883083454195,0,2,5,-33,-3,0,8,18
1501883083467214,-3,-5,-3,-10,-4,0,9,-9
1501883083467214,-16,6,30,-48,-6,-2,-3,2
1501883083475214,-2,-12,-57,46,-2,0,-3,5
1501883083475214,6,11,64,70,22,8,3,21
1501883083490224,6,-2,-23,-5,3,-1,-5,-36
1501883083490224,-23,-7,-15,-63,-8,-3,-4,6
1501883083497189,42,1,13,14,9,6,-1,51
1501883083497189,-52,-5,-36,-3,-3,-1,4,-10
1501883083512190,39,10,49,-13,-7,-1,3,-4
1501883083512190,4,-4,-17,-3,1,-5,-12,-5
1501883083513191,-13,4,4,-15,-2,2,12,8
1501883083513191,-2,6,-1,4,2,4,-5,16
1501883083536191,-24,2,-8,-19,12,4,7,5
1501883083536191,47,-1,8,18,-15,-10,0,34
1501883083536191,-15,-1,-2,38,4,-1,-4,-29
1501883083536191,52,-15,-56,-88,-21,-3,-2,44
1501883083550199,-42,11,33,39,15,4,-5,-75
1501883083550199,-5,-1,23,-3,2,3,1,-6
1501883083551228,-10,-6,-12,44,2,-4,2,30
1501883083551228,-8,3,25,2,4,-1,4,-12
1501883083572195,-14,3,24,41,2,-4,-5,12
1501883083572195,-6,-9,-26,-39,-14,-2,-2,-21
1501883083573193,-2,-4,-28,-1,10,1,-4,5
1501883083573193,-11,3,24,-23,-5,2,0,-11
1501883083595194,-2,1,-7,52,2,0,0,8
1501883083595194,-5,2,2,127,6,-4,0,-8
1501883083602195,43,5,9,-54,-6,1,-5,-61
1501883083602195,-25,-11,-25,30,-3,-5,2,3
1501883083610229,1,3,1,-59,-13,-2,1,5
1501883083610229,-7,-1,-14,3,5,1,1,-10
1501883083611194,-14,-4,20,28,-8,-3,-5,-19
1501883083611194,6,6,14,21,-3,0,-3,-5
1501883083634200,-22,-9,-18,-26,-1,-1,1,20
1501883083634200,-11,-3,10,34,-1,-4,-9,-25
1501883083635199,34,-1,-4,-7,-5,-1,1,63
1501883083635199,7,5,17,-2,3,-4,-5,-10
1501883083655214,-2,-4,12,21,0,-2,-10,-16
1501883083655214,31,-5,-43,-40,-1,1,5,36
1501883083662268,-2,8,24,16,5,5,-3,-19
1501883083662268,-25,-9,-8,38,9,0,0,-4
1501883083670241,7,-10,-16,-23,-22,-9,-3,63
1501883083670241,11,-5,11,2,4,3,-1,-3
1501883083671211,-5,9,20,-17,3,0,-1,6
1501883083671211,21,-1,4,14,-3,-4,-6,10
1501883083692268,-23,3,8,74,15,6,-4,-44
1501883083692268,-9,-3,-36,-77,-7,-3,5,10
1501883083693201,-54,-5,39,6,13,-1,3,2
1501883083693201,79,-6,-54,-40,-25,-9,-8,25
1501883083732267,23,3,-1,-7,6,2,-3,8
1501883083732267,-1,6,10,32,6,7,17,14
1501883083733203,7,1,8,-78,-2,1,-1,-21
1501883083733203,-31,-6,-34,-65,-6,-2,-1,-7
1501883083734225,-41,-16,9,88,-4,-9,-12,-93
1501883083734225,14,13,35,-4,9,2,5,18
1501883083745235,9,-12,-33,-30,-14,-7,-6,-46
1501883083745235,-56,3,-4,30,7,-1,3,-42
1501883083752216,-24,2,-12,-48,-13,-2,-5,27
1501883083752216,-10,-1,14,-70,-2,-3,-5,-17
1501883083753213,17,1,2,79,1,-4,5,-4
1501883083753213,9,-2,44,8,-7,-7,-4,-6
1501883083776215,-1,-5,-55,-1,3,5,1,10
1501883083776215,-34,-1,24,32,1,-1,-4,-32
1501883083776215,-9,1,-9,41,6,-1,-3,55
1501883083776215,33,4,-6,9,-5,0,2,-16
1501883083790245,-8,-5,-13,-39,-6,-2,9,16
1501883083790245,5,-3,-2,3,-4,-2,-5,4
1501883083791237,13,5,-9,7,-3,2,-3,12
1501883083791237,-27,1,31,55,13,-1,4,13
1501883083821224,2,-7,1,41,-5,-3,-1,-2
1501883083821224,19,-3,-8,-10,2,0,-2,49
1501883083821224,18,5,8,49,13,3,0,-7
1501883083821224,-65,3,-7,-35,-3,7,2,-58
1501883083836226,18,-8,-20,-50,-5,-9,-16,-17
1501883083836226,-26,-1,3,21,-5,-2,10,-14
1501883083836226,-16,-7,-8,-19,1,0,2,48
1501883083836226,17,0,-9,-30,3,2,-3,1
1501883083850253,-2,5,31,29,9,5,5,15
1501883083850253,-22,-7,6,30,-11,-11,-7,-30
1501883083851211,47,3,-1,-15,-4,1,1,8
1501883083851211,-11,-2,-34,-8,13,4,2,-2
1501883083872251,-11,-5,36,16,-15,-5,2,3
1501883083872251,16,2,-41,-13,10,3,-5,13
1501883083873240,-15,-11,-10,-60,-24,-4,0,-16
1501883083873240,29,8,43,74,16,-1,-3,22
1501883083896226,3,0,-18,-18,3,-2,-1,-6
1501883083896226,-23,-4,30,30,-7,0,-3,-53
1501883083896226,-29,-6,-32,64,9,-2,-7,-25
1501883083896226,0,-12,-47,-118,-24,-5,-2,-12
1501883083910252,12,10,24,0,-7,-6,2,18
1501883083910252,-10,-5,-7,-4,7,2,-5,-18
1501883083911212,13,3,22,13,-2,1,-2,-20
1501883083911212,-5,-5,-17,-38,-7,-4,4,25
1501883083932280,39,6,15,-14,5,3,5,1
1501883083932280,10,3,-24,-51,-5,-2,-1,79
1501883083933212,-4,-2,25,56,-6,-6,0,-53
1501883083933212,5,-4,-13,46,-1,2,1,1
1501883083956226,19,11,23,16,15,4,-1,5
1501883083956226,-8,-14,-24,-30,-18,-6,-3,14
1501883083956226,-12,8,22,-2,18,10,5,18
1501883083956226,44,-9,-29,-101,-17,-7,-1,99
1501883083978265,-11,-2,6,109,7,2,-2,-24
1501883083978265,7,0,-8,-53,0,-1,-5,7
1501883083979217,1,2,7,-77,-9,-2,-4,33
1501883083979217,9,-4,10,40,-9,-4,0,-15
1501883083992265,43,0,-6,-24,4,1,1,42
1501883083992265,-3,7,16,79,13,5,2,-38
1501883083993228,-4,-6,-34,-18,-5,-3,4,2
1501883083993228,7,16,46,43,19,9,3,-23
1501883084023286,-7,-22,-55,-106,-20,-12,-10,-2
1501883084023286,-2,7,34,71,2,-3,-2,-30
1501883084024220,50,-5,0,23,-15,-12,-4,84
1501883084024220,-19,3,21,2,8,4,-2,-45
1501883084030225,10,0,-11,46,-2,-2,3,19
1501883084030225,-15,0,22,-15,3,1,3,41
1501883084031222,15,-3,-13,-28,-6,-2,0,17
1501883084031222,-25,-3,-11,-30,-2,-1,-7,-24
1501883084053261,-7,6,20,53,14,6,3,6
1501883084053261,-10,-2,-24,-106,-25,-6,-6,-23
1501883084060269,-4,-1,29,43,12,-2,0,17
1501883084060269,0,-2,-25,-5,-9,-5,-3,10
1501883084076235,-36,-3,-6,-46,-2,1,-3,-30
1501883084076235,6,-6,4,70,-2,-3,-4,-11
1501883084076235,2,-2,-26,-70,1,6,1,23
1501883084076235,-3,2,41,87,1,-4,-1,1
1501883084098284,-4,1,-18,-43,-3,-5,-4,-7
1501883084098284,-5,6,21,127,27,4,5,27
1501883084099241,49,4,-16,-84,-45,-4,-3,56
1501883084099241,-36,-15,-32,42,-5,-9,-7,-6
1501883084121241,-20,8,15,23,11,6,1,-15
1501883084121241,1,-15,-31,-36,-9,-3,-6,-43
1501883084121241,-30,6,19,7,13,0,3,-70
1501883084121241,1,-3,-10,-59,-5,2,1,21
1501883084135270,-19,11,16,16,-5,-4,-6,-38
1501883084135270,38,6,28,-9,7,3,-2,25
1501883084136226,-19,-12,-35,22,5,-5,0,-14
1501883084136226,-2,-1,42,-8,3,2,-7,-30
1501883084160226,18,-2,-17,4,-6,-2,5,14
1501883084160226,18,3,-19,-9,-1,1,6,69
1501883084160226,-11,5,29,72,14,4,1,-33
1501883084160226,-6,3,-3,-54,5,-1,-2,-2
1501883084180299,9,-6,6,-2,-16,-4,-1,46
1501883084180299,15,-4,-20,-12,-3,1,5,-20
1501883084187270,-24,-2,-9,13,15,-1,-8,-12
1501883084187270,-2,5,-22,-84,3,4,4,2
1501883084195268,8,-3,21,-18,-16,-5,-1,5
1501883084195268,13,-1,0,-4,-1,-3,-5,-7
1501883084196229,-12,0,-10,35,15,8,2,11
1501883084196229,10,5,55,34,-11,-8,-10,-14
1501883084218268,21,-31,-102,-48,-20,-5,3,11
1501883084218268,4,6,24,-33,-6,-2,1,24
1501883084219230,-11,1,-20,-5,-1,2,-2,-22
1501883084219230,-41,2,39,74,6,0,-3,-34
1501883084232290,-14,6,20,-5,15,7,-1,4
1501883084232290,22,-4,-13,5,-4,-3,-2,36
1501883084240275,-45,-7,-41,-26,-12,-6,-7,-97
1501883084240275,-22,4,-2,8,7,2,7,-22
1501883084255271,9,-2,17,-33,-2,-4,-4,-28
1501883084255271,-21,-12,-55,45,-6,-5,2,-32
1501883084256233,19,5,47,-13,-4,-1,1,-8
1501883084256233,-14,-4,22,83,8,-2,0,19
1501883084278303,-2,-4,-67,-43,7,-2,-5,-31
1501883084278303,-8,-1,9,-6,-10,2,4,30
1501883084279235,-5,-5,41,-28,2,2,6,3
1501883084279235,62,-5,-97,-8,-6,1,2,38
1501883084293277,-27,5,34,81,1,-4,-4,-12
1501883084293277,-7,-3,11,-14,-2,0,4,-14
1501883084300295,-2,4,3,20,2,-2,-2,2
1501883084300295,-10,2,21,-64,6,6,6,20
1501883084315277,10,9,0,-17,-2,6,1,0
1501883084315277,-41,-10,-28,44,2,-9,-7,-51
1501883084316243,-13,1,33,47,-3,-3,-8,6
1501883084316243,14,-6,-32,-67,-8,-5,6,32
1501883084331243,-21,-2,-1,7,3,2,-2,-11
1501883084331243,-5,8,27,2,2,0,-8,-32
1501883084337276,-23,-2,-19,-8,1,5,13,10
1501883084337276,7,-10,-21,-41,-22,-11,-8,44
1501883084352240,2,1,12,59,-3,-3,0,14
1501883084352240,16,12,31,20,18,6,0,4
1501883084353264,-20,-16,-40,58,2,-2,-7,-23
1501883084353264,-45,-8,0,-42,-19,-3,-6,-69
1501883084375278,1,8,17,118,8,2,3,-5
1501883084375278,-22,-5,-13,-49,-14,-6,-8,-11
1501883084376241,42,-1,-19,-3,-3,-2,7,85
1501883084376241,-4,0,10,15,6,3,0,-73
1501883084389303,11,6,9,-26,3,5,1,-10
1501883084389303,1,8,22,61,0,3,2,11
1501883084397280,-2,-9,-20,-12,0,-5,-4,-7
1501883084397280,46,6,29,75,4,-3,2,52
1501883084412310,-27,2,13,-39,4,1,6,-1
1501883084412310,23,3,16,-3,9,4,2,1
1501883084413243,-3,1,-1,29,-1,0,-3,-6
1501883084413243,6,-9,-26,14,3,3,-1,3
1501883084435291,8,0,-9,-46,-2,-4,-4,10
1501883084435291,-7,1,-6,-71,3,2,-2,-6
1501883084436244,21,6,55,102,9,2,7,33
1501883084436244,-14,-8,-26,-64,-8,-8,-14,-60
1501883084466259,17,-3,7,-1,-8,-5,7,4
1501883084466259,-23,5,2,8,1,1,1,-41
1501883084466259,3,-3,-38,-128,-15,-3,-4,-1
1501883084466259,14,6,33,118,10,0,-1,11
1501883084472317,-5,-7,-4,-38,-3,0,-1,67
1501883084472317,41,7,14,-94,-5,1,2,18
1501883084473247,-13,-6,1,82,7,-8,-7,-25
1501883084473247,-33,-3,-8,-8,-9,-2,1,-7
1501883084495290,2,-2,-32,-43,-3,-5,-7,-5
1501883084495290,-4,-5,18,18,7,2,-1,40
1501883084496271,28,7,3,-13,-4,0,2,-31
1501883084496271,-45,-3,-15,-68,8,7,-1,-10
1501883084519272,-19,-5,12,111,-1,-5,4,3
1501883084519272,11,0,-27,-99,-27,-6,-7,-8
1501883084519272,9,-18,-44,-3,-3,-5,-7,-9
1501883084519272,19,-7,-21,38,-6,-5,-2,12
1501883084532306,59,6,18,-18,17,6,0,37
1501883084532306,-64,-3,-29,16,7,-4,0,-62
1501883084533247,13,6,26,4,-7,-4,2,48
1501883084533247,7,6,-6,-89,-6,1,-1,-17
1501883084555278,-39,-2,20,-13,-6,-2,-8,-67
1501883084555278,11,-8,-12,14,-4,-4,2,26
1501883084556250,9,10,7,-37,1,3,-1,-4
1501883084556250,4,-6,5,78,10,0,1,-6
1501883084586268,-15,-1,14,-34,0,-1,3,-12
1501883084586268,-10,-7,-8,-12,-10,-7,1,-4
1501883084586268,-28,0,-3,-69,-3,4,0,-34
1501883084586268,27,-2,-5,87,1,0,0,51
1501883084592317,4,2,4,85,4,-3,-3,-1
1501883084592317,14,-4,-33,-53,-15,0,-6,-6
1501883084593262,-17,-8,-18,-72,-10,-5,3,58
1501883084593262,13,3,11,70,13,-4,-4,28
1501883084615291,-13,-10,-31,18,-16,-6,-1,-7
1501883084615291,-39,1,20,26,3,2,-6,-73
1501883084616254,-3,11,17,63,0,1,0,-3
1501883084616254,-5,-3,-33,-63,-6,1,1,0
1501883084638318,-27,-5,2,5,2,1,2,-26
1501883084638318,9,3,22,95,6,-1,-5,32
1501883084639280,45,4,9,9,-3,-3,-2,0
1501883084639280,-36,0,22,-21,-1,-7,-1,-16
1501883084652267,23,-4,-35,-39,-6,9,-4,23
1501883084652267,4,3,8,-16,-8,-3,4,30
1501883084653254,4,2,8,54,4,1,1,-23
1501883084653254,40,6,-17,9,-3,-1,3,20
1501883084683299,-4,-1,24,-6,1,-2,-1,-30
1501883084683299,-7,-1,-22,-30,4,2,-1,-9
1501883084684266,-10,-13,-18,-5,-10,-10,-14,-17
1501883084684266,-20,-3,9,53,9,2,17,-17
1501883084714326,11,10,23,-54,-1,2,-4,15
1501883084714326,7,-5,-18,10,2,-1,6,25
1501883084715267,-32,-8,-22,-30,-4,-3,-7,-76
1501883084715267,3,8,24,-27,2,5,-4,-2
1501883084717260,-20,-5,-8,68,3,-5,0,8
1501883084717260,21,1,8,44,7,0,-6,-16
1501883084720302,-31,6,21,-64,-3,1,-2,-2
1501883084720302,28,-12,-28,-33,-9,-3,-2,19
1501883084743324,-29,3,2,-5,3,0,-1,-52
1501883084743324,17,3,2,-45,-6,-1,0,4
1501883084744263,6,-3,30,75,11,0,1,68
1501883084744263,-4,-6,-26,-85,-20,-2,-6,-35
1501883084774303,-1,4,22,52,0,0,0,-8
1501883084774303,-8,-2,16,37,-7,-3,0,-6
1501883084775262,15,-4,-17,-36,0,0,-1,5
1501883084775262,12,8,41,65,5,2,-1,12
1501883084777264,7,-9,-37,-86,-3,-4,3,17
1501883084777264,1,7,18,-2,0,-1,-4,-10
1501883084780303,-12,10,7,68,9,4,6,-26
1501883084780303,-8,-12,-14,-86,-15,-10,-9,21
1501883084795305,35,-1,-18,-59,1,3,3,17
1501883084795305,20,-3,15,40,-1,-2,3,30
1501883084796302,-4,-7,-42,-88,-9,2,-2,1
1501883084796302,-14,-2,-12,31,-4,0,6,-74
1501883084818308,-17,5,40,91,7,-1,-9,16
1501883084818308,-32,-8,-17,11,0,-3,5,-33
1501883084819265,10,0,3,49,5,-2,-1,1
1501883084819265,-18,7,33,14,1,3,1,16
1501883084832328,-18,-4,-15,-122,-7,-1,-1,-31
1501883084832328,15,-6,-46,14,-7,-5,-1,4
1501883084833265,-14,0,5,11,-8,-5,-5,8
1501883084833265,-2,-2,-6,-33,5,1,-1,8
1501883084863307,44,-3,-12,13,-12,-5,-1,65
1501883084863307,-15,1,35,27,0,-2,-6,-63
1501883084864269,-19,-4,-32,-6,4,-4,1,-14
1501883084864269,-4,5,3,4,8,4,5,17
1501883084877311,33,-3,-5,40,0,-1,-6,20
1501883084877311,-19,0,9,-43,-8,0,2,-2
1501883084894280,34,3,11,5,-1,0,0,0
1501883084894280,-14,1,13,-21,2,-2,0,-15
1501883084895270,6,-2,-30,-69,-1,-2,4,21
1501883084895270,-1,-6,-1,102,12,2,-2,0
1501883084896269,-14,6,37,-115,-29,-5,-3,-29
1501883084896269,11,-11,-54,55,6,0,1,67
1501883084930335,-4,2,-2,-33,-4,-1,-1,-16
1501883084930335,34,8,11,-53,7,2,-5,33
1501883084931304,-5,-10,-15,52,2,-5,-5,-38
1501883084931304,12,1,-2,-34,-1,0,-5,12
1501883084938339,-21,-3,13,101,-5,-1,5,-15
1501883084938339,-20,-4,-14,-30,9,1,-3,-3
1501883084939278,-15,0,2,3,1,-2,-2,17
1501883084939278,-7,1,12,48,-1,-3,-2,-3
1501883084952310,-6,-2,-10,-11,8,0,-3,-16
1501883084952310,-10,-4,-18,-21,-7,-1,5,-11
1501883084953273,42,-2,19,8,5,0,-3,21
1501883084953273,12,6,9,49,0,-4,-3,-1
1501883084975313,10,6,25,-16,0,0,0,-9
1501883084975313,-27,-2,-6,-17,-8,-7,-10,31
1501883084976275,0,-1,-5,22,3,3,-3,6
1501883084976275,-5,-2,4,-76,-7,-3,4,-6
1501883084998316,-5,2,-1,-50,0,1,-1,-11
1501883084998316,18,2,19,31,1,-6,-1,15
1501883084999277,-3,-6,-15,4,-3,-1,-10,-4
1501883084999277,-3,-3,-11,20,3,0,-1,-4
1501883085013316,7,-4,-14,-17,3,6,3,-2
1501883085013316,2,0,-3,4,3,2,-1,-13
1501883085014278,-5,2,-6,-45,-4,1,8,16
1501883085014278,-1,1,22,102,8,0,-2,-22
1501883085035324,-1,-3,7,-19,-5,-1,-2,79
1501883085035324,14,-4,-15,9,10,3,2,15
1501883085036288,36,9,30,3,1,-1,5,48
1501883085036288,-37,-12,-30,-15,-12,-4,1,-23
1501883085058346,-3,2,-22,-64,-6,-1,1,-31
1501883085058346,-20,5,15,71,7,1,3,8
1501883085059279,19,-1,10,20,11,2,0,23
1501883085059279,20,-1,3,-22,-9,0,-10,14
1501883085072315,-29,1,13,49,-2,-5,-5,-27
1501883085072315,0,-11,-40,-45,-3,2,1,-21
1501883085080341,-9,4,13,62,0,-2,3,-13
1501883085080341,4,6,25,-41,8,4,-4,-10
1501883085095322,16,-4,17,51,-15,-9,-6,-64
1501883085095322,16,-1,-14,-47,-5,-1,-2,12
1501883085096285,-25,-2,-4,13,2,1,6,2
1501883085096285,6,0,15,101,-4,-7,-3,-4
1501883085118324,-1,-2,13,-42,1,-1,-5,17
1501883085118324,1,2,25,-8,3,6,2,2
1501883085119282,-13,-2,-22,-39,-7,-6,-2,-14
1501883085119282,5,2,2,9,9,7,0,9
1501883085140325,-2,-2,-19,25,3,-5,-2,7
1501883085140325,3,0,16,-36,-18,-5,4,5
1501883085141316,-10,-3,-8,-22,2,3,-3,-34
1501883085141316,9,-4,-12,-71,-5,-5,-4,-35
1501883085155324,-12,3,5,104,7,-2,0,69
1501883085155324,3,-3,-1,-27,-6,-3,-2,-8
1501883085156286,16,-3,-10,15,-1,-1,-2,9
1501883085156286,-23,2,33,39,0,-1,1,1
1501883085178285,-6,-21,-45,-66,-7,-2,-9,-13
1501883085178285,-9,-2,-8,-8,5,-2,5,-9
1501883085179287,-15,3,16,-21,-8,-6,-1,4
1501883085179287,-6,6,-12,14,0,-3,0,-12
1501883085192326,-11,4,8,-42,7,7,7,-17
1501883085192326,10,2,9,55,-6,1,-7,23
1501883085200305,-8,-1,-3,-46,-5,-3,-10,-13
1501883085200305,-18,-14,-42,28,7,3,2,-25
1501883085215331,-1,2,-3,18,-12,-5,2,34
1501883085215331,11,0,2,8,12,1,-2,-46
1501883085216289,1,2,0,-24,-20,-2,0,0
1501883085216289,5,8,28,2,9,0,-2,6
1501883085238295,-21,-9,-12,-16,-5,-3,-3,-25
1501883085238295,-5,-3,7,31,4,0,0,6
1501883085239290,13,0,-19,23,3,2,1,2
1501883085239290,15,1,28,1,-9,-3,1,49
1501883085268358,8,2,-21,-32,-4,1,-2,-45
1501883085268358,-4,-6,-22,-34,-5,-5,0,45
1501883085269290,-29,3,14,-9,7,0,-2,-59
1501883085269290,26,-3,-14,-76,-7,1,-2,38
1501883085275333,13,4,24,43,6,2,4,-7
1501883085275333,-3,1,-16,-64,-11,-3,-15,-6
1501883085275333,-9,-9,5,53,-3,-3,1,12
1501883085275333,12,0,-12,-24,7,1,9,3
1501883085298337,0,7,35,84,1,1,0,6
1501883085298337,-2,-10,-21,30,-1,-4,-3,-11
1501883085299303,4,-3,-8,-20,5,4,3,10
1501883085299303,-4,-4,-29,-53,-14,-5,-8,-10
1501883085312342,-4,2,12,55,2,-1,-3,-12
1501883085312342,11,4,21,-46,-2,-1,4,12
1501883085320293,40,-6,-16,10,0,0,-4,31
1501883085320293,-8,-9,-32,38,-6,-6,-3,-9
1501883085335336,6,1,-4,-40,2,5,3,-5
1501883085335336,-16,6,31,62,3,-1,-3,41
1501883085336297,-7,1,1,-12,8,3,6,6
1501883085336297,16,-5,-9,81,-6,-2,-6,-5
1501883085358343,5,-9,-28,-112,-22,-8,-4,1
1501883085358343,11,5,9,31,7,2,2,-19
1501883085359298,-8,3,13,1,5,-3,-3,8
1501883085359298,-10,0,-28,-61,-1,6,1,-25
1501883085372314,0,0,8,48,7,0,-1,23
1501883085372314,3,-7,4,15,-9,-5,-2,-9
1501883085380337,5,-3,-12,-21,-7,1,-4,-5
1501883085380337,-11,1,9,-42,0,-4,1,-2
1501883085395340,18,4,13,29,4,0,1,14
1501883085395340,20,-4,-22,-50,-3,1,6,17
1501883085396299,-16,-6,-12,35,1,-3,-1,-43
1501883085396299,-19,-2,9,-29,-1,-1,0,9
1501883085418343,-2,1,-2,-56,5,3,-1,0
1501883085418343,-16,-3,-3,69,2,0,-2,1
1501883085419301,27,1,-6,20,-12,-5,5,17
1501883085419301,13,8,33,36,3,0,-2,1
1501883085440346,-15,-3,-1,18,4,-2,-1,-16
1501883085440346,-16,1,11,39,2,1,-4,-22
1501883085441330,-10,-5,-32,-122,-10,-2,-3,-5
1501883085441330,-1,-1,9,79,5,-5,-5,20
1501883085455345,11,-3,8,-15,-4,2,-3,26
1501883085455345,-5,0,-17,-102,-9,3,0,-3
1501883085456303,-38,-3,20,62,4,-1,0,-13
1501883085456303,24,0,-11,-22,-2,-3,-2,52
1501883085478349,-22,-1,-7,-28,1,-2,4,-24
1501883085478349,-8,-1,-1,9,6,2,-3,-24
1501883085479303,-16,4,8,-3,5,2,-4,-3
1501883085479303,50,7,18,-23,-3,-1,8,47
1501883085500344,-47,-10,-31,-10,-5,-2,-9,-73
1501883085500344,1,-5,-15,-33,-3,-3,3,-17
1501883085501306,-3,0,6,39,-4,-4,-4,-10
1501883085501306,-1,3,35,-12,8,3,-3,-17
1501883085515304,24,1,-25,-55,0,0,4,12
1501883085515304,-13,2,-8,50,-11,-9,-2,-10
1501883085516307,-24,-8,-9,-27,-3,4,0,-37
1501883085516307,-16,-2,-5,-20,-3,-6,-6,-15
1501883085545348,0,7,31,44,6,8,-2,13
1501883085545348,12,-5,-8,-14,3,-3,1,-25
1501883085546348,16,1,-3,26,-6,1,7,27
1501883085546348,-53,-3,-5,-2,-7,-3,-4,-46
1501883085577314,-13,-3,-8,15,2,-1,-1,-5
1501883085577314,11,2,1,24,0,-2,-3,18
1501883085577314,11,8,20,-30,-4,-2,-3,14
1501883085577314,11,-6,-16,-10,4,2,9,7
1501883085579309,-38,-3,-13,43,-4,-1,-3,-7
1501883085579309,-6,-9,-19,2,-6,-5,-7,40
1501883085582377,10,3,12,12,10,3,2,-15
1501883085582377,-5,-1,-5,-34,-11,-1,-4,-32
1501883085598354,46,7,21,28,-1,-4,0,25
1501883085598354,14,-2,16,47,5,5,3,-21
1501883085599322,-23,-2,-19,43,-1,-4,-6,-11
1501883085599322,32,2,25,-13,5,0,1,27
1501883085620354,-35,-20,-59,-21,-23,-11,-8,-18
1501883085620354,-16,4,9,-5,3,-5,-2,-12
1501883085621347,6,-1,9,-25,3,6,0,20
1501883085621347,-28,-2,-14,33,1,0,-7,-63
1501883085635352,15,5,31,25,10,4,6,14
1501883085635352,0,0,-2,-69,-10,0,0,4
1501883085636313,-2,-9,-20,-2,-12,-4,-3,17
1501883085636313,4,5,6,40,9,0,1,-24
1501883085658353,41,-2,17,-17,-6,-1,-3,16
1501883085658353,-48,-5,-23,14,-1,-2,-6,-52
1501883085665359,34,7,40,37,5,-3,3,2
1501883085665359,-16,-13,-53,-5,-5,1,2,12
1501883085697358,-2,4,15,60,5,1,-2,4
1501883085697358,56,3,-10,-92,6,3,4,20
1501883085697358,-17,1,28,78,-2,-5,1,19
1501883085697358,-25,-5,6,-80,-14,-1,-2,-5
1501883085699331,-8,3,5,-15,2,0,-1,-5
1501883085699331,-6,-2,7,3,1,0,-2,1
1501883085727383,11,7,14,-22,8,4,2,-15
1501883085727383,11,1,-4,52,3,-4,-3,44
1501883085728318,7,-12,-20,-40,-5,3,-3,-46
1501883085728318,-34,6,27,40,-1,-1,-2,-39
1501883085729327,7,-7,-31,-75,-1,-4,1,-2
1501883085729327,-9,-1,16,35,-1,4,-2,0
1501883085748340,20,2,-3,43,-1,-1,0,29
1501883085748340,-7,-4,-20,-10,-10,-2,-2,19
1501883085757328,-33,-1,-13,-115,-4,1,-3,46
1501883085757328,33,-2,14,75,-2,-9,0,-34
1501883085763358,-29,1,-7,-38,-1,-4,1,-37
1501883085763358,9,3,13,3,4,3,3,-1
1501883085764322,-6,-7,-19,11,-3,-1,-7,12
1501883085764322,-5,2,-24,17,1,4,0,24
1501883085784365,-18,-5,-3,28,11,-5,1,-65
1501883085784365,39,1,1,-77,-8,-4,-3,32
1501883085792386,11,-1,-10,17,-9,-5,1,-12
1501883085792386,-9,-1,-2,-10,-5,0,-2,6
1501883085800384,-15,0,6,13,7,-3,-1,20
1501883085800384,-42,0,-5,-13,-7,1,-5,-62
1501883085801324,-5,-3,1,-38,-4,2,0,-31
1501883085801324,2,5,18,22,5,0,-1,10
1501883085815365,-26,1,16,6,6,1,0,30
1501883085815365,10,-8,-4,-9,-17,-8,-1,-2
1501883085815365,22,5,-5,-62,0,1,1,0
1501883085815365,-44,-11,-6,-8,0,-1,-5,-26
1501883085838357,29,4,0,-68,-5,-1,2,52
1501883085838357,2,3,6,70,10,2,-4,-37
1501883085839327,9,2,20,49,12,5,1,1
1501883085839327,4,2,3,22,-6,-4,0,13
1501883085860388,6,-6,-15,-49,-3,0,-5,-12
1501883085860388,-29,-1,-6,6,0,-5,1,21
1501883085861361,3,-7,-9,23,-3,-5,-4,11
1501883085861361,-7,2,-5,-101,-10,1,0,-16
1501883085875365,1,2,26,69,1,1,-4,2
1501883085875365,9,2,10,31,2,1,3,26
1501883085876328,-15,-3,-10,-2,-1,-6,-10,-23
1501883085876328,12,0,-7,1,2,0,8,5
1501883085898328,-6,0,-15,-17,-11,-1,-4,11
1501883085898328,20,0,6,18,3,2,7,26
1501883085899329,-26,-2,-4,30,6,1,-7,-9
1501883085899329,12,-3,7,-47,3,-1,-8,20
1501883085920369,7,7,0,-38,-8,-6,1,-54
1501883085920369,-1,-4,-14,-7,6,0,0,52
1501883085921367,13,-2,5,24,-4,-1,0,11
1501883085921367,-28,0,2,-1,5,0,2,-14
1501883085934334,-19,-3,13,12,0,2,1,-3
1501883085934334,30,4,13,-24,-1,-3,-3,2
1501883085950373,29,0,-11,-3,1,2,4,10
1501883085950373,-25,-5,-21,41,-8,-8,-7,-21
1501883085958331,12,2,3,-19,2,-2,0,2
1501883085958331,-15,-3,4,68,4,4,3,-27
1501883085959332,-1,-4,1,4,-14,-5,-3,53
1501883085959332,0,1,-3,-14,-3,1,-2,-45
1501883085980394,14,-4,-37,-52,-4,0,-4,19
1501883085980394,-18,-2,21,84,15,-1,3,-7
1501883085981371,-13,-3,13,-2,1,-3,-6,-9
1501883085981371,33,4,-2,-25,-6,-3,0,19
1501883085995384,-12,2,5,28,4,1,1,0
1501883085995384,13,-11,-38,-50,-13,-4,-5,1
1501883086002375,-16,2,-5,-31,4,-1,1,-11
1501883086002375,-27,-5,13,5,-6,2,2,-17
1501883086018336,46,-4,-8,-17,-7,-4,-3,47
1501883086018336,0,-3,-3,0,-1,1,-2,8
1501883086019365,-12,-3,4,33,-4,-3,-3,-22
1501883086019365,-17,6,13,-8,8,3,10,-14
1501883086040376,14,6,23,27,1,-4,-4,9
1501883086040376,-2,-12,-70,-48,-18,-5,-6,9
1501883086041379,15,-1,-12,2,-3,-4,-5,-19
1501883086041379,-24,0,32,11,3,4,3,-11
1501883086054402,-27,-3,-8,-9,8,2,-1,-3
1501883086054402,-28,4,22,-14,-4,-4,-5,-31
1501883086070411,10,6,5,10,2,0,7,8
1501883086070411,48,0,-15,13,-14,-8,-9,25
1501883086077377,-12,-9,-2,-10,4,-4,0,-2
1501883086077377,13,13,34,31,11,9,2,5
1501883086085350,-9,-12,-57,-88,-16,-6,-2,-1
1501883086085350,6,-3,1,19,6,1,0,21
1501883086101343,0,-2,0,49,-4,-5,0,-20
1501883086101343,5,1,18,-39,-2,-3,-2,17
1501883086102340,-5,-2,-4,-46,-1,2,8,-45
1501883086102340,28,-5,-11,-6,-9,-7,-6,-22
1501883086114400,-27,-6,-16,16,-7,-6,-2,-69
1501883086114400,-16,12,30,26,10,7,1,5
1501883086122410,7,-2,-10,22,-2,-2,-3,12
1501883086122410,-19,0,0,-9,4,2,5,30
1501883086138347,15,-9,-13,-23,-7,-2,-5,6
1501883086138347,6,-2,-16,18,2,-3,0,2
1501883086139343,-1,2,11,-9,0,4,1,-6
1501883086139343,14,3,14,69,8,0,-3,3
1501883086160343,-4,-3,-17,-92,-9,0,0,45
1501883086160343,1,-4,15,45,4,-4,-6,-42
1501883086161350,-1,8,31,117,8,3,-1,3
1501883086161350,17,-13,-45,-26,-3,-6,-6,13
1501883086174405,-13,6,22,36,-1,3,3,37
1501883086174405,5,-9,-32,-68,-8,-5,-2,-38
1501883086190361,8,3,-8,-17,-2,0,4,-8
1501883086190361,-17,-3,6,-9,8,6,5,-4
1501883086198391,-31,-7,-7,73,8,2,-1,0
1501883086198391,22,1,6,-40,-16,-3,-2,22
1501883086199345,-23,6,24,-11,3,-2,-7,-3
1501883086199345,3,-6,-33,22,0,-3,10,60
1501883086220395,20,2,-1,-5,-6,1,-2,-27
1501883086220395,27,-4,-2,27,5,2,3,26
1501883086221346,-25,2,8,-6,0,1,-2,-21
1501883086221346,-5,-6,-23,-106,-18,-3,-6,8
1501883086234349,-16,-2,17,-31,-1,-3,6,8
1501883086234349,-8,0,-9,30,2,-2,-1,-4
1501883086250389,20,-3,3,18,5,-1,-1,25
1501883086250389,-28,1,21,109,14,5,-4,-32
1501883086258392,8,7,0,-22,-14,-6,-3,5
1501883086258392,11,-17,-29,-83,-18,-6,-5,21
1501883086259359,-47,-10,-4,-43,-5,-2,2,15
1501883086259359,24,5,-5,-21,-3,0,1,11
1501883086280389,25,4,13,15,2,2,-3,-14
1501883086280389,-10,7,20,28,4,-4,-4,13
1501883086281359,1,-3,-25,-69,2,3,-3,-3
1501883086281359,-2,0,33,93,5,0,-4,-22
1501883086294394,-4,-4,6,-31,-1,0,-1,13
1501883086294394,18,-2,-1,21,-14,-5,-1,73
1501883086303384,21,2,3,27,0,-5,2,-12
1501883086303384,-14,9,9,-45,5,3,-8,-36
1501883086317397,13,-7,-31,-2,-3,-2,-1,0
1501883086317397,-29,0,-4,17,4,2,3,-28
1501883086324420,4,-7,-8,6,-4,-5,-2,-15
1501883086324420,20,9,29,-26,13,7,-4,15
1501883086339396,-22,-7,-21,-1,-14,-5,-3,-2
1501883086339396,-9,-5,-2,6,-2,-9,-1,-27
1501883086348367,28,-4,7,34,-3,-1,-2,27
1501883086348367,11,-3,-19,-11,0,-2,-1,-24
1501883086362442,1,-1,-5,12,9,4,2,-3
1501883086362442,3,-1,1,-20,-3,2,-1,7
1501883086379368,4,-1,-8,-58,-6,-1,-6,0
1501883086379368,-15,-5,33,58,-10,-4,8,10
1501883086380367,22,6,-3,12,11,6,2,17
1501883086380367,-16,-3,0,38,8,0,-3,-10
1501883086386356,11,10,29,-12,8,1,0,49
1501883086386356,-38,-7,-23,-28,-21,-10,2,-17
1501883086399424,0,1,16,1,5,6,-5,-7
1501883086399424,35,10,18,-4,0,-4,2,-8
1501883086408360,-28,-6,-10,65,7,5,1,-13
1501883086408360,37,0,-19,-119,-10,0,4,7
1501883086423400,-38,-3,12,34,-3,-9,-8,1
1501883086423400,34,0,-19,-13,3,7,5,17
1501883086425376,-25,5,0,-1,-3,0,5,-35
1501883086425376,17,2,16,-1,2,-1,-5,0
1501883086437380,-8,-5,-18,24,-3,0,2,34
1501883086437380,-12,-5,-13,-47,0,-2,-9,-11
1501883086446361,21,-9,-21,-22,-11,-5,-1,12
1501883086446361,-7,4,9,46,14,1,-3,-3
1501883086460402,5,-7,25,10,-9,-3,-2,24
1501883086460402,-34,3,11,78,10,3,-3,-17
1501883086462361,26,-10,-38,-69,-21,-9,-5,16
1501883086462361,-24,1,4,7,9,3,-6,15
1501883086483404,5,3,-3,32,3,0,5,-21
1501883086483404,0,8,-14,-128,-13,1,1,-2
1501883086484364,-29,-9,17,96,1,-11,-8,-45
1501883086484364,9,-2,-8,-9,-3,8,4,-15
1501883086497384,-15,3,7,-32,1,1,1,-12
1501883086497384,-23,-5,-9,-54,-4,-5,-1,-7
1501883086506365,18,8,15,79,9,-1,-1,-32
1501883086506365,-6,-8,-2,-45,-4,-2,-9,34
1501883086528404,-18,-3,-19,-19,-3,0,11,-41
1501883086528404,41,1,9,3,2,0,5,17
1501883086529365,-16,2,8,36,3,2,-2,1
1501883086529365,-16,-5,-27,-21,-17,-8,-8,2
1501883086551412,-7,-3,14,-11,-12,-2,-1,-14
1501883086551412,-12,1,-5,4,6,4,1,-18
1501883086558435,11,6,9,17,11,11,7,23
1501883086558435,15,-2,0,-84,-13,-11,-9,-58
1501883086559367,-30,-2,-12,-16,-4,-6,-3,0
1501883086559367,-23,-8,-12,26,-6,-7,-6,-11
1501883086564430,6,-3,0,18,-1,-9,-1,-4
1501883086564430,-2,3,0,-8,3,13,4,47
1501883086580431,17,12,30,-31,10,5,-5,-55
1501883086580431,-4,-13,-13,46,-9,-4,-1,0
1501883086582368,-13,1,-20,0,5,6,1,9
1501883086582368,13,2,13,-20,-10,-8,3,-2
1501883086603440,-20,-1,7,2,2,-5,-8,-15
1501883086603440,-15,1,-13,16,4,8,-4,-2
1501883086604369,-23,-8,16,-22,0,0,1,20
1501883086604369,-8,0,-30,-42,-8,-3,-1,-20
1501883086617411,28,-7,-29,-13,-12,-3,-2,6
1501883086617411,-22,-1,15,20,-2,-4,-2,15
1501883086624413,-22,1,-3,-38,-3,0,-8,-62
1501883086624413,5,-1,2,45,2,1,4,11
1501883086640412,28,-1,-4,7,2,-3,8,98
1501883086640412,10,-2,7,8,0,1,-1,-5
1501883086642372,41,1,2,-46,-4,0,-4,25
1501883086642372,-45,-5,-6,85,21,2,-1,-103
1501883086663416,14,-1,-23,-42,-19,-2,-2,17
1501883086663416,3,5,18,-24,-5,-8,-2,-25
1501883086664394,22,4,-1,-14,6,13,12,95
1501883086664394,3,-7,0,63,-3,-7,-2,8
1501883086678385,6,0,-21,-25,4,6,1,2
1501883086678385,-18,-5,8,60,9,-4,-7,-11
1501883086685417,-9,2,0,-73,-14,5,-4,-22
1501883086685417,14,-3,5,-11,2,-2,3,53
1501883086707416,0,1,7,79,6,-3,-4,-66
1501883086707416,11,3,8,-55,-5,3,2,30
1501883086715416,-2,-6,-16,13,6,-9,-4,-17
1501883086715416,-11,0,-3,17,0,-1,2,-22
1501883086723419,8,0,3,-27,-9,0,-4,13
1501883086723419,-4,-2,-6,-25,3,2,-1,-13
1501883086724376,2,-3,-3,43,-1,-4,1,-21
1501883086724376,6,0,-5,-30,-15,-4,-4,5
1501883086745424,3,1,10,34,9,1,-2,7
1501883086745424,3,-2,-9,-16,-4,1,4,-2
1501883086747378,-10,-1,-14,-38,-7,5,3,-2
1501883086747378,2,0,14,53,7,-4,-4,17
1501883086760423,-3,0,3,2,-4,-2,-3,-4
1501883086760423,-9,-2,-1,4,-2,5,-1,-1
1501883086774424,2,-2,2,-1,-3,-9,-2,-4
1501883086774424,0,-3,-5,-9,-6,0,1,-2
