timestamp,emg1,emg2,emg3,emg4,emg5,emg6,emg7,emg8
1501882124496428,-15,-3,-11,-15,7,2,-8,-5
1501882124496428,-10,-3,7,58,-4,-2,6,1
1501882124497432,17,6,-3,-17,9,3,3,-5
1501882124497432,-47,-2,10,-34,-6,-6,6,12
1501882124525458,51,0,-11,-126,-8,-7,-28,-13
1501882124525458,-52,-3,6,33,-14,2,21,-1
1501882124527445,-4,-15,7,57,4,-9,-19,-5
1501882124527445,30,5,-16,38,6,13,30,-9
1501882124532432,52,-14,0,-18,5,-8,-10,20
1501882124532432,10,-1,-47,41,-12,-8,-20,9
1501882124539432,-15,13,-16,-120,-9,5,12,-16
1501882124539432,16,3,2,-108,1,0,2,-3
1501882124555432,-42,5,57,127,12,2,-39,12
1501882124555432,74,-16,25,-44,-3,-3,27,20
1501882124557444,30,14,28,102,6,12,68,61
1501882124557444,18,4,-7,19,10,3,9,-28
1501882124578434,-67,-11,-89,-91,-39,-11,-5,-17
1501882124578434,51,8,56,55,13,2,-16,14
1501882124579434,13,1,34,-18,-2,-4,-13,2
1501882124579434,-49,-14,3,102,5,-3,-22,-7
1501882124591444,0,0,7,37,4,0,24,8
1501882124591444,14,-15,-39,-23,-9,-12,-24,14
1501882124600437,-1,3,-5,-25,4,4,0,-11
1501882124600437,16,-3,0,-37,-19,-10,-16,16
1501882124615439,-6,-1,-18,76,17,1,1,-27
1501882124615439,-47,12,14,-86,5,10,4,5
1501882124617437,-9,-10,9,60,-19,-10,-8,-13
1501882124617437,19,-9,-21,-63,-4,-6,-26,33
1501882124638451,-98,-8,-7,-54,4,8,21,-41
1501882124638451,45,1,-1,27,-9,-3,10,-27
1501882124639437,-3,3,17,105,31,7,0,-21
1501882124639437,39,2,14,-34,-31,-7,-1,55
1501882124651452,106,1,23,2,0,4,18,18
1501882124651452,-70,11,22,19,18,5,-3,-32
1501882124660438,-8,-8,23,38,-11,-8,-22,4
1501882124660438,57,1,-41,17,-2,-1,-5,-11
1501882124677440,-13,-7,39,-16,-3,-8,-1,3
1501882124677440,24,5,-5,40,7,6,18,15
1501882124678440,-17,-4,-31,-76,-13,-4,-22,-14
1501882124678440,-28,13,45,36,12,4,3,-8
1501882124698456,-30,3,0,14,1,4,4,12
1501882124698456,5,-6,-4,39,-2,-1,-12,-26
1501882124699443,-9,18,-1,-92,-2,0,-4,-5
1501882124699443,-9,-23,-27,60,-16,-8,3,-41
1501882124712465,-21,-10,-53,-66,-1,-2,-7,-23
1501882124712465,13,3,-1,41,4,2,19,25
1501882124719445,-16,0,8,63,10,2,-7,-8
1501882124719445,24,7,5,-124,-5,2,2,0
1501882124735457,3,-9,-31,7,-15,-9,-9,15
1501882124735457,22,4,-12,-49,-1,0,2,-26
1501882124737444,4,-16,-29,-1,-1,-6,-5,-9
1501882124737444,-28,2,-16,21,17,4,9,-5
1501882124765449,-5,8,9,-18,-2,6,2,-7
1501882124765449,5,1,13,-16,-15,-9,-23,14
1501882124767446,-18,-12,-34,-97,-6,4,42,-13
1501882124767446,13,6,52,68,-2,-5,5,4
1501882124772447,40,0,-61,-26,4,0,2,20
1501882124772447,-62,-25,-34,-13,-14,-6,-8,-25
1501882124779444,25,14,32,-12,-6,-1,-12,21
1501882124779444,-27,2,9,-40,8,4,1,-8
1501882124795446,24,2,7,3,-6,-2,3,38
1501882124795446,-9,-10,7,110,13,1,-2,34
1501882124797458,-8,0,-15,-12,-1,-5,-21,-21
1501882124797458,-7,-4,-9,-24,-7,2,14,-1
1501882124818447,1,4,28,82,12,1,-8,-3
1501882124818447,-8,1,-12,-128,-9,1,1,3
1501882124819452,35,0,25,84,8,0,-7,6
1501882124819452,-81,-1,-14,-66,-2,-4,-7,-39
1501882124832465,-12,-2,-23,-1,0,-3,-7,1
1501882124832465,7,0,26,-4,-1,0,15,-6
1501882124839466,-46,-8,-14,49,4,6,15,-14
1501882124839466,27,3,-7,-49,-10,-6,-14,-1
1501882124856485,6,9,15,37,9,6,7,-8
1501882124856485,5,4,12,-70,-2,-2,-2,-28
1501882124857450,-52,-1,13,7,-2,-2,-18,12
1501882124857450,-12,-10,-32,36,-5,-3,-4,13
1501882124878452,-10,19,48,-37,3,4,14,-13
1501882124878452,67,-4,-16,52,-3,-4,-3,3
1501882124879451,-24,-9,-14,7,-1,1,-2,-2
1501882124879451,-12,-2,13,52,4,-1,-6,-5
1501882124891451,16,-4,-9,-46,-11,-3,-2,-36
1501882124891451,-29,-3,-14,-58,8,7,1,6
1501882124908453,30,2,3,-6,3,-1,-3,12
1501882124908453,2,0,4,40,-3,1,-2,1
1501882124915456,-22,-1,24,-5,-6,-8,2,14
1501882124915456,13,-12,-49,-18,3,2,-4,1
1501882124917456,19,2,-2,-4,14,7,-19,20
1501882124917456,-14,-3,12,-13,-8,-2,31,-20
1501882124937502,10,2,-9,-1,1,4,1,20
1501882124937502,-29,5,26,65,1,-1,1,-23
1501882124944465,18,-6,1,-75,-29,-11,-2,-1
1501882124944465,-33,-3,-44,11,10,-1,-19,-1
1501882124952509,2,-1,-2,22,8,3,4,13
1501882124952509,-33,0,11,26,8,0,2,-5
1501882124959456,5,-18,-6,26,-6,-9,-6,-7
1501882124959456,47,-3,5,-37,-3,-3,-6,24
1501882124975477,-14,-5,25,83,-6,-1,-4,-10
1501882124975477,-2,20,46,11,10,1,-3,16
1501882124977457,-16,-2,-21,-13,0,2,2,2
1501882124977457,13,-11,30,44,-1,-1,-4,-9
1501882124998500,-9,-1,-11,-47,-3,-3,-5,2
1501882124998500,36,0,-5,29,6,5,1,14
1501882124999483,-12,-3,-17,-47,-10,-3,-4,-10
1501882124999483,21,8,-2,9,8,-1,5,28
1501882125011458,-3,-4,23,-44,-21,-3,-15,-24
1501882125011458,-13,-6,11,3,-10,-3,10,46
1501882125020472,-20,1,-51,-34,-1,-1,-1,-51
1501882125020472,-9,-12,2,-39,5,2,-13,47
1501882125035518,21,-9,-14,37,-9,-7,-6,-37
1501882125035518,1,5,-1,18,-4,-3,4,-8
1501882125037465,11,-6,1,-15,7,2,-8,-2
1501882125037465,1,9,10,4,5,3,8,12
1501882125058462,-2,2,0,76,6,-2,-3,15
1501882125058462,20,0,-19,-89,-7,-4,0,-29
1501882125059461,-9,4,23,69,-2,1,2,-2
1501882125059461,-23,-3,3,-33,-13,-5,-5,-32
1501882125071466,-16,2,29,-2,10,3,7,-1
1501882125071466,-9,2,-14,20,4,-2,-4,5
1501882125080462,18,5,14,-19,4,5,7,20
1501882125080462,-5,-11,-45,-41,-5,-1,-9,-47
1501882125095485,-26,-8,1,7,4,-2,6,5
1501882125095485,51,-2,17,-5,-1,-2,-8,12
1501882125097463,19,7,0,65,9,2,2,16
1501882125097463,-8,3,2,-46,-25,-1,3,6
1501882125118464,11,-5,-26,6,2,-5,-4,26
1501882125118464,-26,1,-2,3,-6,-3,-11,-1
1501882125119464,43,-10,-16,-39,4,1,6,2
1501882125119464,21,11,34,75,7,0,2,-38
1501882125131472,2,-12,-50,-45,0,4,7,1
1501882125131472,-3,-1,-8,24,-10,-4,-4,-23
1501882125140469,-20,8,25,-18,8,-1,-4,-8
1501882125140469,1,-5,-45,-12,1,-6,-3,11
1501882125155486,50,6,-6,-77,-7,1,3,12
1501882125155486,-37,3,19,40,9,3,-2,-12
1501882125157469,-7,-15,-17,-58,-20,-6,-3,31
1501882125157469,-3,-5,7,10,3,-1,-5,-19
1501882125177469,7,7,25,66,9,3,3,0
1501882125177469,-11,-7,-25,-96,3,0,2,-60
1501882125184469,-5,-2,28,67,-17,-10,-8,-9
1501882125184469,24,-2,12,57,-1,0,-1,23
1501882125191476,-15,5,5,10,7,0,-3,-22
1501882125191476,36,0,-1,-42,-6,0,4,39
1501882125200468,-8,-3,-25,-14,6,1,-3,18
1501882125200468,4,4,-9,-8,-3,3,5,-9
1501882125215472,-1,1,11,-7,0,0,-4,7
1501882125215472,-2,7,28,29,2,-2,-1,25
1501882125217472,-40,-12,-38,-8,-10,-7,-12,-69
1501882125217472,-5,-4,5,-7,-2,-6,-11,35
1501882125238474,21,0,-3,18,6,2,0,11
1501882125238474,-31,7,20,46,-8,-1,7,-18
1501882125239472,16,11,-1,72,8,3,10,19
1501882125239472,-7,-20,-9,6,-18,-8,-5,7
1501882125251472,25,3,1,16,-5,-4,-8,-19
1501882125251472,-64,-19,-7,-30,-2,-1,-3,-14
1501882125260474,-5,4,-14,31,6,2,1,11
1501882125260474,-11,14,44,66,10,3,3,-6
1501882125275475,-6,-3,-22,-94,-11,-4,1,12
1501882125275475,5,-9,-23,32,-6,-3,-2,16
1501882125277475,5,6,25,64,15,3,5,4
1501882125277475,-18,-2,-48,-119,-14,-2,-4,-65
1501882125298476,-7,-1,29,87,-11,-3,1,15
1501882125298476,7,-3,24,59,1,-2,-1,3
1501882125299475,-13,-13,-56,-94,-12,0,-1,1
1501882125299475,30,1,8,-9,14,5,4,72
1501882125311480,11,7,23,28,7,2,1,-25
1501882125311480,34,1,-25,8,-9,-7,-3,-8
1501882125320478,-60,-7,16,-19,1,1,-9,-11
1501882125320478,17,-2,-36,98,-4,-1,9,30
1501882125335479,-52,-6,8,-128,-13,-3,-2,-44
1501882125335479,-10,1,15,16,4,-1,-2,-5
1501882125337478,20,4,20,24,-2,-1,2,0
1501882125337478,1,5,0,-9,11,3,-1,-13
1501882125358486,-51,-7,6,31,-8,-5,-5,-4
1501882125358486,53,1,-26,-1,0,1,-1,12
1501882125359478,6,-11,-22,-51,-19,-8,-6,0
1501882125359478,-29,-1,36,35,8,-1,1,-27
1501882125371479,34,7,-22,44,15,4,4,30
1501882125371479,-31,-8,-9,-115,-28,-8,-5,-4
1501882125380481,2,-3,28,48,5,-1,-2,18
1501882125380481,3,-1,2,-61,-7,1,0,3
1501882125395483,2,-9,-34,-40,-5,-4,-3,-6
1501882125395483,-2,-1,0,55,9,0,0,28
1501882125401495,11,12,32,-22,-7,-2,3,1
1501882125401495,1,-3,3,40,9,1,-1,-5
1501882125418482,9,-2,-13,15,2,-2,2,-6
1501882125418482,29,-1,-6,19,11,4,1,20
1501882125419482,-18,6,5,-54,-7,-2,3,2
1501882125419482,-1,-1,-4,11,8,3,-1,-3
1501882125440484,14,6,12,44,5,1,0,1
1501882125440484,-15,-7,-1,12,-5,-2,-3,-8
1501882125442484,12,2,-6,-21,6,2,-2,-75
1501882125442484,-17,-8,-6,2,-7,-3,-1,-20
1501882125455498,-5,-6,-20,-18,-3,-3,-4,13
1501882125455498,-21,3,16,77,8,0,-2,-22
1501882125457485,-28,3,11,-47,-1,-1,-1,9
1501882125457485,14,0,3,11,-9,-8,-3,49
1501882125477486,-1,-3,0,47,10,1,1,-13
1501882125477486,3,-4,-15,-96,-18,-3,-3,10
1501882125485501,25,0,-13,12,1,-1,1,15
1501882125485501,-11,-7,-5,8,4,1,-2,-7
1501882125500488,0,-5,-3,-39,-4,-3,7,29
1501882125500488,-32,0,-14,28,-2,-3,0,-11
1501882125502487,19,-2,9,32,4,-1,-3,1
1501882125502487,-6,-3,-43,-57,-6,-6,-3,-25
1501882125515489,-3,-1,9,3,-1,1,0,0
1501882125515489,6,-1,-8,-7,5,-1,-1,-12
1501882125517492,10,5,13,6,-10,-1,0,2
1501882125517492,16,0,21,-3,4,0,-2,34
1501882125538503,10,-2,-29,64,3,0,-5,-21
1501882125538503,-8,-1,21,-78,-11,1,3,4
1501882125539489,15,-8,-26,8,4,-1,-3,-2
1501882125539489,0,7,16,7,3,2,1,-3
1501882125561492,-4,-6,-18,-51,-4,-1,-3,6
1501882125561492,8,7,24,69,-5,-4,-5,8
1501882125562499,15,-5,-8,-7,4,1,3,26
1501882125562499,-24,2,15,-4,-4,-1,-2,-56
1501882125575493,3,1,1,-3,3,2,-1,-4
1501882125575493,-10,-3,-36,-23,7,-4,-11,-3
1501882125581492,-17,-10,-9,-21,-10,-2,6,29
1501882125581492,1,9,-4,32,-1,0,0,44
1501882125598507,14,-13,-13,-68,-13,-5,0,5
1501882125598507,-19,11,27,20,8,7,5,-26
1501882125599494,-1,-1,-8,42,0,-2,-9,-60
1501882125599494,-13,-4,11,-8,0,2,-2,-9
1501882125620494,-8,4,3,-52,-13,-6,-2,6
1501882125620494,10,-12,-25,-41,-6,2,0,3
1501882125622497,-7,-2,2,15,5,0,-1,9
1501882125622497,-15,2,-7,-28,4,1,1,9
1501882125634511,-13,1,49,78,-1,-5,-5,-43
1501882125634511,10,-5,-31,-24,0,1,2,-1
1501882125641496,-3,7,-7,-13,8,4,3,17
1501882125641496,6,-7,8,-2,-11,-5,-5,-35
1501882125658497,-10,6,20,35,3,0,2,27
1501882125658497,16,4,4,-8,5,-2,2,39
1501882125659499,-16,1,3,1,9,6,-2,-38
1501882125659499,-11,-13,-48,-16,-8,-2,-5,-81
1501882125681497,5,0,-7,-43,-5,-2,4,30
1501882125681497,21,0,23,77,7,0,0,-6
1501882125682500,32,-1,-9,-23,0,-1,1,6
1501882125682500,-6,10,31,7,2,3,1,16
1501882125694499,-37,-12,-19,18,0,-1,-2,-16
1501882125694499,7,-2,-35,14,11,4,4,13
1501882125701513,10,10,53,0,-11,-6,-5,20
1501882125701513,0,-6,-13,3,3,-5,-1,14
1501882125718503,2,-3,-9,-1,-2,1,-2,-11
1501882125718503,-28,10,24,-39,0,-1,0,5
1501882125719500,-10,-14,-45,52,0,-3,2,41
1501882125719500,-1,-1,27,34,-4,-6,1,22
1501882125740514,-45,-1,-14,-1,-5,-1,-4,-21
1501882125740514,-12,1,25,0,0,-8,-5,-12
1501882125742502,-2,3,-20,26,-5,3,-1,0
1501882125742502,11,-6,-9,-105,-20,0,0,-12
1501882125754517,11,-2,-5,-20,0,-1,-3,17
1501882125754517,16,-1,13,82,0,4,1,-1
1501882125762513,-19,0,11,31,0,-8,0,-25
1501882125762513,19,6,8,47,8,1,0,28
1501882125778505,-10,-5,-3,-8,-2,0,-9,-62
1501882125778505,1,-3,0,-27,1,2,4,-34
1501882125779503,-3,-3,-10,-21,-8,-5,-3,17
1501882125779503,8,-1,5,-38,-10,-5,-4,-8
1501882125800519,59,6,12,53,6,1,6,42
1501882125800519,-11,-3,-21,-84,-6,1,3,25
1501882125802505,2,-6,2,-12,3,2,1,-11
1501882125802505,8,-5,-19,33,5,0,-4,13
1501882125814506,-20,3,-16,7,-8,-4,-3,-30
1501882125814506,3,-4,0,10,-6,-3,-4,-4
1501882125821511,8,1,34,-1,6,1,-1,32
1501882125821511,-2,1,-7,-27,4,-3,0,4
1501882125838566,19,-3,14,45,11,7,3,15
1501882125838566,3,-8,-29,31,-16,-7,-5,33
1501882125839507,-25,5,5,-3,-1,-1,-3,-51
1501882125839507,-9,-7,-25,-16,2,0,-1,-1
1501882125860513,10,6,13,13,2,-1,-1,6
1501882125860513,-12,-1,-2,-14,1,0,-2,-4
1501882125862511,6,-4,8,0,-5,-5,4,11
1501882125862511,-2,1,10,34,7,5,3,27
1501882125874510,-7,0,-9,26,4,-2,-6,-12
1501882125874510,5,-6,-25,-106,-5,-1,-1,-7
1501882125881510,-5,3,9,24,0,0,2,-13
1501882125881510,-32,-2,-7,23,-5,-7,-15,-58
1501882125898556,-4,-2,1,-25,-7,-4,9,0
1501882125898556,17,2,1,73,12,8,0,-7
1501882125899510,-1,-3,-22,-46,-9,-1,-1,-15
1501882125899510,21,8,23,10,4,2,-3,14
1501882125920530,-18,-18,-16,-24,-3,0,-2,3
1501882125920530,-4,-1,18,42,-4,-7,-3,-11
1501882125922511,11,0,-2,-75,-1,4,1,11
1501882125922511,29,5,-1,60,-1,3,4,-1
1501882125934554,-35,-6,-21,-24,-10,-9,-8,-4
1501882125934554,-1,4,5,2,2,2,5,4
1501882125943516,-8,-3,-5,-9,-3,-4,-6,9
1501882125943516,7,-3,11,-6,-5,-2,3,22
1501882125958515,21,4,12,-10,8,6,2,2
1501882125958515,-27,-3,-3,23,4,-1,-1,-30
1501882125959513,25,1,6,-26,-12,-5,-10,79
1501882125959513,-1,1,-1,-31,-3,-4,1,-5
1501882125980515,5,1,-2,-7,-2,2,3,6
1501882125980515,-4,0,16,-4,-1,0,-1,-14
1501882125982518,-11,3,19,64,8,3,1,0
1501882125982518,-2,-2,-49,-9,0,2,3,0
1501882125994516,-25,1,48,-12,-3,-2,-5,12
1501882125994516,18,-2,-36,-27,0,-2,-1,1
1501882126003517,6,0,6,95,11,1,0,-15
1501882126003517,-23,3,-11,-95,-9,-1,-1,-20
1501882126018539,11,-1,-1,-36,-7,-5,-9,-42
1501882126018539,-13,-8,-8,22,-1,-1,1,6
1501882126019517,21,0,0,-10,1,0,2,-25
1501882126019517,23,2,18,45,1,-2,-2,17
1501882126040557,7,-2,-19,-21,-7,-4,1,33
1501882126040557,-4,6,36,8,-1,-6,-5,12
1501882126042535,-15,-8,-51,-59,-5,2,-4,-55
1501882126042535,-10,-3,16,65,10,5,4,1
1501882126054561,25,-1,-7,-18,-7,-2,0,25
1501882126054561,-9,-2,0,-38,-2,-3,-5,-41
1501882126063520,-13,5,21,28,-4,0,-1,2
1501882126063520,37,-9,-25,-92,-17,-8,0,34
1501882126078539,-17,6,21,72,10,7,5,-13
1501882126078539,-3,-12,-40,-17,-1,-2,-2,-4
1501882126079523,2,10,28,10,3,-1,0,8
1501882126079523,-4,-9,-2,13,-3,-3,-8,-2
1501882126100586,6,-1,-25,-16,5,-1,-1,12
1501882126100586,-8,4,37,11,-2,-1,0,10
1501882126102556,-19,-2,-9,21,-4,2,1,-16
1501882126102556,1,-10,-14,59,11,0,0,1
1501882126114526,14,5,-4,-55,-5,-1,-1,0
1501882126114526,-38,0,20,57,7,1,0,-15
1501882126123530,39,-4,-50,-111,-18,-4,0,13
1501882126123530,-12,10,65,-9,-11,-7,-4,-27
1501882126138529,8,-11,-33,87,6,1,1,10
1501882126138529,-3,2,0,4,-6,0,2,2
1501882126139527,-7,5,25,15,10,0,-1,-6
1501882126139527,-19,-4,-30,-20,9,6,4,-4
1501882126160529,1,1,16,-15,-14,-10,-5,0
1501882126160529,22,-6,-27,-22,-4,1,-1,13
1501882126162540,-18,-3,-9,15,4,2,1,-14
1501882126162540,0,6,6,-8,2,4,1,-22
1501882126174527,-19,-8,7,3,-1,-4,-5,-57
1501882126174527,15,-2,-10,37,10,4,-2,10
1501882126183527,-39,-5,-19,-106,-19,-7,-4,-15
1501882126183527,1,-6,24,53,1,-2,-1,17
1501882126198549,-1,5,-28,-9,2,-3,0,-1
1501882126198549,-15,-6,-10,-39,-11,-9,-5,3
1501882126199527,66,3,5,39,10,3,1,36
1501882126199527,-28,-4,-7,30,4,0,-1,-3
1501882126220534,-12,16,60,-35,0,3,2,10
1501882126220534,12,-7,-16,6,-1,-1,-2,13
1501882126222529,-9,-9,4,-9,-4,-6,-10,-53
1501882126222529,18,-3,2,25,-5,-2,2,9
1501882126234533,21,-2,-26,68,13,5,0,24
1501882126234533,16,10,27,-41,-3,-3,2,-5
1501882126243531,-20,-2,14,15,-1,1,-1,21
1501882126243531,-1,-3,-10,-15,-2,-4,0,16
1501882126258532,-1,-1,-13,-6,0,1,-8,-24
1501882126258532,-10,-1,8,-23,-3,1,-2,-28
1501882126259532,10,-1,-5,11,-15,-13,-1,17
1501882126259532,2,4,3,-47,-3,9,2,14
1501882126280538,-21,-8,-22,5,0,5,0,-6
1501882126280538,18,2,11,26,-5,-4,-4,15
1501882126286533,-3,-5,-17,13,3,-3,-4,14
1501882126286533,-22,-5,-2,4,-2,-6,-3,-2
1501882126294537,6,3,15,-25,-3,-1,2,39
1501882126294537,-2,-3,3,45,3,4,-3,-61
1501882126303534,-7,-2,-25,-102,-4,2,2,-3
1501882126303534,46,3,21,53,8,-1,0,73
1501882126318534,-21,7,22,-50,-13,2,7,-20
1501882126318534,-23,-10,-27,2,-4,-4,1,14
1501882126319535,-13,-3,28,6,0,-2,-3,13
1501882126319535,36,9,-14,24,2,-2,9,8
1501882126340550,-17,-10,-11,-2,4,-1,-4,-10
1501882126340550,15,-1,-7,-21,-3,0,3,13
1501882126342538,-10,0,-20,-11,0,1,3,-5
1501882126342538,-4,1,17,6,0,-2,-3,-27
1501882126354550,1,2,3,24,6,-1,-2,-7
1501882126354550,6,4,-1,-17,-2,0,-3,3
1501882126363542,-8,-3,5,38,-3,0,1,38
1501882126363542,3,-5,-37,-73,-10,1,3,-44
1501882126378539,-46,-3,18,-24,-6,-4,-4,-6
1501882126378539,-1,-3,-9,-2,-3,-10,-5,13
1501882126379538,17,3,22,53,10,7,2,-2
1501882126379538,-16,4,-2,8,1,0,-5,-27
1501882126400554,22,-7,-3,-3,-3,2,4,12
1501882126400554,0,2,5,-12,0,-2,0,12
1501882126402542,-18,2,12,13,7,0,-1,-35
1501882126402542,4,-4,-5,-16,-1,0,-3,17
1501882126423540,9,0,26,84,-5,-7,-4,1
1501882126423540,-4,-7,-54,-91,-14,-3,0,0
1501882126424542,4,-2,-11,18,1,-1,1,10
1501882126424542,-28,-1,-3,-5,4,3,-1,-70
1501882126438544,9,-3,-22,22,3,-3,-4,6
1501882126438544,3,2,40,21,-3,0,-1,6
1501882126440543,13,3,-4,-35,-3,3,-6,-10
1501882126440543,-13,-9,-24,46,-1,-1,0,8
1501882126460544,-19,-3,-11,-4,5,-1,-1,-2
1501882126460544,-27,-3,27,6,-6,-2,-3,-1
1501882126462552,-7,-1,-13,0,7,2,1,-3
1501882126462552,12,5,7,30,-9,-3,-2,4
1501882126483544,14,-12,-38,-111,-14,-6,-3,4
1501882126483544,4,0,8,71,6,1,0,9
1501882126484545,-8,0,15,-26,3,2,1,23
1501882126484545,-7,-2,-16,-1,2,1,3,-30
1501882126498544,-21,0,12,71,3,-5,0,-8
1501882126498544,-17,6,10,-7,6,6,0,-37
1501882126499547,28,-6,-31,25,-1,-2,-4,0
1501882126499547,-3,-2,-1,-75,-1,-1,-3,8
1501882126520549,7,2,11,-34,-3,5,4,-9
1501882126520549,16,3,9,43,4,-1,0,2
1501882126522546,-28,-1,13,7,-5,-3,-2,-21
1501882126522546,2,-6,5,4,4,-2,-2,-13
1501882126543547,7,7,-6,25,3,-1,0,4
1501882126543547,-3,-10,-9,-41,-6,-2,1,17
1501882126544548,6,3,4,30,2,0,-4,-8
1501882126544548,-9,-1,7,-35,-6,-4,-3,13
1501882126556563,-28,1,17,40,5,2,-4,-7
1501882126556563,11,-6,-41,27,-5,-3,-2,-11
1501882126573550,9,-2,0,-36,0,0,4,-9
1501882126573550,-21,-8,-40,0,-11,-4,-5,1
1501882126580550,19,8,21,22,5,2,0,-41
1501882126580550,12,-6,-8,-38,-2,-3,-1,30
1501882126582551,-10,-3,-10,-6,-2,-3,-4,-28
1501882126582551,25,8,5,26,10,3,1,8
1501882126603551,-12,-10,-9,-28,-3,0,0,-10
1501882126603551,5,1,2,44,2,1,1,4
1501882126604553,0,-5,-9,-10,-5,-3,-1,4
1501882126604553,-1,3,13,9,3,0,-1,21
1501882126617552,10,-4,11,13,-13,-3,-1,3
1501882126617552,-8,2,-7,-42,1,0,0,-11
1501882126624553,-8,-2,4,6,-7,-5,-5,21
1501882126624553,5,0,2,13,0,1,-1,2
1501882126640566,4,-5,-14,-3,5,-1,-1,24
1501882126640566,4,-3,5,9,-2,-3,-3,-17
1501882126642555,-3,0,-19,-29,-1,4,4,1
1501882126642555,-8,-2,23,13,-5,-7,-7,-7
1501882126663563,24,5,12,-19,-1,-1,2,17
1501882126663563,8,5,0,29,8,1,0,-8
1501882126664556,4,-1,-26,-23,-19,-3,-3,9
1501882126664556,-19,-1,11,-31,-4,0,2,-9
1501882126677555,8,-2,-7,-23,0,2,-1,10
1501882126677555,-29,0,1,11,5,-1,-1,-8
1501882126684557,25,-3,16,39,8,1,2,25
1501882126684557,-14,5,23,-27,-3,-3,0,-19
1501882126699571,-1,-1,-35,87,6,2,0,1
1501882126699571,4,-1,-11,-91,-13,-1,0,14
1501882126708558,-6,-3,29,27,-9,-10,-4,-3
1501882126708558,-8,-7,-18,0,6,-3,-2,5
1501882126722559,-29,3,0,-60,0,8,0,-16
1501882126722559,40,-6,-11,14,-12,-5,-4,16
1501882126730559,-13,5,11,13,8,0,0,-12
1501882126730559,0,-2,1,-5,-6,-5,-5,-7
1501882126737574,7,-1,-16,-13,1,-4,3,5
1501882126737574,0,7,14,-11,-2,2,0,3
1501882126744561,2,2,4,-16,1,-1,-2,-16
1501882126744561,3,-2,-3,78,2,-3,-1,14
1501882126760561,8,-2,-11,-43,-7,-3,-1,12
1501882126760561,-13,1,-3,0,2,2,0,-7
1501882126762570,15,0,-5,12,7,1,-1,-4
1501882126762570,-15,3,3,-28,-1,2,2,-5
1501882126783566,-20,-6,2,24,-1,-1,-1,19
1501882126783566,-19,-6,24,11,-11,-10,-7,-57
1501882126784562,12,4,-12,47,4,5,8,18
1501882126784562,-2,-6,-33,-109,-11,-2,-1,-1
1501882126797579,10,2,15,28,-3,-4,-2,7
1501882126797579,-20,0,5,-12,7,2,0,5
1501882126804578,3,-5,3,32,4,-1,-1,1
1501882126804578,13,0,-12,15,-2,3,1,2
1501882126820564,1,-6,-3,4,-6,-8,-5,-11
1501882126820564,-7,8,17,63,15,3,1,-9
1501882126822564,-15,-2,-1,-75,-15,-5,-3,-8
1501882126822564,-6,-4,4,26,5,2,0,7
1501882126843566,3,3,3,-14,5,2,-1,-18
1501882126843566,-9,2,-5,13,-11,-4,-2,3
1501882126844566,-14,3,20,-13,3,-1,1,13
1501882126844566,17,-8,-19,3,-2,-5,-4,-9
1501882126856606,-16,-2,-11,-11,0,1,2,4
1501882126856606,13,2,13,-3,3,3,-1,11
1501882126865566,-18,-2,7,53,7,-2,-1,-41
1501882126865566,-27,-1,10,-7,-4,-2,-2,-4
1501882126880568,17,-10,-20,-38,-7,-3,-1,7
1501882126880568,0,5,14,28,-7,1,2,-56
1501882126882575,12,8,24,-8,0,-2,-4,9
1501882126882575,-5,-4,10,33,9,3,3,24
1501882126903579,-5,-3,-10,-1,-7,-4,-1,-17
1501882126903579,5,-2,-4,-45,-6,-5,-4,29
1501882126904570,1,-3,-17,4,1,-1,0,4
1501882126904570,7,7,17,56,8,3,1,-13
1501882126916569,18,-9,-32,-86,-9,-3,-1,23
1501882126916569,-5,-2,4,28,-3,2,2,17
1501882126925571,9,-13,-9,-21,-6,-5,-3,2
1501882126925571,5,6,32,28,6,1,1,15
1501882126940577,6,5,2,1,2,1,0,12
1501882126940577,-22,-8,-25,-39,0,0,-3,-20
1501882126942596,-47,-3,-10,35,5,0,-5,-20
1501882126942596,27,4,-3,-31,-7,0,4,42
1501882126963583,-11,4,-2,4,1,-2,1,-17
1501882126963583,14,-2,21,54,6,1,-2,11
1501882126964572,2,3,-4,-9,-2,1,-1,-2
1501882126964572,-1,-6,-32,-65,-13,-8,-6,-3
1501882126976573,-1,2,48,43,1,-2,0,-4
1501882126976573,9,-1,-33,-30,17,6,3,22
1501882126985575,0,-3,10,42,-4,-2,-2,-17
1501882126985575,-2,-2,-5,-5,-6,-5,-4,-4
1501882127000574,11,5,18,14,-5,-2,-1,0
1501882127000574,17,-2,-13,-38,8,3,0,-1
1501882127002575,-1,-5,16,10,-5,-6,-2,-2
1501882127002575,-21,-2,-20,-7,-4,-2,-4,-20
1501882127023576,-4,2,10,111,10,0,-5,-11
1501882127023576,11,1,2,-95,-14,-3,0,12
1501882127024576,10,-3,-17,1,-1,0,-1,0
1501882127024576,-10,-2,-1,31,2,2,-1,5
1501882127036611,-4,-1,2,-20,0,0,1,-2
1501882127036611,-6,-2,22,38,2,0,0,10
1501882127045579,-7,-7,-33,-33,3,1,0,-14
1501882127045579,3,-3,21,33,-7,-3,-4,-22
1501882127060579,9,-1,-5,-37,1,-1,-1,18
1501882127060579,-10,-2,-22,11,5,-2,-2,-8
1501882127062581,-1,-8,8,-37,-4,-2,-2,-10
1501882127062581,3,3,12,48,6,0,-1,-2
1501882127083582,-7,-4,-16,-77,-6,2,1,1
1501882127083582,-1,-2,-4,-3,-12,-5,-3,7
1501882127084580,17,5,2,-8,3,1,2,9
1501882127084580,10,-7,-12,-19,5,2,1,21
1501882127096585,5,2,2,42,2,5,-2,-11
1501882127096585,-1,-2,4,37,3,-1,-2,0
1501882127105593,-10,-3,-23,-31,-3,-2,-2,-11
1501882127105593,4,-1,-25,-12,-1,-2,-2,-11
1501882127120598,19,3,2,-31,-14,-3,-4,0
1501882127120598,-30,-11,-25,-35,-4,0,1,-19
1501882127122581,-14,-1,7,2,-11,-2,-1,18
1501882127122581,-5,-4,-16,-3,-5,-2,-2,-22
1501882127143583,-17,-1,-3,12,6,0,0,-5
1501882127143583,9,5,11,32,-3,-4,-2,4
1501882127144583,23,-2,-15,-19,1,-1,-1,15
1501882127144583,-18,6,29,-12,2,1,-1,-14
1501882127156586,-6,-4,-1,1,-1,-1,1,-2
1501882127156586,8,-2,-14,26,1,-6,-3,0
1501882127165586,-26,2,7,-12,2,4,1,40
1501882127165586,8,2,-21,-39,-8,-1,0,12
1501882127180605,-2,0,21,22,-2,-5,-3,-5
1501882127180605,6,-1,4,-36,-3,0,0,-8
1501882127182587,14,3,3,76,8,-1,-1,9
1501882127182587,-6,0,5,-11,0,1,4,-20
1501882127202586,-3,-2,-2,59,-1,-3,-4,4
1501882127202586,4,7,11,-18,3,3,3,-6
1501882127209591,-7,-9,-13,-39,-7,-2,-3,-9
1501882127209591,12,4,5,-1,-2,-3,-1,2
1501882127216587,14,-7,2,3,-7,-1,-3,-16
1501882127216587,-2,-3,-18,-21,2,-1,-2,-5
1501882127225589,-1,5,16,35,2,1,0,-9
1501882127225589,1,-4,-14,-20,-2,-3,-2,10
1501882127240590,0,-5,-1,16,2,0,0,-1
1501882127240590,4,-1,2,-4,-6,-3,-5,14
1501882127242588,13,-1,16,11,-1,-1,8,45
1501882127242588,-10,-5,-17,-34,-5,-2,-5,14
1501882127262599,1,7,27,2,10,0,1,4
1501882127262599,-12,-2,-8,35,-4,0,-1,-14
1501882127264590,-4,-3,2,41,8,1,0,-30
1501882127264590,13,-6,5,-23,-17,-4,-5,3
1501882127276593,7,4,-11,-11,6,2,0,-14
1501882127276593,7,-1,1,-15,0,0,-1,33
1501882127285594,11,-1,-26,-16,-8,-2,-1,-13
1501882127285594,-16,0,24,48,3,-3,-1,-2
1501882127300591,-14,-4,-18,19,3,2,-3,-29
1501882127300591,-4,-4,-9,-81,-3,-2,0,-6
1501882127302592,-4,6,7,14,-11,-4,-4,-9
1501882127302592,5,-7,-18,5,8,6,1,-9
1501882127322593,-16,-5,-16,-31,-7,-3,0,26
1501882127322593,7,8,14,47,12,3,1,-2
1501882127324598,15,-2,26,3,-2,-2,-1,5
1501882127324598,-27,2,-16,3,-2,-4,-1,-34
1501882127345595,-2,-3,-8,-17,0,-4,0,6
1501882127345595,0,-4,-7,26,0,1,2,12
1501882127348605,-3,3,3,-21,3,-2,-5,-61
1501882127348605,-9,3,40,23,4,-3,-2,6
1501882127360601,-12,1,9,-29,-3,-2,-2,2
1501882127360601,8,-4,-13,36,-6,-2,-2,-19
1501882127362601,-10,2,-21,-70,1,2,0,7
1501882127362601,31,-7,4,40,5,0,1,16
1501882127383598,-5,3,10,27,-1,3,2,-11
1501882127383598,-2,0,10,6,-3,-2,2,32
1501882127384604,-9,1,-7,-2,1,-1,-3,-61
1501882127384604,-1,-3,-22,-12,-2,0,0,-7
1501882127405612,5,0,-8,-36,-8,-3,-3,19
1501882127405612,-27,-6,-15,67,8,0,-5,-22
1501882127407599,-10,3,22,-46,-5,1,1,17
1501882127407599,-6,4,10,-17,-6,-4,-3,8
1501882127420599,2,-2,15,21,0,-1,-1,-6
1501882127420599,7,1,-11,-41,1,4,3,14
1501882127422601,-13,-9,-1,41,-6,-9,-6,-1
1501882127422601,-7,3,18,-7,1,0,1,5
1501882127442600,-5,-6,-16,-19,-7,-1,-3,38
1501882127442600,9,3,-3,11,4,2,1,-11
1501882127444604,2,-1,23,13,-5,-2,-2,17
1501882127444604,5,-4,-13,-10,0,-3,0,-23
1501882127465622,0,-1,0,10,1,-5,-4,-6
1501882127465622,3,6,39,3,-7,0,0,17
1501882127471607,2,-2,-37,-65,-8,0,2,8
1501882127471607,1,-3,14,14,-6,0,1,23
1501882127480625,9,1,-36,26,12,5,4,-3
1501882127480625,-7,-7,-3,-79,-9,-6,-5,-10
1501882127486644,14,6,6,43,6,0,-2,-11
1501882127486644,-17,0,-7,30,4,2,0,8
1501882127502623,-11,0,13,-67,-8,-3,0,-21
1501882127502623,8,-3,-23,22,2,0,2,15
1501882127504608,12,-8,4,55,5,1,-1,16
1501882127504608,14,7,4,-81,-1,1,-1,8
1501882127525625,-2,-6,6,47,-3,-6,-4,-14
1501882127525625,-5,4,24,14,-4,-5,-3,4
1501882127527606,-15,-4,-19,-14,5,4,1,-1
1501882127527606,-2,0,10,-26,-4,-1,-3,-21
1501882127539653,5,-4,-16,23,6,0,-1,7
1501882127539653,3,-9,-10,-38,-9,-3,-2,-8
1501882127546607,-6,11,9,61,6,-1,-1,5
1501882127546607,-3,-11,3,-64,-8,2,2,-9
1501882127562612,7,-1,-5,25,3,1,0,18
1501882127562612,-13,5,7,-45,-2,0,-1,-20
1501882127564608,1,-10,-22,-8,-2,-2,-3,1
1501882127564608,35,6,6,72,7,-1,2,45
1501882127585647,-27,-5,-6,-23,-14,-6,-2,-5
1501882127585647,20,0,4,10,3,2,-2,-42
1501882127587645,15,5,37,-41,-2,-1,3,11
1501882127587645,-8,-2,-72,28,-3,-2,-3,-35
1501882127599615,2,3,38,9,4,0,1,8
1501882127599615,-15,-2,-2,35,-4,-3,-4,0
1501882127614609,-12,-3,-3,-70,-3,3,1,0
1501882127614609,-21,-7,-12,-3,-15,-3,-5,-67
1501882127622613,14,8,-11,12,4,0,2,0
1501882127622613,-6,-10,-17,5,-1,0,0,-6
1501882127624614,-38,-5,-2,27,-1,-1,-4,-17
1501882127624614,12,1,14,5,11,6,1,25
1501882127646612,1,-3,-23,-69,-12,-1,-4,-8
1501882127646612,-1,-1,5,23,-3,-2,-2,8
1501882127647616,1,0,-16,5,0,-4,-1,1
1501882127647616,4,-1,9,11,3,3,-2,26
1501882127659630,-15,-6,-8,0,2,-5,1,19
1501882127659630,12,8,30,-66,-8,5,2,2
1501882127666634,2,-7,-58,-7,-1,-2,-2,-4
1501882127666634,-4,1,20,11,2,-2,-2,0
1501882127683614,-2,1,20,43,-2,-2,-1,-2
1501882127683614,-16,0,11,-2,1,-2,-1,4
1501882127684621,4,-8,-40,-15,-1,1,-1,19
1501882127684621,-4,7,51,-5,-2,2,2,4
1501882127705678,7,-3,-7,1,2,-1,-3,3
1501882127705678,8,3,-13,31,2,-3,-1,27
1501882127707616,-7,8,6,-47,-7,2,2,-30
1501882127707616,3,-10,4,52,0,-5,-2,4
1501882127719639,-7,4,5,-8,5,0,-1,-21
1501882127719639,-1,-3,-28,41,5,-1,-1,3
1501882127726617,6,8,43,23,7,3,1,19
1501882127726617,-35,-4,-31,-15,-14,-6,-1,14
1501882127742619,23,-1,9,-66,-13,-4,2,24
1501882127742619,5,-1,4,3,2,-1,-6,-29
1501882127750638,0,1,7,36,-2,-4,-3,-8
1501882127750638,6,2,-2,-41,1,2,1,-8
1501882127765620,-12,-8,3,36,-5,-3,-3,1
1501882127765620,-3,-4,-16,8,8,1,-1,13
1501882127771623,9,1,11,-42,-14,-3,-2,3
1501882127771623,9,0,0,16,4,-7,-3,-14
1501882127779626,-4,-4,-19,20,4,1,-4,-14
1501882127779626,1,-2,13,-11,-3,-2,0,-1
1501882127786659,-9,-3,0,-14,1,1,2,-7
1501882127786659,2,-3,-8,45,3,-3,0,18
1501882127803633,-4,-3,-12,-49,-7,2,-3,-35
1501882127803633,-13,-5,-7,-13,-4,-1,0,0
1501882127804621,-7,1,14,67,9,-3,-3,-53
1501882127804621,-11,3,4,-34,-1,3,2,-4
1501882127825644,4,3,3,-9,-2,-2,-3,-6
1501882127825644,-7,-2,-1,-31,-5,-1,1,1
1501882127827650,12,-1,-2,1,-4,-2,-1,15
1501882127827650,5,-4,-21,22,0,-3,-2,-1
1501882127839646,-13,5,20,8,3,-2,2,-10
1501882127839646,7,-1,0,2,-1,2,1,-2
1501882127848670,-7,-3,-3,-16,6,2,0,24
1501882127848670,-6,2,1,6,-6,-4,-4,16
1501882127862627,2,-4,2,3,5,0,1,12
1501882127862627,-3,-1,-10,-43,-9,-3,-3,-27
1501882127864625,2,0,-13,33,-3,-2,0,12
1501882127864625,8,-8,2,-10,-9,-5,-5,-7
1501882127885665,12,-3,-5,20,3,0,-2,12
1501882127885665,-14,4,23,18,3,-2,-1,-3
1501882127887648,20,-2,-20,9,5,1,-2,14
1501882127887648,-8,2,-7,-19,-4,0,3,-8
1501882127899690,-5,-2,-22,11,-6,-6,-4,-10
1501882127899690,-15,-5,6,27,3,-4,-3,-5
1501882127908631,17,-4,-17,-21,-5,1,-2,6
1501882127908631,-14,1,11,27,6,-1,-2,-12
1501882127922630,3,6,12,-81,-11,3,0,16
1501882127922630,15,-3,2,-27,-3,1,2,14
1501882127924631,4,-6,-9,-1,-2,-6,-3,-2
1501882127924631,13,3,-10,2,3,-1,0,10
1501882127945631,-6,-5,-18,-11,-2,3,2,-18
1501882127945631,6,6,3,13,-1,-2,-2,11
1501882127948651,-12,-6,19,-5,-6,-2,0,15
1501882127948651,-1,-3,-34,-35,-5,-3,-2,-7
1501882127959634,14,-1,15,16,1,-2,0,-22
1501882127959634,-5,-2,-34,-12,-2,1,0,11
1501882127968635,5,1,28,26,1,-2,-1,-6
1501882127968635,-42,-1,6,-46,1,1,-2,-44
1501882127982633,-26,2,26,98,0,-4,-2,4
1501882127982633,14,-1,1,27,-2,0,-1,-18
1501882127984634,13,-2,-16,-13,0,-2,-1,-2
1501882127984634,19,-3,-12,-37,-5,-1,-2,18
1501882128005670,1,0,1,-10,1,3,2,0
1501882128005670,0,1,14,-14,1,-4,-3,2
1501882128007639,-10,1,-30,25,1,-2,-2,6
1501882128007639,9,-2,16,-25,-5,4,2,-4
1501882128019636,10,-1,17,23,7,2,2,19
1501882128019636,6,1,-1,11,3,-1,-1,14
1501882128028636,6,-9,-35,-27,-17,-7,-5,9
1501882128028636,-17,2,9,11,2,-2,0,-10
1501882128042656,-28,-6,-12,-60,-8,-3,-4,-6
1501882128042656,14,2,13,28,-5,-2,1,3
1501882128044635,-12,-2,-10,-38,0,2,1,8
1501882128044635,11,1,15,43,7,0,1,12
1501882128065649,1,1,-10,-16,-2,0,-1,-1
1501882128065649,-11,-4,-16,5,4,1,0,-4
1501882128067637,-25,7,35,41,-1,-3,-3,-21
1501882128067637,23,-10,-54,-46,-16,3,1,19
1501882128079640,-10,3,22,11,0,-4,-4,-14
1501882128079640,-5,-6,-18,-26,-3,-1,-2,3
1501882128088639,-3,3,7,-1,4,1,1,5
1501882128088639,5,-2,6,27,4,-1,0,-25
1501882128102700,-4,-1,-18,-15,-1,1,-1,-28
1501882128102700,4,-3,-6,1,-4,-3,0,-2
1501882128104639,-1,2,9,0,3,0,2,3
1501882128104639,-3,-1,17,-4,-2,-1,-3,3
1501882128125641,-13,0,-3,41,1,-1,0,5
1501882128125641,7,1,7,-29,2,0,0,-7
1501882128127640,-3,-4,-3,23,-1,0,-1,-9
1501882128127640,-8,3,6,-23,7,2,1,-6
1501882128139676,13,-4,-4,18,-3,0,-2,-2
1501882128139676,-37,2,3,21,7,2,2,3
1501882128148643,19,9,18,-41,-6,0,-1,4
1501882128148643,1,-3,-5,39,-1,-4,-4,3
1501882128162652,15,-5,-19,-34,-6,-3,-1,23
1501882128162652,-21,2,-1,33,10,1,0,-10
1501882128164643,-11,-1,18,-30,-6,-1,0,-8
1501882128164643,1,4,20,21,0,-3,0,-1
1501882128185646,11,2,-7,21,3,-1,1,15
1501882128185646,-4,-9,-25,-16,-8,-5,-5,-20
1501882128187647,3,-3,4,9,2,3,1,10
1501882128187647,8,3,1,-18,0,0,-1,11
1501882128199645,-62,-13,13,12,-2,-4,-6,-71
1501882128199645,31,4,-7,-5,-1,0,0,11
1501882128208646,-11,-10,-24,3,-4,-1,-1,-4
1501882128208646,-26,0,4,23,9,2,2,-26
1501882128222648,6,9,-24,-53,-1,0,-1,10
1501882128222648,17,-1,25,26,-8,-4,-3,-1
1501882128229651,-20,-8,-6,16,9,1,-2,-16
1501882128229651,-11,-3,-4,-69,-15,-3,-2,25
1501882128245649,19,3,-5,31,2,2,2,14
1501882128245649,-17,2,24,-10,0,-3,-1,-7
1501882128247648,22,-3,-26,-23,-8,-6,-5,28
1501882128247648,-3,0,6,8,3,0,2,1
1501882128267651,3,4,49,64,0,-3,-4,6
1501882128267651,10,-6,-33,17,0,-2,-1,2
1501882128268649,0,-3,-10,-22,-5,1,-1,9
1501882128268649,6,2,-7,-6,3,-1,-2,22
1501882128282651,14,-1,-17,-15,-4,-3,-1,4
1501882128282651,0,-5,7,41,1,1,0,2
1501882128283650,1,6,11,-54,-1,1,2,-4
1501882128283650,-29,-6,2,8,-1,1,-1,-32
1501882128304650,-4,-2,-17,-35,-2,0,2,12
1501882128304650,-1,1,-3,10,0,-2,-2,-1
1501882128305650,-1,8,23,12,7,2,3,-7
1501882128305650,24,-9,-23,27,1,-3,-4,9
1501882128327653,-3,2,14,6,-2,0,3,-6
1501882128327653,22,1,11,-38,-8,0,-1,-6
1501882128328652,-37,1,-1,64,11,-1,-2,-18
1501882128328652,2,-5,-12,-72,-15,-4,-4,-2
1501882128342655,18,-2,-19,16,4,-1,-2,4
1501882128342655,3,4,11,-46,-14,2,4,7
1501882128343653,13,-5,-4,7,-3,-4,-4,-6
1501882128343653,-8,1,2,6,6,3,0,-14
1501882128364659,0,-4,-3,11,2,0,-2,-1
1501882128364659,-8,-4,-5,5,1,0,-1,-2
1501882128365655,-2,5,2,9,3,1,0,3
1501882128365655,-11,0,5,-14,-9,-3,-2,-1
1501882128387670,8,-1,4,-47,-1,-3,-1,5
1501882128387670,24,-1,-5,15,4,1,1,-9
1501882128387670,-4,-2,-9,-18,-1,-1,-1,-15
1501882128387670,16,2,10,32,-4,-2,-3,5
1501882128402671,-2,1,14,-21,-3,2,2,1
1501882128402671,-18,-8,-8,15,-7,-9,-4,20
1501882128403659,5,-2,-16,66,3,1,-1,-11
1501882128403659,-9,3,7,-31,-3,-1,-2,-4
1501882128424659,0,1,14,-18,-2,-2,0,-2
1501882128424659,-38,-2,-9,-11,-2,-4,-3,-10
1501882128425657,3,-2,1,-24,-6,0,-5,2
1501882128425657,4,1,-7,30,4,0,1,-7
1501882128447674,-22,-4,-19,-24,-2,1,-1,29
1501882128447674,16,-1,2,14,1,0,1,-2
1501882128448660,1,1,12,47,5,-3,-1,11
1501882128448660,16,-6,-20,-74,-19,-5,-3,-1
1501882128462679,-1,1,-4,34,3,1,1,-9
1501882128462679,0,-2,-26,-18,-3,0,-3,-1
1501882128463660,-4,2,6,-20,0,1,3,-3
1501882128463660,1,-1,14,37,3,-1,1,17
1501882128484671,22,-3,-7,-14,-6,0,-1,4
1501882128484671,10,3,20,4,5,1,-1,17
1501882128485662,-5,-2,-3,-4,-3,-1,-1,-17
1501882128485662,-3,0,-4,25,6,-1,-1,14
1501882128507676,12,-3,-10,-24,-7,-4,-4,-8
1501882128507676,-17,2,14,12,1,-1,-3,-14
1501882128508663,-3,-3,-10,-32,10,5,2,22
1501882128508663,23,3,12,44,-12,-6,-4,-25
1501882128522664,-56,-17,-34,29,-4,-3,0,-20
1501882128522664,-17,0,6,-37,-6,0,-3,5
1501882128523664,10,5,19,4,0,0,0,-5
1501882128523664,5,-4,-28,7,2,-6,-1,2
1501882128544665,-14,3,1,5,4,6,-1,3
1501882128544665,4,-3,-13,-15,3,-4,0,-25
1501882128546667,7,-2,17,-40,-12,-1,-3,-3
1501882128546667,-1,7,38,50,13,1,0,-5
1501882128567668,-4,-5,-5,-7,-5,-7,-4,-3
1501882128567668,0,3,1,0,-8,-2,1,20
1501882128567668,-16,-8,-19,-25,-9,-3,0,4
1501882128567668,-9,-4,-5,-13,7,4,0,-46
1501882128582674,16,1,-9,-18,8,2,0,6
1501882128582674,3,5,20,66,11,4,2,-19
1501882128583668,12,-5,-14,-6,-6,-6,-5,22
1501882128583668,0,2,1,5,-3,1,5,20
1501882128604681,13,4,15,-41,-5,-1,-1,-3
1501882128604681,0,-2,14,14,2,2,1,-5
1501882128605668,-10,1,-3,68,7,-2,-3,-17
1501882128605668,-27,-5,-23,-48,-8,-2,-2,14
1501882128627683,17,-2,16,2,-7,-3,-3,-1
1501882128627683,-6,0,-3,-64,-4,-3,-1,7
1501882128628676,-7,-8,1,-7,-6,-2,-2,-17
1501882128628676,4,1,7,22,7,2,0,-1
1501882128642670,1,5,10,-13,-2,-4,0,-2
1501882128642670,-5,-9,-51,-14,-6,-9,-5,2
1501882128642670,4,-1,26,67,4,3,2,22
1501882128642670,3,3,-4,6,6,4,2,-11
1501882128664673,4,-3,7,0,-3,1,-1,-5
1501882128664673,17,-4,-16,1,2,-1,-1,8
1501882128665673,15,3,-16,-38,-7,-3,-4,17
1501882128665673,-36,-4,14,42,11,3,-1,-20
1501882128687726,-2,3,4,-25,-3,0,0,12
1501882128687726,-11,-7,2,-59,-13,-4,-3,-9
1501882128688685,-7,5,-2,28,0,-1,1,-13
1501882128688685,23,-4,-4,18,1,1,0,27
1501882128701733,-24,7,20,20,7,-1,-1,-9
1501882128701733,-1,0,-9,-7,-4,0,-3,0
1501882128709677,8,-2,-7,-44,-4,-2,0,4
1501882128709677,-7,0,1,13,1,1,-3,-7
1501882128724682,14,-3,-20,20,2,1,1,3
1501882128724682,-6,-6,10,35,4,-3,-4,1
1501882128725677,-1,0,8,-56,-19,-7,-1,-20
1501882128725677,7,-1,-10,-41,-3,-2,-1,10
1501882128747677,2,0,-17,-15,-3,1,-2,-15
1501882128747677,-13,-1,19,58,11,5,1,-14
1501882128748681,9,1,2,1,3,-1,2,15
1501882128748681,-13,-3,3,-29,-8,-3,-2,-3
1501882128761720,20,1,2,0,1,1,-3,11
1501882128761720,-25,-4,-17,27,-1,-3,-3,12
1501882128769677,-11,-3,2,52,9,1,-2,-13
1501882128769677,13,0,-3,-79,-12,-4,-1,10
1501882128784721,-11,2,2,19,0,-1,0,5
1501882128784721,8,-6,-26,-85,-8,-1,-1,2
1501882128785679,-4,-4,4,-6,-1,1,-2,-3
1501882128785679,-4,3,15,24,5,-5,-1,2
1501882128807737,2,0,5,-6,4,2,3,22
1501882128807737,-7,1,-14,15,-6,-2,-2,-39
1501882128808681,0,-1,-10,-21,3,1,3,-7
1501882128808681,12,-2,-7,13,-2,-2,-2,-19
1501882128821699,5,-2,5,11,0,0,1,0
1501882128821699,3,2,10,12,2,3,1,13
1501882128829689,-6,1,-5,-18,1,-1,-3,-1
1501882128829689,-9,-2,9,31,1,0,-1,-4
1501882128844687,1,-6,-26,-41,-4,-5,-3,-1
1501882128844687,5,-1,27,11,-3,-1,-1,1
1501882128852743,0,2,-3,3,2,-1,-2,-2
1501882128852743,7,1,0,7,1,2,0,14
1501882128867687,-10,-8,-21,-18,-3,-3,-4,-24
1501882128867687,11,3,10,-22,1,0,2,19
1501882128867687,-8,-1,25,14,-4,3,-2,0
1501882128867687,-3,-5,-43,-16,4,-7,-3,8
1501882128881692,-4,0,8,4,-3,3,-1,-22
1501882128881692,9,-2,-5,15,-7,0,0,-3
1501882128889705,5,1,-3,-49,-6,-2,2,-1
1501882128889705,19,2,2,-8,-2,0,0,9
1501882128904727,-18,0,13,36,0,-3,-3,-11
1501882128904727,-8,2,9,33,9,3,0,4
1501882128905692,13,-4,-9,-11,-3,-4,0,31
1501882128905692,-5,-2,-2,-2,0,2,-1,-28
1501882128927693,-20,-3,-3,-9,-4,-3,-2,18
1501882128927693,16,1,-1,6,-3,0,1,8
1501882128928689,-13,-2,-6,19,4,-2,-2,-9
1501882128928689,-5,-2,-10,13,2,-2,-3,-14
1501882128950733,19,7,21,-24,-3,-3,-1,1
1501882128950733,-24,-5,8,-6,-1,0,-3,-8
1501882128951709,2,-6,-31,-9,-5,-3,-2,-3
1501882128951709,6,1,1,-8,-6,-2,-3,4
1501882128964691,26,1,-11,19,0,-5,-3,8
1501882128964691,6,4,0,3,9,7,4,14
1501882128965689,-26,1,31,-45,-7,-1,-3,-40
1501882128965689,-20,-3,-19,45,3,1,0,-9
1501882128987730,9,-5,-9,-3,-5,-2,-2,4
1501882128987730,-4,0,7,-16,0,-4,-3,-10
1501882128988707,1,-4,-20,-21,-3,-2,0,3
1501882128988707,-6,2,9,67,4,-3,-2,8
1501882129010694,-8,2,10,-42,-1,2,2,-11
1501882129010694,6,-1,-4,-3,2,-2,0,5
1501882129011715,-4,2,-1,32,5,1,-1,-2
1501882129011715,2,0,14,-43,-5,0,-1,6
1501882129024696,-1,-3,-4,19,1,-2,0,-15
1501882129024696,5,-1,-3,-28,-1,0,-3,20
1501882129025694,0,2,1,46,0,-2,0,1
1501882129025694,-4,0,29,-18,-2,-2,1,-2
1501882129047750,-1,0,-8,25,0,0,0,-9
1501882129047750,-4,0,3,1,-4,-5,-3,-3
1501882129048706,6,1,-1,21,6,3,0,-7
1501882129048706,-15,-3,-7,-7,-7,-3,-1,15
1501882129061740,33,-3,-5,-29,-5,1,-1,38
1501882129061740,4,2,-9,-3,2,1,0,-22
1501882129069717,-9,0,-1,-18,-7,-8,-6,14
1501882129069717,18,2,12,5,5,7,2,9
1501882129084745,-20,-4,-7,28,-1,-1,0,0
1501882129084745,4,-2,-3,32,-1,-1,-3,12
1501882129085697,17,2,18,-51,-5,-3,-2,3
1501882129085697,0,2,-6,-6,-1,-3,0,7
1501882129107747,-9,0,-5,-5,4,1,2,-32
1501882129107747,-10,-8,-24,-18,-7,-3,-4,-15
1501882129107747,-17,-8,-6,16,1,-3,1,-14
1501882129107747,6,0,-1,-6,3,2,-1,-4
1501882129121702,1,5,-15,-14,-11,-1,-1,5
1501882129121702,-7,5,13,18,3,1,1,-17
1501882129129700,19,3,8,-20,-2,0,-1,12
1501882129129700,-41,-3,-2,70,4,-1,-1,-39
1501882129144700,3,0,12,-5,3,0,-2,5
1501882129144700,1,-1,3,-18,-1,-3,-1,6
1501882129145701,-13,-6,-22,-3,-3,-1,0,-12
1501882129145701,16,-2,-11,-42,-5,0,0,27
1501882129167701,2,-1,10,69,3,-1,-4,-22
1501882129167701,0,5,1,-96,-15,-3,0,-3
1501882129167701,2,-3,3,16,3,2,-3,4
1501882129167701,21,-4,-13,-7,-3,-4,-4,6
1501882129181702,-22,-5,6,-15,6,6,2,2
1501882129181702,6,-2,4,28,3,-2,-1,6
1501882129190712,0,-3,4,43,-1,3,0,-6
1501882129190712,-1,1,13,-31,-3,-3,2,31
1501882129204723,-7,-1,-50,-11,0,-2,-2,-15
1501882129204723,4,-2,14,-13,-11,-5,-1,3
1501882129205704,-11,5,-1,8,3,2,1,6
1501882129205704,-11,-2,3,-10,2,-1,-2,-10
1501882129227707,29,2,18,-7,-5,-3,-1,21
1501882129227707,-43,-8,-18,57,8,0,-2,-1
1501882129227707,4,-2,1,-71,-10,-5,-3,-7
1501882129227707,0,2,-7,54,-6,-1,1,-6
1501882129250706,-6,-3,11,30,5,1,-1,0
1501882129250706,7,6,19,37,9,4,1,9
1501882129251706,-11,-12,-39,-38,-12,-2,0,7
1501882129251706,20,1,6,10,1,-1,-3,-11
1501882129264710,-4,-1,-12,-90,-7,1,0,20
1501882129264710,-7,3,23,78,3,2,0,-31
1501882129265707,-1,-2,-12,-7,5,-1,-2,-4
1501882129265707,1,0,11,12,-2,-2,-1,-1
1501882129287716,-14,-2,-7,-6,-6,-6,-3,-2
1501882129287716,13,0,-12,-60,1,1,0,0
1501882129288716,4,4,13,80,2,-2,-2,0
1501882129288716,6,-9,-24,-40,-8,1,-4,-12
1501882129310713,-18,1,20,21,5,1,1,-10
1501882129310713,3,0,2,-12,0,0,1,3
1501882129311723,0,-4,-16,37,0,-2,-1,-2
1501882129311723,-1,3,3,-80,-7,-5,-2,-5
1501882129324711,-6,-1,16,46,-1,-2,-3,-10
1501882129324711,-8,-3,-3,-13,-1,-1,0,5
1501882129325711,21,0,-11,-15,-6,1,-2,-1
1501882129325711,-55,2,16,23,9,3,-1,-52
1501882129347712,-14,-4,-13,-64,-8,-1,-1,-12
1501882129347712,17,-2,2,35,-1,-6,-4,1
1501882129348712,-4,-1,3,20,6,-3,0,9
1501882129348712,8,-3,-21,-24,0,-2,-2,-1
1501882129370713,6,1,4,-8,-8,-1,1,0
1501882129370713,-21,-3,-2,-5,1,0,0,-1
1501882129371714,18,-2,-2,-50,-14,-2,0,6
1501882129371714,22,0,0,23,2,-1,-1,16
1501882129384730,-6,-2,5,18,4,-1,0,-6
1501882129384730,5,0,-6,-10,-3,-1,-2,2
1501882129385718,-3,4,15,8,5,-1,0,14
1501882129385718,0,-9,-11,-13,-4,2,0,17
1501882129407716,0,1,5,25,4,-2,-1,-13
1501882129407716,8,0,-8,-21,-7,-2,-2,0
1501882129407716,-12,0,-8,34,4,0,0,-8
1501882129407716,-2,7,27,14,0,1,1,10
1501882129430716,2,-9,-17,-31,-2,0,0,-8
1501882129430716,5,-1,11,-14,6,0,-2,14
1501882129431717,8,2,-20,-13,-11,-5,-1,21
1501882129431717,-23,-5,-4,-21,-8,-11,-3,-15
1501882129444718,13,-1,-2,22,4,5,-2,-4
1501882129444718,7,1,-5,-23,3,1,2,-3
1501882129446717,-6,-1,10,33,3,2,-1,-7
1501882129446717,10,-2,5,10,-1,-3,-1,5
1501882129467724,12,-2,-7,17,-2,-4,-1,18
1501882129467724,14,0,-18,-15,-8,-5,-1,0
1501882129467724,-15,-6,8,-9,2,1,-2,-14
1501882129467724,1,-2,-7,9,-2,-1,2,-1
1501882129490723,-10,2,6,2,-1,-1,-3,-2
1501882129490723,6,-4,-16,2,2,6,1,0
1501882129491721,6,4,24,48,10,2,2,-2
1501882129491721,-24,-7,-20,-81,-21,-5,-6,-9
1501882129504735,18,5,12,41,4,-3,-3,16
1501882129504735,-13,-3,-8,-18,-3,-2,-2,-8
1501882129505720,-1,0,14,15,2,1,0,-2
1501882129505720,-1,-5,-14,10,-1,-3,-2,8
1501882129527730,-5,-3,-13,2,1,0,-1,8
1501882129527730,-5,-1,2,14,-4,-3,-2,-11
1501882129527730,-7,3,7,-39,-4,-2,-1,-9
1501882129527730,-4,1,-2,42,6,2,-1,-2
1501882129550738,13,3,8,-25,-6,-2,-1,15
1501882129550738,-3,-10,-21,0,-2,-3,-1,-16
1501882129551724,3,1,17,-23,-4,4,3,-7
1501882129551724,8,2,-12,22,4,0,-1,1
1501882129564725,-20,-1,2,-7,-3,-1,-1,-2
1501882129564725,3,2,14,82,5,0,1,11
1501882129565724,-22,-4,-16,-56,-2,-4,-3,-12
1501882129565724,6,-4,-16,-32,-10,0,-2,6
1501882129587739,1,0,9,-6,0,-5,-2,-22
1501882129587739,-2,-1,0,-27,-1,-1,-1,3
1501882129587739,2,-1,-1,31,2,0,0,-6
1501882129587739,6,0,21,17,1,-2,-1,3
1501882129610729,-26,-1,-18,-3,-1,-1,-1,-5
1501882129610729,8,-6,-3,-6,-7,-3,-4,16
1501882129611735,4,3,13,-3,0,-1,-2,4
1501882129611735,0,-4,-22,-28,7,2,1,0
1501882129624729,5,1,6,25,0,1,1,2
1501882129624729,-19,-1,16,2,-10,-2,1,-2
1501882129625730,-4,-2,-1,1,-6,-8,-6,-6
1501882129625730,18,2,5,-17,1,1,1,7
1501882129647730,1,1,-4,24,9,3,0,-5
1501882129647730,4,-1,-6,-14,-1,-2,1,33
1501882129648730,-18,-2,2,-10,-6,0,-3,-22
1501882129648730,0,4,10,33,3,0,1,7
1501882129670731,15,0,-7,26,1,-7,-3,10
1501882129670731,9,2,0,-33,-6,3,0,-5
1501882129671732,-24,-6,-19,-63,-7,-3,-2,1
1501882129671732,-6,1,0,11,1,1,0,-18
1501882129684741,0,-2,10,-2,-1,-1,2,-2
1501882129684741,-9,0,-8,-6,3,-2,-4,-25
1501882129685731,13,1,-4,47,6,1,0,9
1501882129685731,0,2,-8,-40,-3,2,2,-9
1501882129707735,-9,-4,19,8,-5,-3,-3,-6
1501882129707735,9,2,-10,14,2,-3,-1,13
1501882129708735,5,0,5,-1,2,3,1,-2
1501882129708735,7,-3,-1,23,-1,-4,0,-4
1501882129730737,-28,1,6,31,3,3,-3,10
1501882129730737,-4,-6,-8,-44,-5,-1,-2,-10
1501882129731737,14,2,-4,0,0,-2,0,6
1501882129731737,-9,4,17,6,3,0,-1,-21
1501882129744749,13,-8,-34,-73,-3,0,-2,-1
1501882129744749,-11,3,24,88,2,0,0,-10
1501882129745734,14,-3,-15,-9,-1,-7,-4,14
1501882129745734,-8,-8,-11,-14,-4,2,0,5
1501882129767736,2,3,13,-6,-1,1,1,7
1501882129767736,1,-3,-12,11,0,-1,-2,-4
1501882129767736,2,4,5,14,2,0,1,8
1501882129767736,10,2,12,-10,3,-4,-4,6
1501882129797794,-20,0,-2,-13,-10,-5,-4,-7
1501882129797794,25,2,-2,-38,0,6,2,-3
1501882129798742,1,1,-7,42,4,1,3,12
1501882129798742,-19,-3,-13,-74,-5,-3,-2,0
1501882129804748,29,1,-4,44,2,-1,-2,27
1501882129804748,-16,-3,23,1,-2,-4,0,-11
1501882129812786,8,-6,-16,-20,-2,3,0,-11
1501882129812786,-3,3,28,58,1,1,-1,4
1501882129827739,0,-3,-16,-27,-5,-2,0,-5
1501882129827739,-3,0,-13,5,4,-2,-4,-12
1501882129827739,5,-6,-6,-61,-16,-5,-4,3
1501882129827739,-12,-2,-6,34,2,-6,-2,-5
1501882129850748,10,-1,0,-13,-2,4,0,-12
1501882129850748,3,-6,-9,3,-2,1,-1,7
1501882129851761,-38,1,12,10,1,-3,-3,-21
1501882129851761,8,4,-14,-80,5,4,0,4
1501882129863741,-5,-8,25,67,-8,-5,-1,-3
1501882129863741,10,4,-16,-4,-4,-3,0,1
1501882129872742,-4,-8,-7,3,3,0,-1,7
1501882129872742,-1,-1,-15,25,1,0,1,-6
1501882129887781,-12,0,31,40,11,0,1,36
1501882129887781,4,-3,-8,-102,-15,-2,-1,-31
1501882129887781,11,7,22,10,-4,-3,-2,-14
1501882129887781,-26,-6,-4,5,-4,-4,-4,7
1501882129910747,6,4,-21,-13,8,4,2,-1
1501882129910747,-10,-2,11,67,4,-3,0,-2
1501882129911768,-5,3,8,-18,0,-1,-2,-4
1501882129911768,4,1,-10,23,-6,-1,-2,-1
1501882129924747,-13,-3,-3,-23,-2,4,1,-8
1501882129924747,14,-2,13,2,-1,-7,-1,32
1501882129932779,-7,0,-25,-14,3,8,0,-31
1501882129932779,8,-1,1,20,1,1,2,7
1501882129947813,-6,-1,-11,0,2,-2,-3,-14
1501882129947813,14,3,3,-21,2,3,0,7
1501882129947813,-33,-6,14,57,-6,-10,-5,7
1501882129947813,20,5,-11,-5,-2,-1,0,-1
1501882129969780,-4,0,24,-18,-4,-2,-1,-17
1501882129969780,-14,-3,-5,24,0,-1,-1,-4
1501882129970748,15,0,2,-21,3,3,1,9
1501882129970748,-7,-7,-6,48,-9,-4,-3,-10
1501882129983750,30,4,-6,-19,4,-2,-2,16
1501882129983750,-14,-1,7,18,2,-1,-1,2
1501882129992750,8,-3,-23,-44,-14,-2,0,6
1501882129992750,5,-2,10,-12,1,1,0,-4
1501882130007812,-3,-2,-17,-19,-7,-5,-1,-9
1501882130007812,-9,0,1,-15,4,2,-3,-2
1501882130007812,19,5,5,56,8,7,3,7
1501882130007812,4,-7,-7,-26,-6,-3,-1,17
1501882130029753,-5,2,-2,21,1,-5,-2,-4
1501882130029753,13,-4,-11,-29,-3,0,1,25
1501882130030760,2,1,15,9,5,-1,1,-10
1501882130030760,12,0,4,1,1,1,0,3
1501882130043771,-13,-4,-3,-2,-5,0,-1,-16
1501882130043771,-1,0,-4,2,-2,-2,-3,7
1501882130052813,7,-1,-3,-13,-1,-3,-3,-9
1501882130052813,-4,4,6,-11,0,-2,-1,-9
1501882130067776,6,-2,-10,13,2,5,0,2
1501882130067776,-15,-5,-19,4,2,1,-1,-11
1501882130067776,1,1,15,43,9,2,-2,2
1501882130067776,-9,-3,7,-16,-7,-5,-5,6
1501882130089794,9,-4,0,-14,-8,-6,-2,-6
1501882130089794,-12,-4,-45,-40,-4,0,0,-4
1501882130090757,-2,-1,10,10,0,-7,-3,4
1501882130090757,3,-1,9,-4,7,5,1,-1
1501882130103816,-4,0,-1,15,1,0,-1,-1
1501882130103816,-5,2,13,9,0,1,0,-11
1501882130112766,0,-2,-8,-11,-4,-1,0,1
1501882130112766,3,0,-1,17,-1,-3,-1,2
1501882130127758,-6,-3,-6,-19,-4,3,0,-15
1501882130127758,-2,1,-1,15,1,-1,0,-7
1501882130127758,-3,-2,6,-33,-6,-4,-2,8
1501882130127758,0,-1,0,5,-2,-3,-1,7
1501882130150759,0,1,-9,3,3,1,-1,-4
1501882130150759,1,2,10,26,0,-1,0,1
1501882130151760,3,-4,-2,-17,-2,-2,0,0
1501882130151760,-3,1,3,2,-2,3,0,-3
1501882130172761,0,-1,-6,-13,-2,-3,-2,4
1501882130172761,-3,3,9,0,2,2,1,-5
1501882130173759,-4,-3,-10,-13,-3,2,1,0
1501882130173759,-2,-2,-3,28,-4,-4,-3,-7
1501882130187772,1,2,8,-5,1,4,1,3
1501882130187772,-2,-4,-7,-9,-5,0,-1,-4
1501882130187772,-2,1,-2,2,-1,-1,-2,-3
1501882130187772,-2,-1,-14,-12,-3,-3,-2,-3
1501882130209766,-2,-1,-2,-38,-3,-3,-3,-9
1501882130209766,-3,-4,-17,32,0,-6,-2,3
1501882130210765,-7,-1,6,6,3,2,1,-1
1501882130210765,-1,3,-3,-6,-2,-3,-1,2
1501882130232785,12,-8,0,10,0,-1,-1,6
1501882130232785,-5,-3,10,-63,-6,-2,0,-2
1501882130233765,-11,-2,-8,7,0,-2,-2,-4
1501882130233765,3,0,13,12,4,1,0,10
1501882130247770,-51,0,11,7,1,-4,-7,-58
1501882130247770,-4,-1,-30,-25,0,-7,0,2
1501882130248764,9,1,23,21,-6,5,6,-27
1501882130248764,-27,-4,-2,-16,-3,-5,-16,-37
1501882130270768,29,1,5,-27,-7,-1,4,56
1501882130270768,-29,1,14,54,-1,-4,-4,-33
1501882130271766,-23,-1,-10,-39,2,-2,-1,-34
1501882130271766,22,1,10,12,0,-2,4,10
1501882130292768,3,0,-8,-20,-3,2,1,5
1501882130292768,67,3,25,5,2,3,2,96
1501882130293767,-10,-1,-6,-16,-1,-3,-9,-39
1501882130293767,-18,2,24,53,4,0,1,4
1501882130307768,-11,-5,-43,-19,-6,-6,-3,-22
1501882130307768,11,-2,11,-35,0,1,1,-4
1501882130307768,9,-1,-8,49,-1,-4,-1,17
1501882130307768,13,-2,-3,-23,3,1,2,15
1501882130329770,-27,1,5,4,-2,-2,0,-56
1501882130329770,-15,0,-6,-8,-3,-6,-4,-29
1501882130330769,8,-2,-14,-9,0,4,1,27
1501882130330769,-10,1,8,-20,3,4,2,-25
1501882130352784,15,-3,-32,28,0,-1,0,39
1501882130352784,-10,-2,15,-7,-7,-7,-4,-24
1501882130353771,-18,0,-4,-19,1,-1,-1,-14
1501882130353771,48,2,13,13,-1,-1,-4,21
