timestamp,emg1,emg2,emg3,emg4,emg5,emg6,emg7,emg8
1501881969989448,-4,4,-4,-10,-1,5,8,-1
1501881969989448,10,-4,16,16,0,-5,-17,3
1501881969990447,-5,0,-24,-34,-3,-2,5,4
1501881969990447,2,-5,13,-36,-7,-8,-32,6
1501881970003452,-27,-1,-9,40,7,9,40,0
1501881970003452,-13,3,2,-57,-14,-2,4,-5
1501881970011450,4,-11,-21,50,3,-6,-7,-24
1501881970011450,68,13,6,-35,-1,0,-12,15
1501881970026451,-18,-8,-9,-8,-11,-3,-12,-28
1501881970026451,24,1,3,-40,3,-3,-6,7
1501881970027450,-41,2,24,34,6,10,23,-2
1501881970027450,-7,-1,-32,66,13,-2,-2,-21
1501881970049456,-1,3,22,-24,-8,-5,-20,3
1501881970049456,6,-3,-15,-13,-5,5,25,2
1501881970050452,-12,-2,-15,-48,-5,-2,-13,21
1501881970050452,-23,-12,22,91,-2,-2,15,-3
1501881970063453,-1,7,-14,-57,-10,-3,9,-4
1501881970063453,-7,3,-3,48,6,-8,-23,-22
1501881970071454,20,6,16,-34,-5,2,6,13
1501881970071454,38,0,11,-27,6,4,-6,-10
1501881970086473,5,-12,-39,-43,-6,-8,-5,23
1501881970086473,-50,-5,13,35,-3,0,-4,-32
1501881970087453,23,3,2,97,6,0,-5,-27
1501881970087453,-26,0,-10,-108,-4,1,2,-32
1501881970109457,20,10,22,21,6,3,-10,33
1501881970109457,-16,-7,-6,18,-6,-3,-5,-22
1501881970110456,0,-8,38,-15,1,-6,-9,-20
1501881970110456,17,-8,-61,-85,-20,2,9,1
1501881970132459,-26,8,25,54,5,-2,-4,0
1501881970132459,21,-1,11,-5,0,-4,-3,40
1501881970133455,-18,0,-4,-19,-4,2,2,-2
1501881970133455,-33,-4,8,35,7,4,15,21
1501881970146457,35,-1,-15,-118,-6,5,5,-68
1501881970146457,13,4,-3,-26,-4,-3,10,13
1501881970147457,11,-6,-17,15,1,0,-19,-4
1501881970147457,6,4,13,2,2,-2,-17,-27
1501881970169471,-32,-7,6,44,4,1,29,8
1501881970169471,32,4,2,26,-3,0,-3,-18
1501881970170458,18,-7,-38,-16,-3,-7,-8,29
1501881970170458,1,12,18,39,-4,-5,-17,-33
1501881970192461,-22,1,36,31,0,1,20,18
1501881970192461,-2,-9,-34,-102,-16,-6,-10,6
1501881970193467,-27,8,2,-12,-8,0,3,-5
1501881970193467,26,-15,-30,31,-5,-11,-7,26
1501881970206463,-24,1,-15,-56,8,0,-21,-28
1501881970206463,28,0,9,49,13,3,11,24
1501881970207460,1,8,37,49,4,2,7,5
1501881970207460,-29,-8,-43,-111,-23,-3,-1,8
1501881970229461,17,-8,5,37,-4,-7,-22,-47
1501881970229461,4,14,4,6,20,9,16,20
1501881970230463,32,-4,-2,15,-3,-5,-12,22
1501881970230463,-35,2,8,-12,2,2,9,-75
1501881970252463,21,-4,-3,17,0,-2,2,26
1501881970252463,-29,0,-8,-4,-4,0,5,2
1501881970253468,16,7,18,78,11,0,-8,-3
1501881970253468,-11,-3,13,-74,-2,-1,-4,26
1501881970267468,15,-1,-10,10,-3,0,9,17
1501881970267468,-25,-3,-6,14,4,0,3,-13
1501881970268465,3,0,2,-59,-4,-3,-9,33
1501881970268465,-4,4,5,67,9,5,23,28
1501881970289465,16,-5,15,70,2,-1,-9,15
1501881970289465,-2,-8,-14,-57,-7,-9,-12,-1
1501881970290466,-43,0,-23,4,-1,-1,-4,-65
1501881970290466,-49,2,33,-41,3,3,-2,1
1501881970312470,1,-8,-34,-43,-11,-5,-4,-1
1501881970312470,-9,0,-9,11,-6,-4,-4,0
1501881970312470,12,-2,-13,-55,7,6,3,27
1501881970312470,8,5,16,98,-2,-1,-4,7
1501881970326468,-10,-4,11,-8,3,-1,-10,-7
1501881970326468,-3,0,18,-33,0,-2,0,23
1501881970327467,-1,-7,-27,-1,-5,-3,3,-62
1501881970327467,-28,-3,-6,6,6,4,0,-36
1501881970349483,3,1,-7,64,8,-1,-2,10
1501881970349483,4,-1,-28,-26,-4,2,3,-13
1501881970350469,-35,-2,14,-7,-9,-10,-13,4
1501881970350469,28,-1,10,-6,4,-1,-5,31
1501881970372470,-34,-5,-22,-38,-6,0,-1,-16
1501881970372470,-1,2,27,61,7,3,1,-32
1501881970373469,15,-4,-15,-9,-8,-1,9,13
1501881970373469,17,0,0,-11,6,-4,-2,-2
1501881970386479,-34,4,9,42,2,6,-10,-2
1501881970386479,52,-3,12,22,1,-2,12,93
1501881970387471,0,-5,10,-42,-9,-2,-4,29
1501881970387471,18,0,-15,97,6,-3,-7,10
1501881970409471,-6,-6,22,-26,1,2,18,-19
1501881970409471,-6,-5,-22,-29,-8,1,-6,-67
1501881970409471,-15,3,11,59,12,2,-1,-9
1501881970409471,-13,0,15,-43,5,0,6,17
1501881970432494,27,2,-3,-3,-7,-4,-17,32
1501881970432494,5,6,23,30,4,0,7,10
1501881970432494,3,-5,-17,-31,-13,-2,8,-10
1501881970432494,2,-2,-1,14,6,2,-1,2
1501881970446483,4,4,-7,-14,-6,-3,-4,-6
1501881970446483,0,-14,-4,-1,-4,-5,-3,27
1501881970447493,2,11,13,29,12,6,3,-35
1501881970447493,-6,-7,-16,-2,-2,2,-10,-42
1501881970468517,64,0,11,-37,-14,-3,21,101
1501881970468517,0,1,-4,-5,-3,3,12,35
1501881970469476,-2,1,4,-34,0,1,-5,-5
1501881970469476,-22,-3,-14,5,-6,-5,-7,-9
1501881970492477,5,6,9,28,11,2,0,-16
1501881970492477,-11,-4,-6,-35,1,1,2,32
1501881970492477,17,-1,23,9,-3,-4,-16,-11
1501881970492477,19,-4,-45,-10,0,1,14,15
1501881970514499,-9,-5,11,86,6,-2,-5,-27
1501881970514499,-20,0,20,-37,-9,-2,-2,-39
1501881970515478,-2,-4,-25,-20,-2,-3,-9,12
1501881970515478,-43,-3,14,55,2,-3,-7,-29
1501881970529485,81,2,6,-19,5,-3,-2,71
1501881970529485,-22,4,-6,-17,4,5,4,-37
1501881970529485,-1,-2,14,30,0,-1,10,12
1501881970529485,-6,-5,-24,-34,-9,-2,-7,7
1501881970552498,6,0,-23,-33,2,-2,-3,7
1501881970552498,25,-4,-3,15,-10,-4,-7,-13
1501881970552498,7,0,0,66,0,-6,3,20
1501881970552498,-7,3,12,-31,-2,7,4,-6
1501881970566481,-23,-11,-11,-13,-1,-4,-22,17
1501881970566481,16,6,-6,40,9,1,17,-16
1501881970567481,48,3,4,-99,-7,4,1,34
1501881970567481,-11,-7,-6,3,-5,-5,1,47
1501881970588485,-29,2,5,16,2,1,-1,-15
1501881970588485,3,-1,-9,-16,1,-1,-7,-37
1501881970589483,-5,-10,3,19,-8,-4,-1,-6
1501881970589483,36,9,9,-13,3,2,4,33
1501881970612487,-13,3,-1,55,4,-1,3,-28
1501881970612487,-10,-2,-6,-10,2,2,-10,23
1501881970612487,-53,2,8,-49,2,1,10,-76
1501881970612487,11,-3,3,29,-2,-2,-4,-17
1501881970634544,-19,0,19,6,-4,-2,0,-23
1501881970634544,13,1,8,0,-8,-6,-8,9
1501881970635485,-1,-1,-13,50,2,1,-6,49
1501881970635485,-24,-3,10,11,-6,-2,-8,-18
1501881970649491,-12,7,-12,-65,1,5,12,-17
1501881970649491,-17,-9,-8,-32,-4,-2,-7,13
1501881970649491,2,-2,-1,7,-3,-3,-6,6
1501881970649491,2,3,11,-15,6,2,12,60
1501881970672487,-11,1,-9,51,-3,-4,-13,-57
1501881970672487,-3,3,10,-34,-15,-6,0,-21
1501881970673508,-11,-9,-33,-42,-4,0,-1,-17
1501881970673508,17,0,0,-23,0,-1,-1,3
1501881970686542,-26,-4,-14,38,3,-2,-2,-30
1501881970686542,-2,-1,3,15,3,4,-6,-3
1501881970687508,-15,1,30,-28,-7,-3,8,-14
1501881970687508,-53,-9,-16,34,-7,-7,-11,38
1501881970709489,4,1,-11,-54,-1,2,14,-55
1501881970709489,-2,-2,-20,16,-2,-1,-3,-10
1501881970709489,-30,-1,-7,9,5,1,-1,-13
1501881970709489,3,-1,12,-32,-6,-3,-3,-11
1501881970732552,2,-3,12,-8,-1,-2,-4,18
1501881970732552,2,2,-4,73,6,-5,-3,28
1501881970733496,16,-2,8,28,7,7,3,30
1501881970733496,6,0,-21,-8,-20,-3,-3,-25
1501881970746525,-4,-3,-11,-34,-5,-3,-6,12
1501881970746525,-33,1,14,9,2,-1,-2,-56
1501881970753493,7,-7,-25,-20,-11,-6,-12,41
1501881970753493,27,8,-6,-16,6,3,6,-45
1501881970769493,-10,-2,1,6,-3,1,-4,19
1501881970769493,33,1,4,38,9,0,0,27
1501881970769493,-23,-6,-19,-35,-15,-5,-5,-30
1501881970769493,-19,-1,15,-12,0,4,6,-26
1501881970792521,-11,-5,-12,2,-8,-9,-3,-6
1501881970792521,26,1,-10,-50,-10,-3,-3,-25
1501881970793498,16,4,-4,44,9,-4,-7,5
1501881970793498,19,6,18,-1,2,0,3,2
1501881970805499,-5,0,13,30,5,2,-1,0
1501881970805499,-4,-3,-7,5,0,0,-1,4
1501881970814498,15,-2,-18,-90,-3,-1,1,1
1501881970814498,-17,-5,-13,6,-7,-6,-10,-21
1501881970829500,22,2,16,16,5,0,0,28
1501881970829500,-36,2,9,-3,-3,3,4,-14
1501881970829500,26,-2,8,71,10,-3,-4,49
1501881970829500,17,-4,-2,14,0,-5,-9,55
1501881970852519,-25,5,3,11,4,-2,4,-73
1501881970852519,26,-1,-6,-92,-7,8,7,31
1501881970852519,-22,-2,3,11,1,2,1,-38
1501881970852519,11,2,13,-25,-6,-5,0,19
1501881970865531,1,-5,-5,0,1,-2,-4,4
1501881970865531,-14,-10,-38,-17,-10,-7,-7,9
1501881970874502,-1,7,25,40,12,6,5,-42
1501881970874502,-2,-1,-5,22,1,2,0,-6
1501881970889500,-7,2,-2,7,-6,-2,-3,31
1501881970889500,-1,2,7,-8,4,-1,5,-2
1501881970889500,11,-4,4,-1,-6,-2,0,69
1501881970889500,9,4,12,11,13,8,9,-32
1501881970912507,-11,-4,-13,-30,-9,2,-6,-7
1501881970912507,22,-1,-6,48,2,1,0,42
1501881970912507,-56,-6,-6,-48,-12,-9,-2,-33
1501881970912507,-5,0,-9,14,0,-4,-2,-22
1501881970925502,9,-4,4,-6,-2,2,2,22
1501881970925502,-14,-3,12,57,14,-1,-6,-10
1501881970934525,7,-1,-26,-47,-8,-4,2,-4
1501881970934525,0,-7,-9,-61,-11,0,-1,-26
1501881970949507,15,4,-3,-35,-2,4,0,56
1501881970949507,-25,-2,20,74,3,-4,-3,-6
1501881970949507,29,8,3,-16,3,-1,1,10
1501881970949507,-12,-2,27,32,7,8,5,-23
1501881970972525,14,-4,-16,-65,-11,-1,-4,20
1501881970972525,35,-1,-1,-5,5,3,6,43
1501881970972525,15,5,6,-18,-6,-4,-3,23
1501881970972525,0,-1,-4,10,-5,-6,-5,5
1501881970985548,-4,-1,-8,19,1,0,-1,-37
1501881970985548,29,-3,-20,9,1,-3,-7,72
1501881970994506,10,-3,8,53,2,1,9,15
1501881970994506,1,3,-12,-38,-1,-3,-6,-28
1501881971008511,-13,-3,2,-4,-3,-5,1,-13
1501881971008511,-25,1,18,-7,-5,-1,2,-11
1501881971009507,16,4,2,22,12,9,3,25
1501881971009507,-9,-5,4,-36,-7,-6,-8,7
1501881971032538,-7,-4,-17,43,-4,-5,1,-38
1501881971032538,-15,0,-30,-16,-7,-5,0,-39
1501881971033512,3,2,13,45,7,9,0,-10
1501881971033512,-9,-8,-31,-13,-7,-8,-5,-1
1501881971054535,12,5,9,14,9,4,-2,11
1501881971054535,-9,2,18,-10,-2,-1,0,-18
1501881971055512,-5,-10,-19,17,-2,-5,-5,-30
1501881971055512,-19,2,12,7,-9,-1,1,8
1501881971068530,3,1,6,-9,1,1,1,-3
1501881971068530,-2,-10,-22,-4,-7,-2,-4,-44
1501881971069511,-23,2,17,16,1,-4,-5,-12
1501881971069511,8,1,-16,-32,3,3,1,25
1501881971092512,15,-6,-1,-3,-2,-3,-3,70
1501881971092512,1,9,16,45,10,5,3,-54
1501881971092512,-16,-5,-23,-79,-8,-4,-1,-22
1501881971092512,27,-4,2,27,1,-4,-4,46
1501881971114515,-3,-6,-16,1,2,0,2,-5
1501881971114515,6,2,-2,16,5,-1,-8,27
1501881971115513,13,0,7,-53,-14,-3,2,14
1501881971115513,1,5,19,55,11,3,4,22
1501881971129517,-1,-8,-12,-48,-11,-4,-7,-11
1501881971129517,-3,9,13,0,7,3,3,32
1501881971129517,-18,-11,7,14,-8,-8,-11,25
1501881971129517,-3,-2,-12,-24,-1,2,4,3
1501881971152520,-1,2,26,9,3,2,4,-10
1501881971152520,-20,-11,-22,-33,-11,-4,-1,-20
1501881971152520,-2,10,11,24,7,2,0,6
1501881971152520,5,-6,-4,-47,-10,-3,1,4
1501881971174518,-12,0,11,38,7,-1,-3,-24
1501881971174518,-3,2,10,-33,-3,1,1,10
1501881971175517,-1,-11,-30,-13,1,2,-2,-1
1501881971175517,25,2,-18,34,9,-2,5,-3
1501881971197518,1,1,6,-31,-13,-4,-2,17
1501881971197518,-2,-7,-13,-52,-18,-8,-6,-40
1501881971197518,-4,6,10,23,5,-1,2,-20
1501881971197518,-28,-1,17,23,-1,1,-4,-55
1501881971212520,15,-5,-4,13,4,-1,-2,18
1501881971212520,-8,4,5,-13,3,0,0,-14
1501881971212520,-1,-2,2,28,-5,-4,-4,1
1501881971212520,17,-1,3,24,3,-1,1,12
1501881971233522,-13,2,-1,-79,-6,1,1,-61
1501881971233522,-5,-5,-2,21,-4,-4,-3,7
1501881971241521,8,1,-15,-19,5,2,1,-50
1501881971241521,15,2,13,-2,5,4,5,31
1501881971248526,1,1,9,66,5,0,-5,6
1501881971248526,5,-2,3,8,3,1,6,22
1501881971249523,-14,-7,-12,-71,-6,-3,-6,-40
1501881971249523,-18,4,-2,9,-6,-2,-1,2
1501881971272524,-3,-4,-14,8,5,0,-2,-15
1501881971272524,6,-1,-1,-8,-6,-5,-4,6
1501881971272524,-5,1,-6,25,11,6,2,20
1501881971272524,8,0,-11,11,2,0,-5,-3
1501881971294524,33,5,5,-28,-3,0,3,4
1501881971294524,-1,-5,4,44,-4,-5,-4,6
1501881971295524,13,-6,-2,13,-3,-4,-3,55
1501881971295524,-28,3,-3,-37,-3,2,0,-53
1501881971308526,8,-3,7,3,-8,-6,1,12
1501881971308526,4,3,10,-16,2,6,2,-18
1501881971309525,8,-4,-6,15,-3,-5,-7,4
1501881971309525,11,-2,5,13,-5,-6,-5,46
1501881971332527,-42,2,-19,-7,9,4,14,-27
1501881971332527,3,-2,23,48,7,0,2,10
1501881971332527,-18,0,0,14,-12,1,2,-2
1501881971332527,13,-1,-4,-16,5,0,-4,33
1501881971354546,-4,3,-7,29,0,0,-4,9
1501881971354546,-3,-4,7,31,6,1,-1,4
1501881971355538,-2,-2,-6,-84,-17,-3,1,-7
1501881971355538,-3,-3,7,9,-4,-1,-1,-13
1501881971368528,7,-3,-3,-4,0,-2,-2,-1
1501881971368528,11,7,-2,8,3,4,1,3
1501881971369535,3,2,2,0,5,4,0,42
1501881971369535,-10,-1,6,46,3,2,1,-34
1501881971392535,19,4,0,-38,-11,-1,0,45
1501881971392535,17,-17,-42,-81,-21,-8,-3,6
1501881971392535,-36,10,30,16,2,1,0,-64
1501881971392535,-10,-4,-37,0,0,-2,-9,-4
1501881971414531,-2,-6,-5,-16,6,4,9,70
1501881971414531,-38,3,11,16,1,-1,2,-39
1501881971415531,33,1,2,-6,-1,-3,0,17
1501881971415531,16,-2,1,19,-2,-4,-2,13
1501881971428546,-20,-4,1,-4,1,0,-7,-27
1501881971428546,-1,5,21,15,7,2,-3,7
1501881971429532,-14,-7,-19,35,8,-2,1,-16
1501881971429532,-3,-1,-10,-84,-15,-5,-2,-13
1501881971452533,-2,-4,-25,-14,-4,-5,-5,-6
1501881971452533,13,1,17,-16,-4,-2,0,9
1501881971453535,-1,-1,2,19,4,-2,-2,-10
1501881971453535,12,2,-1,-12,-2,0,-2,-24
1501881971474534,-12,-3,5,10,-1,2,0,-5
1501881971474534,-4,-2,-19,-27,-9,-11,-7,8
1501881971475534,-14,0,19,9,-3,4,-4,-45
1501881971475534,-12,-7,3,4,0,-4,-3,19
1501881971488539,-1,4,14,-10,2,-1,1,-14
1501881971488539,-13,2,-6,14,2,1,-7,-8
1501881971489535,46,0,10,39,-7,-6,4,88
1501881971489535,-10,8,13,-13,4,5,5,-38
1501881971520541,23,-4,3,75,1,-4,-3,29
1501881971520541,-1,1,-1,-52,-5,2,1,30
1501881971520541,-4,-4,-20,-13,4,-2,1,-9
1501881971520541,-17,-9,9,28,-4,-1,0,-39
1501881971535546,8,-2,-7,-5,-4,-5,-4,6
1501881971535546,7,1,-5,11,4,-1,-5,1
1501881971535546,0,4,8,34,4,4,7,-48
1501881971535546,-4,1,16,-42,-3,-1,1,21
1501881971548538,7,-2,-2,29,1,-4,-5,-16
1501881971548538,-29,-8,-21,-54,-9,0,2,-28
1501881971549537,-2,5,4,12,5,-1,-4,13
1501881971549537,2,6,5,1,4,-1,3,2
1501881971572560,-11,-4,-12,29,-1,-3,-4,-30
1501881971572560,14,-4,-5,10,0,-1,-3,-3
1501881971572560,3,-2,-4,-26,-11,-4,2,-2
1501881971572560,-9,0,3,-6,1,4,1,13
1501881971594582,-34,2,-11,-11,-6,0,-4,-59
1501881971594582,-3,1,22,22,0,-5,-5,11
1501881971595542,-3,-9,-34,5,-4,-5,-6,9
1501881971595542,9,-4,-13,6,-1,-6,-1,19
1501881971608563,-12,0,1,-18,5,8,9,31
1501881971608563,-3,1,3,13,7,3,1,-17
1501881971609543,14,-1,14,-30,-18,-3,-2,33
1501881971609543,-13,2,-5,11,5,1,-1,-29
1501881971632561,-12,-2,4,7,-6,-8,-9,3
1501881971632561,4,0,-19,-61,-4,-2,-1,7
1501881971632561,7,0,5,17,0,-2,1,-11
1501881971632561,27,0,2,27,10,3,1,26
1501881971654544,-7,-1,1,-38,-5,-3,2,-3
1501881971654544,-20,2,17,65,9,8,-2,-22
1501881971655568,4,-4,-28,-25,-2,-2,6,-2
1501881971655568,13,4,6,11,1,-2,-1,4
1501881971668584,-5,-5,5,0,-2,-4,-3,-15
1501881971668584,-8,-3,-10,9,5,-1,1,0
1501881971676546,26,1,18,-24,-6,0,6,88
1501881971676546,-4,-2,-7,11,5,-2,-3,-27
1501881971692584,50,-1,-18,-30,-16,-3,0,44
1501881971692584,-11,-3,7,9,1,-2,4,-18
1501881971693556,-5,3,-3,-16,3,1,-2,4
1501881971693556,15,-12,-16,-11,-8,-6,-5,32
1501881971714555,-25,4,19,28,8,4,-1,-6
1501881971714555,26,-1,-9,-28,-5,-8,-6,-4
1501881971716552,-10,1,28,40,3,5,3,-19
1501881971716552,-11,0,-5,-39,-6,1,1,-1
1501881971728555,-17,2,20,57,11,5,-2,-5
1501881971728555,4,-13,-57,-74,-26,-10,-1,-15
1501881971737549,-6,-3,5,33,4,-1,-7,-28
1501881971737549,-2,-2,-5,-2,-5,-4,-2,-1
1501881971752562,1,1,11,21,5,-1,-4,5
1501881971752562,-2,0,11,29,0,4,0,6
1501881971753550,-15,-3,-11,-9,2,-2,-3,-23
1501881971753550,18,-1,-7,-39,-5,-1,1,25
1501881971774551,-7,0,7,-2,2,1,-4,-11
1501881971774551,10,-3,7,17,-1,-2,-1,2
1501881971776561,-7,-3,-21,-23,-1,-2,-5,-37
1501881971776561,2,-3,-2,18,0,-2,2,38
1501881971788554,8,2,11,30,-3,-5,-7,-26
1501881971788554,3,4,0,-26,4,7,4,9
1501881971797553,-42,-4,2,70,4,-1,-3,-3
1501881971797553,-30,-1,-1,-45,-17,-2,-5,-40
1501881971812574,25,-2,11,-28,-1,-1,4,27
1501881971812574,-12,-7,-41,21,-5,-5,-9,-8
1501881971818592,-4,7,6,1,6,4,-2,-25
1501881971818592,-2,-4,5,7,2,-4,-10,8
1501881971834622,-15,3,-9,-3,-7,1,13,-8
1501881971834622,9,-2,24,42,5,4,-3,-6
1501881971836555,7,2,5,-7,6,0,2,13
1501881971836555,-10,-2,0,-11,-7,-6,-4,-5
1501881971848617,9,2,-4,8,0,-1,-3,-62
1501881971848617,3,-1,-14,-70,-2,-1,1,2
1501881971857556,1,-2,-15,-18,-6,-1,-2,21
1501881971857556,-2,-1,18,31,8,5,2,-26
1501881971872561,7,-2,-20,-2,-1,-4,-6,20
1501881971872561,-9,0,7,6,-2,-1,3,5
1501881971874560,4,-3,-8,-21,-3,-6,-9,-10
1501881971874560,-14,4,4,38,5,3,6,-20
1501881971894622,15,-8,4,-28,-11,-5,-6,24
1501881971894622,-5,-1,-11,40,2,-1,-1,3
1501881971896597,26,2,-1,-82,-7,-5,-5,-3
1501881971896597,12,-2,1,39,4,1,1,3
1501881971908580,3,1,-19,-45,7,7,1,-37
1501881971908580,-25,5,17,9,-5,4,2,-70
1501881971917562,-21,-4,9,27,1,-1,-1,0
1501881971917562,7,3,-10,0,0,-3,2,8
1501881971932625,-3,-1,4,-25,-3,-2,-2,15
1501881971932625,20,3,7,6,9,-1,0,30
1501881971933567,0,-1,5,-7,-5,2,-1,-16
1501881971933567,-2,-3,8,-24,-12,-6,-4,-2
1501881971954592,-12,0,-12,-17,4,-1,-2,13
1501881971954592,-13,-1,-13,31,-2,-3,0,-14
1501881971956581,-4,-1,36,18,4,1,2,-6
1501881971956581,26,2,-18,-8,-2,-1,-5,-29
1501881971968602,-11,-1,7,-12,-1,-1,-2,-26
1501881971968602,17,1,10,9,0,0,0,16
1501881971977563,-7,1,-8,15,0,0,-1,-10
1501881971977563,0,0,19,36,5,0,7,23
1501881971992566,-22,-5,-11,-23,-12,-3,-1,0
1501881971992566,20,3,10,18,6,0,-4,-3
1501881971993565,-2,-2,-9,29,-4,5,6,14
1501881971993565,-11,-3,-23,-42,-6,-5,-4,-6
1501881972014569,-10,-4,-3,1,-4,-6,-3,1
1501881972014569,-12,0,-1,-21,0,0,0,-26
1501881972020570,0,-3,7,23,-2,-3,-7,-14
1501881972020570,-29,-4,-3,-7,0,2,6,-10
1501881972037568,18,1,0,30,1,-2,-4,-15
1501881972037568,-6,-4,3,-5,-2,-2,-3,14
1501881972038567,16,3,-1,-21,11,6,6,34
1501881972038567,-14,3,-3,1,-6,1,-4,-14
1501881972052572,-14,-4,11,16,-8,-3,0,41
1501881972052572,9,-4,-17,-30,-6,-2,0,11
1501881972053569,-3,-3,-1,15,2,-2,2,-5
1501881972053569,-1,1,6,-8,2,-1,-4,2
1501881972074571,-8,4,-1,21,7,3,2,-1
1501881972074571,-11,-5,-21,-21,-1,-1,-1,64
1501881972076570,-19,-2,6,17,-3,-3,-4,-45
1501881972076570,-1,-6,1,-4,-8,-2,-5,-3
1501881972097570,40,2,-3,-16,0,-4,-1,26
1501881972097570,-3,2,19,-13,-6,0,2,-10
1501881972098570,-1,-3,-34,-5,2,-1,-1,-26
1501881972098570,5,2,2,-8,3,3,0,16
1501881972112574,-27,-6,-13,-2,1,-1,-3,-25
1501881972112574,16,4,12,8,2,1,3,24
1501881972114572,8,-4,-11,-40,-4,-6,-5,16
1501881972114572,-16,-5,-2,42,1,-1,-3,-2
1501881972134573,15,-5,-12,-21,-8,-4,2,-4
1501881972134573,-2,5,8,30,11,5,-1,19
1501881972136574,16,-2,-3,-44,-19,-5,1,-39
1501881972136574,-6,2,-2,-5,6,3,0,12
1501881972157576,-17,-3,10,15,-4,-6,-1,-16
1501881972157576,21,-1,8,27,1,-2,-2,19
1501881972158580,25,0,5,-1,2,-2,7,66
1501881972158580,4,0,-11,-32,-4,0,-2,-2
1501881972171577,-15,4,1,2,2,6,3,-9
1501881972171577,29,-3,10,18,-5,-3,-2,-35
1501881972178578,-45,-8,-5,52,7,-2,-3,12
1501881972178578,-17,-1,-6,-53,-10,-3,0,-29
1501881972194590,20,3,1,1,3,-1,-1,7
1501881972194590,-4,0,-10,-32,-5,-2,0,3
1501881972196577,3,-1,4,23,0,2,-2,-15
1501881972196577,9,-3,10,43,11,1,0,8
1501881972217579,1,-7,-13,-45,-10,-3,-3,7
1501881972217579,-9,4,5,2,3,-1,0,-5
1501881972218579,-27,-2,-15,-29,-5,0,-4,-17
1501881972218579,12,1,2,11,4,0,2,58
1501881972231592,11,1,3,25,2,4,3,-14
1501881972231592,-8,0,-4,-41,-2,-1,-1,-21
1501881972238585,-21,-5,-2,15,2,-2,-2,13
1501881972238585,18,2,6,7,-6,-9,0,1
1501881972254590,-9,1,5,17,9,9,3,22
1501881972254590,-16,-9,-14,-20,-17,-7,-5,-41
1501881972256584,17,4,-10,-40,-2,0,-1,7
1501881972256584,-15,-10,-16,-17,-9,-3,-5,-18
1501881972277583,13,5,13,65,1,-5,-2,6
1501881972277583,-10,-3,-4,19,2,0,0,-4
1501881972278581,2,7,20,-4,6,1,0,-22
1501881972278581,-5,-4,-11,-16,-1,-2,0,-8
1501881972291583,-9,-3,-24,-68,-11,-2,-4,-30
1501881972291583,-8,-5,-2,12,-2,-2,0,10
1501881972298582,15,2,-1,-16,2,0,-4,6
1501881972298582,12,1,7,-14,4,2,-1,-3
1501881972314583,-4,-3,-8,42,1,1,0,53
1501881972314583,-11,-2,2,-7,0,-1,0,15
1501881972316585,15,-1,-10,-11,-3,1,1,24
1501881972316585,-21,1,13,17,-5,-8,-6,-20
1501881972344602,16,1,8,-16,8,8,1,0
1501881972344602,-27,-3,4,58,3,-1,-4,-11
1501881972347587,32,-6,-27,-94,-19,-6,-2,16
1501881972347587,1,6,5,10,8,7,3,14
1501881972351586,-9,-2,3,-23,-10,-2,0,-16
1501881972351586,4,-1,-2,54,2,1,-1,31
1501881972358586,-30,2,17,36,4,-3,0,-30
1501881972358586,4,-4,-9,-25,-1,4,-2,2
1501881972374587,18,-2,8,37,3,-5,-1,32
1501881972374587,-6,1,3,-15,3,3,-1,14
1501881972376589,13,1,6,30,-1,2,0,9
1501881972376589,-10,0,-6,21,5,0,-1,-17
1501881972397644,-30,-4,5,-49,-15,-3,-1,6
1501881972397644,24,-1,-3,-30,-8,-4,-3,-1
1501881972398609,13,2,6,5,1,0,1,-1
1501881972398609,13,1,3,21,5,5,5,17
1501881972411589,-18,-4,3,13,5,-1,0,-13
1501881972411589,-8,4,-10,-43,-7,-9,-4,-8
1501881972418627,-9,-4,7,-6,-6,2,-2,-26
1501881972418627,30,-1,9,54,2,1,1,46
1501881972434650,-15,4,3,-15,-2,-1,-4,-61
1501881972434650,-2,-10,-11,-10,-1,0,0,-17
1501881972436609,-6,-1,-11,20,7,2,0,-13
1501881972436609,-17,-3,-21,-61,-22,-8,-5,-16
1501881972457592,4,0,4,-13,-2,-5,-1,7
1501881972457592,10,3,16,28,6,3,-2,17
1501881972458591,-7,-3,-17,-55,-3,-6,-1,-5
1501881972458591,-4,-4,-5,-7,0,1,1,-2
1501881972471593,8,-4,-4,17,-1,-4,-4,-12
1501881972471593,-1,3,17,-24,7,1,0,-3
1501881972478595,6,-6,-23,46,-5,-3,-1,16
1501881972478595,-11,-4,7,11,1,-4,-3,-13
1501881972494594,20,2,-4,36,3,-1,-1,-2
1501881972494594,8,0,4,-33,-10,0,4,5
1501881972496594,0,4,11,-15,-3,0,0,24
1501881972496594,-24,-1,3,11,-2,-2,-1,-55
1501881972517601,-5,-7,-31,-58,-2,-6,-9,-22
1501881972517601,0,0,8,19,1,-1,4,-13
1501881972518595,-1,1,3,-17,-1,2,-3,16
1501881972518595,10,6,5,41,2,1,1,4
1501881972530597,-3,-3,0,13,7,3,-1,11
1501881972530597,-45,3,5,-7,-1,-3,-4,-34
1501881972539598,0,0,6,40,6,0,-3,-6
1501881972539598,12,2,-5,-53,-4,0,0,17
1501881972554598,-15,-3,-4,-14,-4,0,0,-10
1501881972554598,27,-3,-12,-15,-4,-2,-3,34
1501881972556598,8,-2,7,17,3,2,1,-38
1501881972556598,2,2,1,1,1,3,1,-5
1501881972577599,23,3,2,-19,-5,-5,-2,-8
1501881972577599,-10,-4,-10,10,0,2,1,-3
1501881972578598,-8,0,6,43,5,-1,1,8
1501881972578598,3,-2,3,-40,-5,-2,-3,-5
1501881972590602,-6,-2,-15,4,-2,-2,0,-1
1501881972590602,5,1,9,2,5,1,0,-10
1501881972599600,-2,1,6,12,-4,1,-2,-13
1501881972599600,11,-2,-14,-22,-4,-5,-4,25
1501881972614601,-17,0,15,7,4,-5,1,7
1501881972614601,4,-4,-13,0,-5,2,-5,-8
1501881972616615,-3,1,8,14,4,1,-1,-8
1501881972616615,-11,-7,-4,21,4,1,2,5
1501881972637602,14,3,11,-19,-5,-2,-2,-26
1501881972637602,24,0,8,52,1,-3,-2,18
1501881972638602,-13,-3,-20,-78,-16,-5,-4,2
1501881972638602,-13,3,5,23,8,4,1,-3
1501881972650618,14,-5,-4,-15,0,-3,-4,26
1501881972650618,-5,-2,-8,6,-5,0,1,2
1501881972659603,7,1,3,19,2,-1,5,-8
1501881972659603,-28,-3,7,7,-5,-4,-2,-2
1501881972674605,-2,1,-8,9,2,2,0,-2
1501881972674605,5,-3,-11,-36,-1,-1,-3,6
1501881972676604,-8,-3,9,13,-7,-7,-4,-5
1501881972676604,18,-1,5,18,4,-2,-1,13
1501881972697605,-5,-3,2,-3,-11,-2,-1,6
1501881972697605,-12,0,-5,-2,2,3,0,-7
1501881972698606,-3,1,-5,-41,1,4,0,5
1501881972698606,-12,-2,2,29,-5,-3,-1,-29
1501881972710608,22,-2,4,23,3,2,2,-2
1501881972710608,15,1,-7,-21,-2,-1,-1,-2
1501881972719608,-12,-7,4,2,0,-7,-6,-35
1501881972719608,15,-1,-10,-16,-6,3,-3,7
1501881972734684,-10,0,-5,17,1,-2,-1,5
1501881972734684,-38,2,8,19,1,1,1,-25
1501881972736629,9,0,0,-58,2,5,2,24
1501881972736629,-2,-3,0,74,3,-1,-3,-15
1501881972757626,8,-3,-6,-44,-12,-4,-4,27
1501881972757626,-10,-3,0,-16,-5,-5,7,7
1501881972758611,-7,-1,-4,21,7,3,0,-13
1501881972758611,0,-1,-6,-19,-2,-2,-2,7
1501881972770629,-8,2,4,15,3,2,-1,-11
1501881972770629,12,5,7,17,8,2,-2,-18
1501881972779619,18,-5,-22,-20,-18,-5,-2,17
1501881972779619,-1,-6,5,-4,-7,-4,-1,22
1501881972794672,1,0,2,15,4,1,-1,-1
1501881972794672,-10,-2,-1,-20,2,-1,0,20
1501881972796612,25,0,-3,27,3,-4,-3,20
1501881972796612,-14,4,3,-2,4,1,2,6
1501881972817633,4,-6,-8,-35,-3,-2,-2,-13
1501881972817633,-5,-1,3,70,-1,-2,-2,10
1501881972818615,-7,-7,-26,-79,-2,1,1,11
1501881972818615,8,0,-2,-19,-5,-1,2,0
1501881972830655,-17,1,12,20,5,1,2,-20
1501881972830655,12,-7,-9,-43,-7,-6,-2,-12
1501881972839617,-18,1,2,45,6,1,-2,7
1501881972839617,18,3,9,-21,-6,-4,2,54
1501881972854614,-12,5,-2,16,0,8,7,-45
1501881972854614,-5,-4,-3,-26,-4,0,1,0
1501881972856616,2,0,6,12,-3,-3,-2,10
1501881972856616,-1,1,4,5,5,0,-3,-6
1501881972877617,-23,-5,-29,-33,-6,-5,-5,3
1501881972877617,37,-1,-17,-14,-1,-2,-2,28
1501881972878621,-25,-1,18,57,5,2,2,-15
1501881972878621,-4,-2,-3,-105,-15,-5,-3,8
1501881972899652,8,-3,3,39,7,0,-3,11
1501881972899652,-10,-2,0,12,0,-2,-3,-13
1501881972901621,1,1,3,-3,-3,-3,-3,-8
1501881972901621,-9,-1,7,22,3,0,0,8
1501881972914637,6,-2,-3,5,0,1,1,-3
1501881972914637,-3,-1,0,-12,-2,1,-2,0
1501881972916659,10,2,10,10,1,-3,-2,2
1501881972916659,-10,-5,-11,-18,-1,0,-1,-19
1501881972937621,-8,1,4,4,1,-4,0,6
1501881972937621,-8,-1,0,5,-3,-3,-2,-15
1501881972938620,-4,0,-5,-2,4,4,1,-5
1501881972938620,12,-1,2,-5,3,0,1,27
1501881972959622,-11,2,11,20,-1,0,1,-12
1501881972959622,-5,0,-4,8,0,-3,-1,-12
1501881972961623,8,0,1,-4,-2,-3,-3,-2
1501881972961623,4,-6,-24,-23,-6,-4,-3,-25
1501881972974632,-6,1,3,12,9,1,0,10
1501881972974632,7,3,8,-43,-16,-6,-3,16
1501881972976643,-16,-3,-2,-11,2,1,-6,-23
1501881972976643,11,3,3,55,4,2,-2,-6
1501881972997622,5,-2,-5,-32,-15,-6,-1,14
1501881972997622,-6,0,-6,-1,3,0,-3,-13
1501881972998623,-4,0,6,2,-2,-3,0,5
1501881972998623,1,-3,-2,11,-1,-1,-2,-13
1501881973019628,-7,-4,-8,-21,-1,0,-3,5
1501881973019628,-1,-1,5,3,0,-3,1,-2
1501881973021625,5,-1,-5,-24,-7,0,1,7
1501881973021625,-10,4,1,33,9,3,0,-15
1501881973034626,6,0,7,-31,4,2,1,5
1501881973034626,-10,-7,-10,-34,-5,-1,-1,-4
1501881973036626,12,-5,1,40,3,-4,2,70
1501881973036626,14,-1,-2,12,-7,-2,-4,-19
1501881973057627,-1,3,17,21,5,2,2,-7
1501881973057627,-7,-4,-27,9,2,0,1,-5
1501881973058628,-19,-1,5,-32,2,0,-1,3
1501881973058628,-10,-3,-4,-32,-2,-1,0,21
1501881973079628,-1,2,5,35,0,-2,-4,-12
1501881973079628,-11,0,8,-22,-10,-1,2,2
1501881973081633,-14,-7,-16,-3,-9,-6,-4,-15
1501881973081633,3,0,0,1,1,0,2,-11
1501881973093629,-1,-7,-15,-8,-7,-4,-4,14
1501881973093629,-2,1,4,7,4,6,0,-1
1501881973100629,27,7,15,32,6,3,4,20
1501881973100629,-13,-4,-6,-8,-3,-5,0,11
1501881973117630,-19,-1,-5,15,-1,0,-2,-28
1501881973117630,2,-1,9,31,6,-1,-3,5
1501881973118630,5,3,-4,-33,-9,-1,1,0
1501881973118630,7,-2,-10,43,2,3,-1,0
1501881973139632,2,-6,-12,-28,-13,-5,-1,23
1501881973139632,8,0,-3,-32,-13,-4,-2,7
1501881973141633,12,2,7,-4,3,1,-1,-43
1501881973141633,1,-3,-5,-6,-2,-5,-8,2
1501881973153632,5,2,8,12,8,4,0,-1
1501881973153632,2,0,4,9,-1,2,-2,-12
1501881973160634,-14,-6,-15,-6,-2,-4,-2,-11
1501881973160634,15,8,10,12,5,2,0,-8
1501881973176634,16,-5,0,-30,-4,-4,-1,14
1501881973176634,-26,-2,5,30,3,0,-2,-75
1501881973178635,-5,0,-11,-24,-10,-3,-3,0
1501881973178635,-3,0,2,6,4,-1,1,-10
1501881973207637,-14,1,-1,19,3,2,-1,-13
1501881973207637,3,-2,8,-8,-2,-1,3,26
1501881973208635,-12,-6,-9,-11,-4,-3,-1,-23
1501881973208635,0,-3,-4,4,-1,1,-2,-11
1501881973213637,27,5,-6,-16,2,-2,0,31
1501881973213637,13,-2,5,31,4,-2,-2,14
1501881973220637,-3,1,1,27,4,3,-1,-5
1501881973220637,-7,0,8,-32,-12,-1,0,6
1501881973236638,-13,-3,-6,-11,-8,-5,-3,-12
1501881973236638,7,0,-11,-26,0,0,-2,9
1501881973238637,5,1,2,45,0,-4,4,-11
1501881973238637,12,-3,25,2,1,2,0,-8
1501881973259638,-38,-4,-22,-15,0,-1,-2,15
1501881973259638,16,-1,5,13,0,-2,-2,-9
1501881973261640,-2,0,0,33,4,0,-1,-9
1501881973261640,7,-2,-6,-42,-5,-1,1,24
1501881973273642,6,-7,-9,5,-6,-3,-2,-3
1501881973273642,-2,2,-1,-1,3,-1,1,6
1501881973280641,-3,0,-3,-30,-4,0,-3,25
1501881973280641,-15,-6,-8,17,1,-1,-3,-11
1501881973297642,14,2,4,-21,1,0,-2,-4
1501881973297642,-4,-2,-4,28,0,-2,0,67
1501881973298642,23,-4,-3,-9,-2,-1,-2,-7
1501881973298642,-4,4,4,18,1,0,2,-4
1501881973319656,-19,3,-1,-26,0,2,-1,-79
1501881973319656,-15,-2,4,62,9,2,2,2
1501881973321645,20,1,12,-36,-14,1,-5,9
1501881973321645,-10,-6,-24,-49,-5,-6,-3,-5
1501881973333644,10,-1,6,18,2,0,-1,20
1501881973333644,3,-3,-17,-33,0,4,-1,-13
1501881973340643,-5,2,10,45,11,3,2,-3
1501881973340643,-17,-3,1,-35,-6,-2,-3,-14
1501881973357647,9,3,-14,-14,-8,-7,1,17
1501881973357647,-23,2,6,13,-6,-4,-3,-46
1501881973358644,-18,-2,0,20,6,1,-2,-45
1501881973358644,10,0,-8,-17,-14,-3,-3,1
1501881973379649,6,0,9,12,6,4,3,14
1501881973379649,-10,-2,-10,-41,-7,-1,0,3
1501881973381647,-16,0,-1,6,-4,-3,-2,22
1501881973381647,0,4,6,20,6,-1,-2,-17
1501881973393663,-18,1,9,28,4,3,2,-13
1501881973393663,-9,-3,-8,-39,-3,-1,0,0
1501881973400649,7,-1,7,1,-7,-6,-3,-6
1501881973400649,1,-2,-6,19,5,1,1,-1
1501881973417649,4,0,5,20,2,0,1,15
1501881973417649,1,2,8,-25,2,-2,3,20
1501881973418648,-4,-3,-4,5,1,1,-4,-24
1501881973418648,-11,-2,-19,-77,-3,-2,-3,-6
1501881973439651,9,-1,-6,7,1,5,1,-5
1501881973439651,0,-1,12,75,0,-5,-4,-15
1501881973441650,1,4,2,-25,-6,-3,1,18
1501881973441650,-2,-2,-1,21,0,0,-1,-49
1501881973453681,-9,-3,-2,0,-2,-2,-4,3
1501881973453681,-8,-7,-22,-43,-3,1,-2,8
1501881973462652,-2,-3,-2,13,1,-6,-2,-7
1501881973462652,-16,5,10,18,10,7,1,3
1501881973477654,27,-3,-1,-4,-7,-3,0,11
1501881973477654,-16,1,-1,-22,1,2,-1,-5
1501881973478652,3,-1,-10,-40,-8,-3,-3,15
1501881973478652,-6,-5,-7,27,1,-2,-1,23
1501881973499705,15,3,8,-1,0,-1,-1,0
1501881973499705,21,0,-8,-43,-4,-1,-1,-6
1501881973501674,2,2,18,90,8,-3,0,8
1501881973501674,2,-1,1,22,-6,2,-1,18
1501881973521655,-12,-4,-5,13,2,-2,-4,-19
1501881973521655,10,-1,2,-23,-9,-3,-2,6
1501881973523654,-23,-5,-21,-46,-4,0,0,-7
1501881973523654,10,2,6,7,4,-2,1,2
1501881973536676,6,2,-1,-46,-1,-1,1,10
1501881973536676,-1,-4,7,91,0,0,-3,-1
1501881973538660,19,-3,-12,-6,7,2,0,-2
1501881973538660,-1,0,1,16,-7,0,2,-13
1501881973559656,-6,2,14,-7,2,-2,-3,16
1501881973559656,10,2,-6,-22,-1,-1,-1,-19
1501881973565705,-1,-1,3,10,5,0,0,14
1501881973565705,5,-5,-11,-33,-13,-2,-1,-17
1501881973573678,4,1,2,29,6,0,-1,4
1501881973573678,5,-4,-5,-24,-7,-2,-4,-20
1501881973582661,-30,1,2,-17,0,3,3,-13
1501881973582661,21,-3,-7,-39,0,-10,-4,6
1501881973597666,43,-1,10,78,-5,2,1,45
1501881973597666,-1,-1,7,19,8,5,1,10
1501881973598669,8,-1,-4,21,-1,-3,-2,-2
1501881973598669,7,2,1,-51,1,-4,-1,78
1501881973619677,-13,-1,-3,-12,-7,-2,-1,-39
1501881973619677,11,-1,3,7,6,2,1,2
1501881973621661,0,-2,-6,-28,-7,2,-3,-13
1501881973621661,-14,0,13,45,6,2,3,5
1501881973633672,-12,-1,-21,29,3,-4,-2,-4
1501881973633672,-14,1,5,-56,-10,-3,-1,-2
1501881973642666,1,1,11,-20,1,0,1,13
1501881973642666,-14,-3,1,17,-1,-1,-4,-8
1501881973657662,-7,0,-5,-18,-3,-1,0,1
1501881973657662,-15,0,-1,32,5,-3,-3,-3
1501881973658661,29,0,-5,-73,-1,3,6,101
1501881973658661,-4,5,18,67,-3,-4,-2,-25
1501881973678694,-28,-10,-17,-42,-4,3,0,-17
1501881973678694,11,1,-1,13,3,-2,3,29
1501881973687664,-21,-3,5,26,-2,-5,-3,-8
1501881973687664,-2,-3,-13,-48,1,1,1,-7
1501881973693682,28,-2,10,16,0,-3,-2,-6
1501881973693682,24,4,8,53,3,1,2,17
1501881973702670,-11,-1,1,-66,-12,2,0,-33
1501881973702670,-8,-1,-7,0,-3,-3,-3,-24
1501881973717672,-15,-5,-8,11,2,-5,-2,-10
1501881973717672,-7,-1,-9,-49,-12,-1,-1,-6
1501881973718665,7,0,0,28,2,-1,-2,-22
1501881973718665,0,-3,0,13,-3,2,-2,-1
1501881973739666,-2,0,7,-5,2,-1,-2,7
1501881973739666,-2,-2,15,14,1,-2,-1,1
1501881973741668,17,-5,-23,24,5,-6,-5,6
1501881973741668,-3,3,0,-35,-12,-6,1,3
1501881973753689,-5,1,7,12,5,7,1,-9
1501881973753689,0,0,0,-12,3,2,2,-8
1501881973762689,-18,1,-1,-14,-2,1,-1,-33
1501881973762689,10,-5,5,60,3,-2,-1,-9
1501881973776694,-10,1,1,-14,-3,-4,0,-11
1501881973776694,13,-1,-4,-1,3,2,-1,16
1501881973778669,6,-5,2,10,-4,-1,-3,3
1501881973778669,5,1,-9,0,-1,0,0,-6
1501881973799722,-1,0,15,-13,-1,2,1,25
1501881973799722,1,-5,-23,-5,-7,-6,-4,-53
1501881973801689,9,1,-4,27,7,1,2,36
1501881973801689,-22,1,1,-70,-8,3,0,-20
1501881973813671,20,1,4,37,-3,-3,-5,8
1501881973813671,-18,1,6,1,-2,1,2,-1
1501881973822674,19,1,2,-2,-6,-2,0,6
1501881973822674,15,-1,-1,12,3,0,-4,-17
1501881973844703,-20,-2,-4,-8,8,2,0,-10
1501881973844703,5,-1,1,-27,-9,-8,-4,18
1501881973847701,-4,-3,-1,7,-1,5,0,-21
1501881973847701,-2,2,-1,5,6,3,0,30
1501881973859674,-9,0,1,31,4,-2,0,-6
1501881973859674,-14,-4,-6,-46,-3,-4,-4,-11
1501881973861693,-3,-3,-13,-33,-6,-4,-2,-2
1501881973861693,-21,-1,4,11,4,4,4,8
1501881973873694,8,0,-9,-33,-7,-3,-1,-6
1501881973873694,-1,0,14,48,7,3,0,12
1501881973882675,-15,-1,-7,-10,-1,-1,0,-7
1501881973882675,6,-2,4,18,-6,-5,-1,10
1501881973896713,4,-2,-4,-10,-6,-3,-2,-13
1501881973896713,14,1,4,-2,4,2,0,24
1501881973898676,-12,-2,14,46,2,-3,-2,-34
1501881973898676,-8,1,-8,-26,6,4,1,-13
1501881973919738,4,-3,-9,-37,-10,-4,-1,20
1501881973919738,-4,-2,-12,-2,7,2,-5,-13
1501881973921696,-19,0,4,26,-1,-1,0,2
1501881973921696,18,0,3,12,1,-2,-1,-13
1501881973941698,17,3,-2,19,3,5,2,5
1501881973941698,-51,-2,9,-24,-2,0,1,-10
1501881973943682,-2,-8,-15,-4,-3,-3,-3,-4
1501881973943682,-5,-2,-12,-4,-2,-1,-1,22
1501881973956701,13,2,19,56,9,-3,1,-2
1501881973956701,5,-2,2,-38,-12,-5,-5,4
1501881973963680,-5,3,-2,-31,0,-1,-1,-5
1501881973963680,-5,-3,-1,-4,-4,-4,0,16
1501881973978682,1,-4,-11,7,-2,-2,-5,-17
1501881973978682,8,2,3,31,3,2,2,5
1501881973987682,4,1,7,-6,0,1,0,-6
1501881973987682,3,-6,-22,-26,-3,-3,-3,-5
1501881974001682,-18,-2,-7,-23,1,-4,-1,6
1501881974001682,7,-2,12,37,-14,-3,0,5
1501881974003683,1,2,0,-28,-3,-4,0,7
1501881974003683,-1,2,15,60,6,5,1,-1
1501881974016685,-10,-3,-3,-11,-2,0,1,-14
1501881974016685,10,-3,-17,7,5,0,0,2
1501881974018685,-35,-1,5,-27,-13,-1,-2,-38
1501881974018685,-20,-1,-5,-10,0,-5,-6,-5
1501881974039684,14,2,7,8,-4,0,0,10
1501881974039684,-24,-1,2,26,4,2,3,11
1501881974041686,15,0,-1,5,0,-3,-2,2
1501881974041686,13,0,4,-24,-5,0,-2,-39
1501881974061686,-46,-7,-7,-26,-3,-2,-3,0
1501881974061686,8,0,-1,13,3,-2,-1,-11
1501881974063686,-7,-2,1,-16,-10,-5,-1,27
1501881974063686,-10,0,-1,-48,-1,3,-1,-12
1501881974076687,16,0,8,26,-2,-4,-1,-3
1501881974076687,5,4,4,26,5,1,1,-21
1501881974083687,-3,-5,-16,3,1,-1,-1,6
1501881974083687,11,0,-7,-10,-3,-2,-1,14
1501881974099707,-3,5,-2,-2,-3,1,-1,-1
1501881974099707,3,-2,1,0,2,0,-2,6
1501881974101688,2,1,3,19,6,0,-1,6
1501881974101688,10,-4,0,22,-3,-3,-3,-51
1501881974122689,7,-2,-15,-46,-4,-6,-7,12
1501881974122689,-2,1,-2,-19,-6,0,2,0
1501881974123690,4,-3,-1,4,6,2,-1,-12
1501881974123690,-5,1,0,35,5,-2,-1,22
1501881974136689,5,-4,6,-17,-5,1,1,-4
1501881974136689,25,0,-17,-38,-3,-4,-4,2
1501881974143697,5,0,12,43,0,-1,-1,-21
1501881974143697,-13,-2,-1,13,4,1,2,10
1501881974159691,-4,-3,-8,0,-5,-1,0,3
1501881974159691,-13,2,3,-11,-1,0,0,18
1501881974161692,0,-5,-9,12,3,1,-2,-1
1501881974161692,5,-1,10,-16,-11,-3,-4,10
1501881974181708,-2,-2,-10,-31,-3,-2,1,-10
1501881974181708,26,0,-4,28,3,-4,1,46
1501881974183693,-30,4,3,10,11,5,-3,-75
1501881974183693,13,-1,5,-7,-8,-2,-1,3
1501881974196708,-9,-3,-2,3,-2,-1,1,14
1501881974196708,-7,-3,2,7,-1,-3,-2,-9
1501881974203694,14,2,2,25,-1,-2,1,26
1501881974203694,-8,2,7,-11,2,0,1,22
1501881974219736,-2,-4,-3,-25,0,1,-2,3
1501881974219736,-25,-1,-2,-17,-7,-1,0,-21
1501881974221717,25,0,-13,-37,-7,1,1,13
1501881974221717,-27,-8,-6,2,-4,-3,-4,3
1501881974241743,12,5,13,21,5,-2,0,31
1501881974241743,-19,0,-3,14,-2,-4,-3,-14
1501881974243700,31,2,14,15,3,-1,-3,2
1501881974243700,2,-5,-22,0,5,3,0,-9
1501881974256699,-5,-1,-1,0,-2,-1,3,27
1501881974256699,-32,1,10,10,-1,1,-6,-37
1501881974263701,5,-5,-5,-17,-8,-4,-2,4
1501881974263701,11,2,3,-4,6,0,1,9
1501881974279703,-12,1,5,11,2,3,1,-26
1501881974279703,27,-3,0,-27,-3,-3,-2,46
1501881974281720,-22,-4,-8,-3,-5,-4,1,14
1501881974281720,4,1,7,14,3,-1,0,0
1501881974301717,-9,1,-1,0,-3,0,-1,-22
1501881974301717,10,3,-3,-9,0,-1,0,1
1501881974303701,-14,-3,-7,36,0,2,1,-4
1501881974303701,21,-3,-8,-56,-8,-3,-2,27
1501881974316717,-5,1,3,19,3,1,0,-18
1501881974316717,12,0,-6,44,7,-3,0,-16
1501881974323704,4,4,10,-48,-5,6,0,13
1501881974323704,-4,-4,1,-3,0,1,3,1
1501881974339707,-4,-4,-2,-14,-6,-6,-4,-2
1501881974339707,-6,-3,-9,12,1,-3,-3,-25
1501881974341725,-10,0,8,2,4,0,3,10
1501881974341725,-22,0,0,25,-1,0,1,5
1501881974361721,24,1,-2,29,6,-1,-2,-20
1501881974361721,14,3,-5,-41,-9,0,2,6
1501881974363704,-15,-2,-8,-28,-4,-3,-2,2
1501881974363704,8,0,9,-7,-1,0,0,-2
1501881974376709,-14,-1,-6,32,-2,-1,-1,-8
1501881974376709,5,-4,7,12,-1,-2,-4,4
1501881974383736,20,0,-10,10,-2,-5,0,0
1501881974383736,-8,0,0,-43,-5,2,-3,-16
1501881974399763,-1,2,9,-6,3,1,2,4
1501881974399763,-1,-9,-17,-26,-8,-3,-2,0
1501881974401706,-4,0,4,30,1,-2,-2,5
1501881974401706,-4,-2,-10,31,7,-1,1,11
1501881974421707,3,5,12,-13,-14,0,-2,-67
1501881974421707,-15,-3,-1,-7,-1,-1,0,-17
1501881974423706,7,-4,8,-7,-1,-4,-1,4
1501881974423706,2,-3,-21,4,-7,-8,-4,2
1501881974435725,-1,-1,3,-14,6,8,3,51
1501881974435725,-5,1,6,11,2,1,3,-9
1501881974445711,-7,-3,-7,-19,-5,-2,-2,-11
1501881974445711,-5,-1,16,8,-5,-6,-6,57
1501881974459712,1,-5,-15,11,0,-3,-2,-2
1501881974459712,-2,1,4,32,4,7,1,-6
1501881974461724,6,3,3,-51,-1,0,-1,8
1501881974461724,-11,0,0,18,1,0,0,-8
1501881974482723,16,-7,-4,-29,-8,-6,-5,8
1501881974482723,1,-4,-4,-13,0,0,-2,1
1501881974483734,22,5,0,-11,4,3,3,47
1501881974483734,-21,-3,7,68,-3,0,-2,-38
1501881974495756,13,-3,-11,3,-1,-4,-1,0
1501881974495756,-8,1,2,-1,-2,-2,-2,-15
1501881974504713,0,0,7,-6,-1,0,1,8
1501881974504713,7,-2,-7,-15,3,0,-1,-3
1501881974519769,-15,-3,-17,1,-13,-9,-5,-3
1501881974519769,0,-7,3,-2,-2,3,1,17
1501881974521731,-18,1,-3,-1,1,2,-1,0
1501881974521731,10,4,8,7,2,0,3,-12
1501881974541735,-14,-3,-10,-7,2,-2,-1,-4
1501881974541735,1,2,-2,6,3,-1,-3,2
1501881974543735,-6,-3,1,10,-3,-1,-5,-42
1501881974543735,7,-3,4,-19,-7,-5,-3,35
1501881974555720,-5,0,6,9,4,0,-2,-22
1501881974555720,-4,-2,-1,23,4,-2,-2,-16
1501881974564715,-10,-6,-10,-17,-7,0,0,4
1501881974564715,-1,3,5,-18,2,1,0,20
1501881974579738,-11,-6,-19,-7,-4,-5,-4,-10
1501881974579738,2,1,-4,-15,0,2,1,-1
1501881974581720,-2,-1,1,29,2,0,0,-15
1501881974581720,10,1,-13,-23,-2,0,-1,-8
1501881974601738,-12,3,23,31,2,0,-1,20
1501881974601738,35,0,-10,-7,-5,-9,0,7
1501881974603717,-9,-1,-1,1,3,3,1,-12
1501881974603717,-2,2,0,-4,3,3,2,-27
1501881974615779,5,-6,-10,-19,-9,0,-4,16
1501881974615779,-11,0,-3,-39,-4,-3,-1,1
1501881974624718,8,-2,9,52,0,-6,-4,22
1501881974624718,16,-5,-6,-13,-8,-5,-4,-4
1501881974639720,0,4,11,-3,1,2,2,-4
1501881974639720,-18,-4,-15,-44,-5,-3,-4,1
1501881974641719,-4,-2,-7,34,-1,-3,0,1
1501881974641719,-19,1,8,20,3,3,1,19
1501881974661725,-18,-3,-2,-15,-3,-6,-5,-11
1501881974661725,-1,4,4,6,-1,3,3,0
1501881974663720,-4,-5,-3,-3,2,1,-1,-24
1501881974663720,8,-4,-4,4,2,0,-2,2
1501881974675721,27,-1,3,-21,0,-1,4,15
1501881974675721,-16,-2,3,0,-6,-6,-2,-10
1501881974684742,-20,7,7,-1,0,2,-1,-15
1501881974684742,13,-6,-13,19,-1,0,-1,-11
1501881974699789,-2,2,0,5,4,4,0,15
1501881974699789,-1,-2,-4,-16,-1,-2,-3,-25
1501881974701725,6,-1,-5,-34,-6,-5,-1,15
1501881974701725,-7,0,3,12,-2,-1,0,-13
1501881974721723,3,2,13,35,15,5,1,-10
1501881974721723,9,0,-9,-34,-13,-2,-2,16
1501881974723735,3,-1,6,3,0,-1,-2,17
1501881974723735,17,0,-5,-8,0,-5,-3,-32
1501881974735726,-17,-2,-4,-15,-2,2,2,-3
1501881974735726,13,0,12,25,5,3,-1,12
1501881974745732,-4,-1,-4,-10,-2,-2,-2,-12
1501881974745732,-13,-5,-16,-5,-3,-3,-1,28
1501881974759726,26,-1,-18,-7,0,-5,-4,2
1501881974759726,-14,-4,3,5,1,2,0,-16
1501881974761727,-6,1,1,-5,0,0,1,-6
1501881974761727,6,3,4,25,6,-1,1,-1
1501881974781757,-8,0,0,-50,-18,-3,-4,-10
1501881974781757,1,1,1,32,1,-3,0,6
1501881974783733,8,-1,-6,-6,2,1,-2,4
1501881974783733,-10,-1,3,20,0,-2,-2,-16
1501881974795756,1,-2,-2,-38,1,1,0,4
1501881974795756,3,-1,7,12,0,-3,-2,20
1501881974804729,9,-3,-6,2,-5,-2,0,31
1501881974804729,-8,3,-5,-76,-1,1,-2,-23
1501881974819788,-11,0,19,106,-1,-5,0,-5
1501881974819788,-32,-14,-30,16,-4,-5,-4,-9
1501881974821748,9,2,-2,-43,-6,1,-1,-4
1501881974821748,-20,-2,2,-15,2,2,3,-11
1501881974842757,-13,2,-11,-45,-3,-2,1,4
1501881974842757,5,4,19,26,5,2,1,13
1501881974848747,9,-5,-4,24,1,-2,-1,-17
1501881974848747,-7,-2,-6,-15,-2,1,-2,-23
1501881974864733,-5,0,7,-1,-1,2,0,-7
1501881974864733,20,-1,-5,-42,-4,-5,-1,60
1501881974866737,-10,-4,2,46,5,1,0,-20
1501881974866737,7,0,-1,71,2,-1,0,6
1501881974879756,7,2,3,-24,5,2,0,-1
1501881974879756,-18,-1,-1,-53,-7,-1,-1,-17
1501881974881739,1,-2,-3,-39,-6,-1,-1,1
1501881974881739,15,1,6,23,-1,-3,-3,-8
1501881974901756,1,-2,0,36,5,2,1,0
1501881974901756,14,7,7,19,6,2,2,-13
1501881974903735,-30,-6,-22,-37,-7,-3,-4,-36
1501881974903735,-5,-3,10,23,-3,-3,-3,-5
1501881974924740,19,1,-2,11,3,-4,-4,2
1501881974924740,2,1,-10,-17,0,3,3,-9
1501881974926736,11,-1,5,-50,-1,-3,-2,9
1501881974926736,-5,-1,14,30,-3,-1,0,5
1501881974939758,-15,-8,-9,0,0,-1,-2,2
1501881974939758,1,0,3,22,-3,-3,1,51
1501881974941747,10,6,7,14,11,5,-1,-1
1501881974941747,-1,1,-1,-45,-5,-9,-1,13
1501881974961759,6,-4,-13,-12,-3,3,-3,4
1501881974961759,-8,-3,-2,-7,3,0,-2,-12
1501881974963741,12,1,-9,33,-3,-5,-1,-3
1501881974963741,7,-5,3,-10,0,1,0,20
1501881974984753,-16,1,11,1,-3,-2,1,-8
1501881974984753,-11,-6,-11,-15,0,1,-5,-16
1501881974986739,20,3,1,-9,-1,-2,-2,24
1501881974986739,10,-2,12,67,-1,-5,-7,-21
1501881974998755,-17,0,-1,-22,-1,-2,-1,0
1501881974998755,-1,0,5,23,3,1,-1,-33
1501881975005741,-3,-6,-3,-13,-3,-1,1,-9
1501881975005741,0,2,-19,-50,-8,1,0,15
1501881975021742,7,0,13,36,6,-1,-1,5
1501881975021742,5,-5,-1,8,-12,-4,-4,16
1501881975023742,-13,-1,0,44,6,0,-2,-49
1501881975023742,-16,-2,-5,-64,-8,1,2,-60
1501881975044743,6,1,4,0,3,2,1,25
1501881975044743,7,-2,0,-4,-1,0,2,9
1501881975046751,12,-4,-5,-3,-2,0,0,12
1501881975046751,-24,2,-3,1,-2,-1,-5,-19
1501881975058743,-2,-2,-3,-16,-4,-6,-1,-8
1501881975058743,5,2,13,22,1,0,0,-10
1501881975065748,-12,-3,-11,-15,-3,-1,-2,0
1501881975065748,10,-1,-2,7,6,2,-2,20
1501881975081746,-3,1,1,23,4,0,-1,15
1501881975081746,3,0,-10,-10,1,1,0,-6
1501881975083750,3,-2,-8,-55,-13,-5,-2,13
1501881975083750,11,-1,-1,21,1,0,0,4
1501881975104770,-20,0,0,-11,-3,-1,1,-12
1501881975104770,-9,-1,-1,-29,0,3,-1,-14
1501881975106747,-6,-1,5,23,2,-1,0,7
1501881975106747,7,0,2,-6,1,-1,1,17
1501881975118749,8,-1,-6,-34,-5,1,-3,-2
1501881975118749,-3,-6,-9,33,1,-3,-1,-20
1501881975125748,-4,2,11,25,1,2,0,-8
1501881975125748,-7,-6,-29,-53,-15,-1,-1,3
1501881975141749,6,2,-2,-2,0,-4,-2,-12
1501881975141749,-56,1,13,-17,-2,-4,-5,-73
1501881975144753,17,-6,-5,21,-5,-3,-5,29
1501881975144753,-1,2,2,4,8,2,4,46
1501881975164751,-3,-3,-7,-11,-5,-1,1,14
1501881975164751,1,-2,-3,-4,-6,-1,-2,-28
1501881975170751,-18,1,9,9,6,0,-1,-6
1501881975170751,-5,-3,5,-1,1,-2,-3,-1
1501881975178752,5,-1,-4,0,0,0,-2,-5
1501881975178752,14,-1,1,16,-1,0,0,21
1501881975185752,-1,-2,8,36,2,-3,-3,3
1501881975185752,-2,-3,-11,-41,-7,1,0,-9
1501881975201753,1,-3,-4,-11,-3,-4,0,6
1501881975201753,4,2,5,5,1,2,-1,1
1501881975203753,9,2,2,16,1,-5,-3,-5
1501881975203753,-24,1,-11,-13,0,3,-1,-40
1501881975224754,-4,-8,11,34,-2,-4,-4,-9
1501881975224754,10,1,-17,-43,-2,0,1,22
1501881975226754,-2,0,2,-19,0,-2,3,12
1501881975226754,17,1,-1,11,1,-1,-1,9
1501881975238755,-10,4,14,41,0,-4,-1,-11
1501881975238755,-4,-1,-11,-4,6,0,1,52
1501881975245782,12,-2,-16,-50,-17,-1,-3,5
1501881975245782,-9,0,17,39,8,0,0,-43
1501881975261774,20,-5,-26,-24,-5,-1,-5,20
1501881975261774,-3,3,9,21,6,-2,0,3
1501881975263758,-16,-1,9,10,1,3,2,-9
1501881975263758,-1,-1,-8,-17,-1,1,-1,10
1501881975284779,8,-2,1,4,-1,1,0,16
1501881975284779,1,-4,-5,-15,-11,-9,-4,-8
1501881975285758,-21,-4,-20,-9,0,3,1,-12
1501881975285758,-4,-1,1,-8,-12,-7,-6,-7
1501881975298806,12,0,-1,-21,4,3,2,-9
1501881975298806,-12,-3,-6,-2,0,0,2,-3
1501881975305786,1,2,13,13,3,-1,0,5
1501881975305786,7,-3,1,23,2,-1,0,17
1501881975321762,-9,-2,-10,-16,1,-2,-1,10
1501881975321762,7,0,4,13,-4,-2,-2,-16
1501881975323762,-6,1,2,-5,1,0,-1,0
1501881975323762,2,-2,1,-1,1,3,-2,-13
1501881975344760,-2,2,6,9,-4,-2,0,-16
1501881975344760,-10,0,-4,-17,0,2,-2,-1
1501881975346772,-1,-5,-14,9,-4,-5,-3,-8
1501881975346772,-3,1,5,-1,5,-2,0,12
1501881975366825,-3,-4,-3,-21,-14,-8,-5,-4
1501881975366825,16,0,0,-11,2,7,-1,-20
1501881975368762,2,3,19,64,1,0,2,11
1501881975368762,8,-10,-14,0,-6,-4,-3,17
1501881975381763,10,1,-6,-14,1,1,1,-2
1501881975381763,7,2,4,9,0,-2,2,25
1501881975383768,-3,-2,-13,-36,-2,-1,-2,-9
1501881975383768,-7,5,21,47,12,1,0,-12
1501881975404803,4,-7,-17,7,3,1,-3,-12
1501881975404803,4,1,-5,-56,-17,-4,1,40
1501881975406766,7,2,7,-5,3,2,-1,-39
1501881975406766,-9,0,3,22,-1,-3,-1,-14
1501881975418786,-3,-1,-2,-5,6,3,1,-3
1501881975418786,0,2,-4,10,3,0,0,-13
1501881975427770,4,0,9,1,-1,-5,-3,15
1501881975427770,-1,0,-3,4,-1,-1,0,-3
1501881975441767,-2,2,7,-8,-4,-7,-5,14
1501881975441767,2,-8,-8,28,3,3,0,-10
1501881975444766,-5,5,5,11,4,2,1,2
1501881975444766,6,-11,-28,-64,-9,-2,-3,14
1501881975463785,-27,1,12,48,3,-1,-5,-74
1501881975463785,14,-2,5,-15,-7,-6,-4,1
1501881975471767,-1,-5,-16,-11,1,-2,0,15
1501881975471767,-8,1,-2,-15,1,2,-1,-18
1501881975478769,-5,-3,-7,-4,-1,-1,-2,17
1501881975478769,6,0,11,49,5,-1,0,-6
1501881975486769,-4,-3,-7,-41,-4,2,-1,-13
1501881975486769,-10,-2,0,7,-7,-5,-2,16
1501881975501771,0,-3,9,9,1,1,-1,-1
1501881975501771,9,4,5,20,2,-1,1,-15
1501881975509773,-9,-1,0,-7,-4,-3,-1,10
1501881975509773,4,-1,-8,-38,-9,-1,-2,2
1501881975524775,3,2,2,-12,1,4,2,14
1501881975524775,-13,-7,-10,7,0,-6,-2,0
1501881975525772,-10,-2,4,-3,3,3,2,1
1501881975525772,8,4,6,4,1,-2,1,11
1501881975537789,-18,-2,-6,-13,-3,1,-1,-8
1501881975537789,20,1,1,-2,2,-3,-2,17
1501881975547778,1,-2,3,-26,-6,-2,1,0
1501881975547778,8,-2,2,34,1,0,0,-2
1501881975561791,-13,3,4,13,1,-1,1,7
1501881975561791,-4,2,9,-18,5,2,1,-5
1501881975563776,-8,-12,-15,10,-16,-6,-3,-8
1501881975563776,3,1,-3,-10,-1,-1,0,-17
1501881975584778,23,-3,-8,-14,-5,-4,-3,10
1501881975584778,-8,2,1,14,2,2,-2,-27
1501881975585777,-15,1,3,16,6,-1,-2,3
1501881975585777,-1,2,8,-25,-6,-7,0,1
1501881975598791,4,-3,-15,3,-1,6,3,4
1501881975598791,-20,-5,1,-11,-2,-1,-2,23
1501881975606777,17,6,-6,15,3,0,-2,-12
1501881975606777,-16,-4,11,10,3,0,-3,-22
1501881975621798,4,-2,-4,0,-8,-5,-3,-7
1501881975621798,0,1,-6,-26,-10,1,3,4
1501881975623776,-10,-1,6,-24,1,-1,-2,6
1501881975623776,1,-2,-11,26,6,-2,0,16
1501881975644799,-5,-1,7,22,-3,-2,0,-13
1501881975644799,0,0,-2,-16,0,1,-5,-5
1501881975646778,20,1,2,48,-1,-2,0,16
1501881975646778,-14,-1,-6,-35,-5,-1,-1,3
1501881975658779,9,0,-1,-13,2,1,-1,9
1501881975658779,-2,0,5,13,2,-1,0,10
1501881975667789,9,-2,-10,4,4,1,1,-9
1501881975667789,-26,-3,-2,-29,-5,-2,-3,2
1501881975682810,-5,0,-2,1,-6,-5,-2,2
1501881975682810,-4,1,0,8,9,3,3,34
1501881975683781,-13,-3,6,-15,-4,2,-2,-68
1501881975683781,15,2,8,5,0,3,-1,7
1501881975704812,12,-1,1,-5,3,-1,2,7
1501881975704812,-5,-8,-14,-23,-6,-3,-2,-14
1501881975705802,16,-1,7,43,2,-2,-2,30
1501881975705802,2,-1,-4,0,-2,-2,-1,7
1501881975726783,1,1,13,0,0,2,0,-8
1501881975726783,-14,-4,-5,17,-6,-5,-3,-11
1501881975728782,-23,-1,-7,-26,3,2,1,0
1501881975728782,7,1,5,-9,-11,-3,-3,5
1501881975742810,-9,-1,-7,2,4,1,-3,-7
1501881975742810,4,1,-5,-21,1,0,0,-10
1501881975748806,13,1,12,24,-3,-8,-3,-2
1501881975748806,-18,-6,-5,19,3,6,4,0
1501881975771807,-1,-3,-4,-30,-6,-4,-2,4
1501881975771807,-6,0,-13,0,-1,0,-3,-16
1501881975773788,9,0,5,-19,-3,-2,-2,8
1501881975773788,14,-2,-10,13,4,3,1,5
1501881975786788,-2,-3,-6,12,1,-1,-1,4
1501881975786788,-2,-2,10,-3,0,-3,-4,-5
1501881975788787,-3,-1,-6,-33,-13,-3,-1,14
1501881975788787,19,3,4,13,-1,-3,-1,-16
1501881975802804,-1,0,-5,-33,0,5,1,-7
1501881975802804,9,0,1,25,3,-5,-3,7
1501881975803789,-11,-4,-11,10,2,4,0,-11
1501881975803789,7,-1,-1,-25,-3,-4,-4,17
1501881975824788,13,0,-5,6,-5,-2,2,0
1501881975824788,13,0,3,2,2,4,0,-4
1501881975825789,-20,-1,-1,-4,-1,-5,-5,4
1501881975825789,1,2,10,16,-3,1,0,-11
1501881975846792,-1,-2,-13,-9,1,1,0,2
1501881975846792,-1,-1,5,12,-2,-4,-2,-1
1501881975848790,12,-2,4,-48,0,5,6,73
1501881975848790,-30,-4,-10,-1,4,-1,-2,-14
1501881975861791,1,-1,10,8,-5,-6,-2,-20
1501881975861791,13,-1,-3,5,-5,1,0,-8
1501881975863793,12,3,-5,-13,5,-2,0,2
1501881975863793,-1,4,16,51,5,0,0,-1
1501881975884801,-2,-5,-6,-26,-1,2,-2,5
1501881975884801,-17,-1,5,56,4,0,1,1
1501881975885799,2,0,-4,-60,-18,-5,-4,-14
1501881975885799,0,0,-5,-23,-1,-1,-2,-9
1501881975906798,-12,-2,3,5,5,3,2,-2
1501881975906798,1,-1,-2,-12,-8,-5,-3,-4
1501881975908794,-5,2,-2,17,6,6,2,0
1501881975908794,-4,-7,-4,-5,-6,-8,-7,-18
1501881975921798,-30,-1,9,31,0,-3,-3,-18
1501881975921798,0,0,-2,-19,1,1,1,-6
1501881975923794,-2,-2,0,16,2,1,-1,-17
1501881975923794,34,1,-9,-11,1,3,2,7
