timestamp,emg1,emg2,emg3,emg4,emg5,emg6,emg7,emg8
1501882634107160,53,-1,-31,-11,-8,-2,-6,-27
1501882634107160,-59,1,-20,-78,-8,-6,-22,3
1501882634111200,-58,5,21,49,10,6,20,-37
1501882634111200,-30,3,24,-5,6,-8,-3,-2
1501882634112144,-10,-2,1,-52,6,6,-5,4
1501882634112144,46,7,-1,46,10,7,11,-1
1501882634115152,-6,-2,-11,-3,-2,0,-12,-2
1501882634115152,-2,10,9,-14,-4,1,-11,48
1501882634117209,21,-15,-9,122,-11,-10,9,-23
1501882634117209,1,-11,-4,-21,-7,-7,-3,-22
1501882634128176,33,2,-4,-3,10,6,3,15
1501882634128176,0,-5,-56,-48,-18,-8,-2,23
1501882634141178,-36,3,17,-56,-4,-2,-5,4
1501882634141178,-7,-5,30,40,-4,-2,1,-34
1501882634147206,-29,-8,-30,-56,0,-8,-6,-14
1501882634147206,30,2,37,64,11,3,-5,11
1501882634162228,-12,3,-7,4,8,5,8,-25
1501882634162228,-65,-9,-21,7,6,-1,6,-19
1501882634177185,14,4,6,-55,0,6,4,9
1501882634177185,19,-8,-16,27,0,-4,-9,2
1501882634178143,-8,4,12,0,9,6,9,26
1501882634178143,25,1,27,23,-6,-2,-3,21
1501882634224211,-24,6,13,-20,7,5,0,-7
1501882634224211,19,9,19,-26,3,4,6,19
1501882634225167,-47,-8,-37,-13,-3,-4,-8,-8
1501882634225167,70,4,0,44,0,1,5,51
1501882634226164,-46,0,2,-21,3,6,6,-39
1501882634226164,-9,-21,-20,11,-16,-9,-9,-7
1501882634229164,7,15,38,-4,10,5,2,0
1501882634229164,-32,-20,-56,-59,-5,-3,6,11
1501882634236164,-3,2,8,91,13,-3,-10,-4
1501882634236164,30,11,11,-24,0,1,6,18
1501882634245214,-15,1,-3,-2,-3,2,-2,-63
1501882634245214,12,2,9,59,16,6,1,-14
1501882634251184,9,-7,-22,-56,-40,-14,-9,5
1501882634251184,-15,-3,0,-40,6,-1,-2,-6
1501882634266189,6,-4,1,-34,-1,-4,-4,17
1501882634266189,22,3,6,-25,-3,-2,5,6
1501882634274209,9,-2,-16,-10,4,5,0,-2
1501882634274209,19,1,0,46,3,1,-8,-1
1501882634297194,2,6,14,-3,-2,2,6,32
1501882634297194,-33,10,34,22,16,5,-10,-24
1501882634298153,-8,-17,-12,18,-11,-8,6,-15
1501882634298153,11,3,-16,-67,-15,-2,-3,44
1501882634312196,67,-9,-13,-33,-4,-5,-4,51
1501882634312196,-79,-3,2,16,-8,-9,-6,-52
1501882634313155,-2,9,13,32,11,9,3,-1
1501882634313155,-24,-6,0,50,-5,1,0,-23
1501882634335166,-27,-9,2,30,1,-1,-3,-16
1501882634335166,1,3,2,-21,-2,1,-1,7
1501882634335166,14,5,-4,-22,-5,-6,-6,28
1501882634335166,-29,2,18,26,9,1,4,-11
1501882634357193,-21,-11,-42,20,-4,1,-6,-8
1501882634357193,25,5,27,-104,-12,-2,2,48
1501882634358156,28,0,34,44,13,0,-3,-31
1501882634358156,-23,-7,-62,-43,-6,-3,-3,-24
1501882634372231,-11,1,22,-30,-8,0,3,-37
1501882634372231,3,-2,7,85,9,3,-1,20
1501882634373177,-28,-6,-11,-13,-6,-3,-2,-4
1501882634373177,-1,5,41,27,5,2,6,2
1501882634395159,17,3,-36,-22,0,-3,-8,1
1501882634395159,1,-8,-16,-89,-13,-1,5,-18
1501882634395159,45,-5,-12,-10,-5,-4,-2,43
1501882634395159,16,4,17,-2,-2,-6,-6,-11
1501882634417204,-27,-4,8,50,6,3,1,9
1501882634417204,13,-1,2,-34,-10,-3,-5,-17
1501882634418194,8,-1,-4,46,9,1,-1,43
1501882634418194,17,-6,-10,-28,-17,-5,0,17
1501882634432199,12,9,24,-1,1,1,5,1
1501882634432199,4,2,8,-14,3,1,-6,-6
1501882634433196,-14,3,2,12,0,-2,-1,-8
1501882634433196,-10,-5,-31,-43,-11,0,0,-19
1501882634455170,24,-2,-3,48,-3,-6,-4,10
1501882634455170,-36,2,8,15,-1,-9,-1,7
1501882634455170,63,-3,-22,11,2,8,3,42
1501882634455170,5,5,25,30,16,5,0,7
1501882634477197,-26,-1,-3,48,7,3,-4,2
1501882634477197,-31,-6,-25,-83,-31,-9,-5,1
1501882634478199,8,4,11,21,1,-7,-6,-28
1501882634478199,-9,2,22,18,9,5,0,-17
1501882634492165,20,-5,-8,-65,-6,1,9,20
1501882634492165,31,-5,-18,40,9,1,-5,-9
1501882634493165,-27,-2,-1,-40,-7,-6,-5,-44
1501882634493165,-13,1,8,40,6,-1,-4,6
1501882634515165,-7,4,-5,-66,-4,-1,6,-11
1501882634515165,12,-3,8,30,-3,1,-8,-27
1501882634515165,-20,-1,-3,-36,0,2,11,19
1501882634515165,16,3,20,21,4,-5,-3,13
1501882634537202,40,-1,-21,6,2,1,2,-7
1501882634537202,-37,-4,-13,-18,3,1,0,-17
1501882634538193,-9,1,16,16,-3,0,1,-20
1501882634538193,-8,-2,-27,-5,6,3,-2,-5
1501882634552230,-14,0,30,43,0,0,0,-7
1501882634552230,11,-2,-32,35,0,-1,2,8
1501882634553169,1,10,29,-51,-1,2,1,10
1501882634553169,22,-9,-11,58,-5,-9,-3,1
1501882634575181,-66,-7,0,-54,0,-3,-7,-82
1501882634575181,14,6,-6,41,2,1,5,24
1501882634575181,-18,-4,-26,-27,4,3,-3,8
1501882634575181,-12,10,29,-10,1,-2,3,-22
1501882634597210,10,-13,-12,33,-11,-3,0,22
1501882634597210,13,0,4,22,6,0,2,22
1501882634598172,-11,4,2,-25,3,8,5,-80
1501882634598172,14,-4,-27,42,-1,1,-3,12
1501882634611236,20,5,6,16,-1,-4,-1,24
1501882634611236,-34,-8,-12,-44,-4,-3,-2,-33
1501882634620190,4,-5,-2,33,0,0,-4,11
1501882634620190,-1,3,7,-11,0,-3,-4,-9
1501882634635187,-2,-6,2,-50,-16,-3,-1,6
1501882634635187,-7,3,8,-1,0,-2,-7,-23
1501882634635187,-10,-3,-1,9,1,-2,-1,-6
1501882634635187,-12,0,-4,-17,3,1,-3,-6
1501882634657213,-2,0,5,43,8,-1,0,-1
1501882634657213,-11,3,13,23,-2,3,3,2
1501882634658174,-7,-5,-24,-19,-4,-4,-1,-19
1501882634658174,-9,-2,-3,-11,-7,4,2,-26
1501882634671188,24,10,1,-27,-4,-1,-3,20
1501882634671188,-17,-12,0,14,0,-4,-7,-7
1501882634680178,20,4,17,-60,1,-1,1,28
1501882634680178,19,-8,-49,53,-12,-6,-5,14
1501882634695192,-33,-2,17,19,-9,-5,-5,1
1501882634695192,28,3,-7,-20,3,-1,0,-2
1501882634695192,4,1,-5,-12,1,1,5,32
1501882634695192,0,-1,13,8,6,2,2,36
1501882634717242,-3,-3,4,30,3,2,-1,-2
1501882634717242,1,-5,-21,-25,-1,-2,0,-23
1501882634718180,0,-3,6,1,-7,-5,-5,10
1501882634718180,-11,1,10,-23,-2,-2,-2,-23
1501882634731224,1,3,2,23,7,6,8,0
1501882634731224,-18,-6,-26,-38,-8,2,-2,7
1501882634740195,21,-6,3,78,2,-8,0,42
1501882634740195,-31,2,10,-49,0,4,-8,-84
1501882634755197,-27,-2,-10,6,8,0,3,-4
1501882634755197,26,0,13,29,7,0,-1,24
1501882634755197,9,-2,-12,-70,-23,-2,-3,-33
1501882634755197,23,-2,0,18,-4,-7,-1,20
1501882634777223,39,5,0,-22,2,-1,-2,-8
1501882634777223,-28,0,-1,31,3,-2,-1,-10
1501882634778182,-5,-1,-1,-16,-2,-2,-2,-5
1501882634778182,0,-2,1,19,5,5,3,18
1501882634791254,2,-8,11,66,-1,-5,-9,-11
1501882634791254,23,-1,2,-74,-12,-3,2,25
1501882634800205,-12,2,-1,27,10,-1,-7,-9
1501882634800205,-10,-5,-19,-20,-8,3,8,32
1501882634815205,-23,2,0,21,7,4,1,-39
1501882634815205,4,-3,-1,40,4,-5,-6,-4
1501882634815205,-7,1,22,-27,-1,2,0,6
1501882634815205,-10,0,-9,36,3,-4,2,8
1501882634837226,-2,-2,-19,-65,-6,0,-6,-14
1501882634837226,-53,-3,-3,-14,-23,-1,2,-30
1501882634838202,40,-4,-9,-2,1,-3,-4,22
1501882634838202,-8,-1,11,-46,-2,-2,1,-29
1501882634851226,1,-2,-2,19,4,0,-4,16
1501882634851226,13,7,11,-14,1,-3,4,10
1501882634859227,-30,0,4,82,4,2,-8,-73
1501882634859227,-22,-7,-14,-65,-10,1,-1,-16
1501882634875201,4,2,17,12,1,-2,1,10
1501882634875201,2,1,-6,7,7,0,-4,-2
1501882634875201,19,-3,-23,-58,-19,-6,2,30
1501882634875201,-2,-1,6,42,10,3,-1,27
1501882634897207,-7,4,9,-21,-5,-2,1,-8
1501882634897207,21,1,8,25,7,4,0,30
1501882634898190,2,3,14,14,6,-2,-3,7
1501882634898190,7,2,9,-5,3,1,-2,-27
1501882634911194,-4,-7,-35,-57,-9,-6,-3,9
1501882634911194,22,4,4,98,12,7,2,53
1501882634919242,-11,-2,-2,-109,-14,-2,4,1
1501882634919242,-1,-8,-22,-28,-7,-6,-8,5
1501882634935192,43,0,-2,9,-1,-2,4,9
1501882634935192,-18,-1,8,15,6,3,-6,-15
1501882634935192,-37,-1,-9,75,17,1,0,-11
1501882634935192,23,-4,12,-60,-20,0,3,27
1501882634957261,16,8,5,-8,6,2,2,25
1501882634957261,8,-10,-6,-3,-17,-11,-6,-31
1501882634958192,13,2,20,89,8,3,1,-10
1501882634958192,-3,3,-10,8,2,-5,-3,-5
1501882634971198,-7,-7,-31,-54,-5,-4,-4,0
1501882634971198,3,1,20,3,3,5,8,10
1501882634979221,-10,3,7,9,3,1,-2,-6
1501882634979221,11,1,-7,49,12,1,3,8
1501882634995201,28,-3,-14,-62,-18,-3,0,28
1501882634995201,-18,2,6,-40,5,1,1,5
1501882634995201,-11,-5,-7,77,-7,-10,0,5
1501882634995201,-6,4,-4,-17,0,-5,-10,-3
1501882635017237,-11,3,25,32,11,10,5,-14
1501882635017237,-3,-3,1,-28,-6,-4,1,13
1501882635018214,7,0,-8,30,1,4,-2,5
1501882635018214,6,5,38,-26,-6,-3,-3,-12
1501882635040200,-26,-8,-26,16,6,-1,-3,-3
1501882635040200,14,1,-4,43,3,3,1,-61
1501882635040200,-9,5,21,-29,-2,-4,-3,16
1501882635040200,1,-11,-45,-29,-11,-2,1,-3
1501882635055218,7,10,28,62,-3,-1,-1,7
1501882635055218,21,2,-2,-6,1,-2,-4,12
1501882635055218,-17,-10,-9,14,4,-3,-5,-24
1501882635055218,-7,2,15,-44,-5,1,5,5
1501882635077197,18,-2,-8,0,2,-1,-5,10
1501882635077197,-8,-1,-6,39,6,4,2,-14
1501882635078198,20,0,-10,-69,-13,-4,-2,29
1501882635078198,-11,-2,10,5,1,-4,-3,1
1501882635100199,-11,-3,-1,11,1,3,-3,16
1501882635100199,-11,2,10,17,-3,-4,0,-13
1501882635100199,-3,1,-3,-30,-1,4,3,-4
1501882635100199,8,-2,-1,8,4,1,0,-16
1501882635115206,-11,7,24,59,1,-2,1,24
1501882635115206,3,-5,-5,-35,-11,-7,-4,13
1501882635115206,-32,-8,-22,15,4,0,3,-34
1501882635115206,-12,1,-2,-8,-10,1,0,7
1501882635137258,31,0,7,-14,-3,-1,3,-7
1501882635137258,-19,-2,17,-21,1,-1,-11,6
1501882635138216,8,-6,-48,18,-8,-3,5,6
1501882635138216,5,0,15,63,6,-1,-1,-36
1501882635160213,-18,-3,-21,-1,0,-3,-4,-38
1501882635160213,1,5,9,-18,1,-2,-3,-1
1501882635160213,-14,-2,0,-55,-3,0,-3,-4
1501882635160213,13,-2,-8,1,-1,-3,-6,11
1501882635175204,39,5,3,-13,-5,-7,2,15
1501882635175204,-14,-6,-9,5,1,5,1,-27
1501882635175204,10,-1,-10,60,-2,-2,-5,10
1501882635175204,0,1,4,-22,3,3,2,5
1501882635196276,-32,4,15,-19,0,2,-2,-34
1501882635196276,20,3,-9,-33,-3,-1,4,-16
1501882635205219,3,-1,11,-51,-3,-3,-8,40
1501882635205219,-21,-5,5,44,-8,-6,-3,-8
1501882635220221,-36,2,19,23,3,6,1,-23
1501882635220221,9,-11,-20,3,0,-3,-4,7
1501882635220221,7,3,12,34,-1,1,6,-5
1501882635220221,18,4,3,3,7,2,3,31
1501882635243275,-14,-4,-19,-54,-6,-2,-1,6
1501882635243275,2,7,28,89,12,1,-3,24
1501882635243275,-2,2,-7,-35,-1,-1,-3,0
1501882635243275,-2,-7,-2,-19,-5,-9,-2,5
1501882635256275,6,-4,-8,-11,0,7,2,31
1501882635256275,20,4,-19,5,-2,2,2,12
1501882635265220,44,-3,7,-11,3,-1,-6,18
1501882635265220,-60,-2,2,-1,-2,-5,-2,-59
1501882635280224,20,-3,-10,49,1,-2,1,41
1501882635280224,0,3,8,-38,9,-3,-2,-21
1501882635280224,-7,-3,10,7,0,5,1,-9
1501882635280224,42,-2,-19,-97,-6,5,4,39
1501882635303285,-7,-2,2,-26,-4,-4,-4,-13
1501882635303285,1,-1,19,23,2,0,0,-2
1501882635304213,-16,-6,-26,14,-2,-5,-5,26
1501882635304213,9,-5,-20,11,-7,-1,-4,-18
1501882635316214,3,-1,-1,3,3,-3,-4,-11
1501882635316214,-2,-1,-7,-53,-5,2,4,2
1501882635325223,-11,5,11,-6,-2,-3,-6,-6
1501882635325223,8,4,20,32,9,3,8,15
1501882635340224,3,-5,-11,-19,-11,-4,-1,-9
1501882635340224,-5,1,-11,-3,-9,-5,-4,10
1501882635340224,-8,-8,-6,-33,-6,0,0,-23
1501882635340224,0,4,-2,52,11,4,-1,20
1501882635363252,-21,1,24,-38,2,1,0,-15
1501882635363252,13,-2,-16,-24,-9,-3,-3,15
1501882635364217,-12,5,21,53,10,1,1,-69
1501882635364217,2,-12,-21,-10,-12,-2,-5,-9
1501882635376260,-4,-1,-12,-50,-7,-4,-1,16
1501882635376260,1,-2,-6,1,-1,-2,0,-12
1501882635385230,11,4,11,0,3,2,2,13
1501882635385230,-8,-5,-15,14,-6,-5,-6,3
1501882635400234,-18,-2,-2,13,3,-2,-5,-24
1501882635400234,15,-3,19,18,5,5,12,5
1501882635400234,-43,-4,-37,-34,-8,-4,-5,-88
1501882635400234,-10,5,31,31,2,-1,0,-5
1501882635423226,2,1,-16,8,2,2,0,-8
1501882635423226,-8,0,14,17,-5,-7,-6,3
1501882635424220,40,-6,9,-58,-11,-4,-1,42
1501882635424220,-2,2,6,26,1,5,0,-8
1501882635436258,8,-1,12,38,4,-6,-1,-12
1501882635436258,-33,-8,-21,30,0,-3,-3,3
1501882635445226,4,8,29,-43,-1,6,5,18
1501882635445226,-8,-6,-25,31,8,-3,-2,-7
1501882635460241,-16,-3,23,-35,-10,-5,2,0
1501882635460241,16,1,-19,-27,-4,-2,-3,-5
1501882635460241,1,-3,16,5,4,-1,-2,18
1501882635460241,-17,-3,-28,-8,4,2,-1,0
1501882635483264,43,4,22,64,6,4,4,43
1501882635483264,-15,1,-18,-26,-5,-1,4,-27
1501882635484222,-9,-3,-18,2,3,-3,-1,1
1501882635484222,52,5,28,47,5,1,-2,4
1501882635496264,-18,-6,-26,-93,-19,-3,-3,-6
1501882635496264,13,-1,11,-3,-6,-4,-4,16
1501882635505226,-7,-5,-5,57,-2,-2,-1,18
1501882635505226,1,-2,-18,-45,-2,1,2,25
1501882635520236,-5,0,11,20,6,0,-3,-9
1501882635520236,-13,-2,-17,19,-4,3,2,-11
1501882635520236,-5,-2,19,37,3,0,-2,-9
1501882635520236,3,5,10,-29,-5,-3,-5,31
1501882635543271,-5,-7,-25,7,-2,1,3,0
1501882635543271,-52,6,23,17,12,5,-5,-60
1501882635544228,9,-4,3,22,5,-3,3,16
1501882635544228,-4,0,10,-70,-7,-5,-2,-1
1501882635565262,15,-4,-7,61,-2,-1,-7,-2
1501882635565262,10,-5,-7,-62,-7,-2,-1,48
1501882635566231,2,5,12,-3,1,4,-4,-10
1501882635566231,-13,5,7,-13,8,-2,0,-18
1501882635580243,-3,-7,-27,71,-3,-3,-2,-11
1501882635580243,11,-2,-2,-19,-3,0,0,0
1501882635580243,-2,1,1,-3,1,0,-1,-4
1501882635580243,-6,0,2,9,0,-1,-1,-14
1501882635603272,-1,-2,-29,-69,-16,-7,-1,-7
1501882635603272,-1,-5,-1,19,4,4,0,7
1501882635603272,0,0,-15,-63,-11,-1,1,59
1501882635603272,-10,1,0,78,8,0,0,-11
1501882635625268,5,-1,17,-20,-1,-6,-6,0
1501882635625268,8,2,-12,6,-5,-7,-1,-30
1501882635626251,13,-2,-6,-16,-3,1,1,21
1501882635626251,-15,-4,14,35,1,-3,-5,-8
1501882635639295,-8,0,6,27,6,-1,-1,2
1501882635639295,2,2,0,-46,-8,-4,-1,-5
1501882635640271,3,1,1,20,7,4,2,-28
1501882635640271,-4,-5,0,-26,-4,-4,0,4
1501882635663283,18,2,12,-20,-2,2,-3,33
1501882635663283,-23,1,-7,18,4,-1,3,-5
1501882635664234,-7,0,-1,17,2,-4,1,-6
1501882635664234,-3,0,2,-40,-10,-3,-4,-29
1501882635685300,2,1,8,32,6,3,6,23
1501882635685300,-4,-3,10,40,2,2,-1,-8
1501882635686267,4,-4,-19,14,0,-5,-1,3
1501882635686267,-4,2,-4,-49,-4,-3,0,2
1501882635700268,-19,-1,11,-12,8,4,-2,-12
1501882635700268,3,2,-3,-11,-1,0,3,3
1501882635700268,2,-5,-24,-36,-10,-4,-2,-1
1501882635700268,-1,0,1,21,2,-1,-4,9
1501882635723278,-15,1,11,-16,3,-1,-3,-22
1501882635723278,1,-1,19,11,0,-4,-2,-5
1501882635724237,-11,-6,-26,1,-2,1,0,34
1501882635724237,16,-6,-23,-30,-13,-2,-3,-11
1501882635744301,-6,2,12,75,7,-1,-1,-25
1501882635744301,9,-4,-17,-77,-2,-1,0,37
1501882635752299,1,2,-5,-63,-6,-9,-7,-38
1501882635752299,69,-2,2,27,1,5,3,88
1501882635760250,-3,-3,-8,-4,-4,-1,8,-53
1501882635760250,2,-1,0,22,4,-2,-6,11
1501882635760250,10,6,5,-67,-4,4,7,0
1501882635760250,-27,-7,-2,76,1,-2,-2,-17
1501882635783282,-3,-1,-19,-41,-8,-12,-7,-2
1501882635783282,21,-6,-12,37,7,6,-6,-22
1501882635783282,25,2,10,-16,-10,1,1,-9
1501882635783282,-40,0,-12,-68,-1,3,3,-36
1501882635805282,36,5,13,59,11,3,0,-23
1501882635805282,-16,-11,-23,-44,-18,-12,-5,22
1501882635806274,3,4,15,76,8,-2,-6,-2
1501882635806274,-8,5,8,4,5,3,5,-11
1501882635820264,-9,-8,-41,-33,-11,-3,-2,8
1501882635820264,28,2,16,-2,-4,-2,-1,14
1501882635820264,-38,-2,16,35,11,3,-2,-34
1501882635820264,-14,-4,0,-19,-14,-7,-4,12
1501882635842282,16,7,6,-46,4,9,4,15
1501882635842282,-8,2,2,55,3,1,1,52
1501882635850260,5,-16,-41,-67,-23,-7,-2,7
1501882635850260,-13,0,17,41,4,-1,-2,-44
1501882635865286,-12,1,8,-13,-3,-1,-4,6
1501882635865286,10,2,5,9,0,-1,2,7
1501882635866281,-6,4,16,21,6,1,1,-1
1501882635866281,21,-4,-11,6,4,0,-1,9
1501882635880246,15,-6,-2,-38,-15,-9,-4,1
1501882635880246,10,4,-12,-29,1,7,3,-14
1501882635880246,-9,-2,4,14,6,1,1,8
1501882635880246,40,1,20,47,6,-2,0,64
1501882635903264,-67,-4,-25,-57,-13,-1,1,-27
1501882635903264,-11,-1,3,38,4,-4,-3,-14
1501882635904248,19,-3,-3,8,-7,-8,-6,4
1501882635904248,-7,-2,1,13,-6,-4,-4,38
1501882635925293,12,2,25,47,11,5,5,12
1501882635925293,-20,4,20,-11,0,-4,-5,-33
1501882635926282,-15,-5,-21,-19,-5,4,2,-14
1501882635926282,6,0,-2,0,8,-2,0,-10
1501882635940268,-8,-1,-12,-3,0,-2,-1,9
1501882635940268,-8,-2,8,41,-5,-5,-2,-13
1501882635940268,-4,3,4,-18,-1,-2,-2,29
1501882635940268,-12,1,-3,1,5,5,7,-24
1501882635963293,23,-2,-18,-10,-12,-3,-7,2
1501882635963293,-2,-1,15,1,-1,-1,5,11
1501882635963293,-10,1,10,25,-2,-8,-10,-18
1501882635963293,-21,-9,-30,-23,-3,6,1,-9
1501882635985293,-23,-1,1,-23,6,4,-1,-32
1501882635985293,2,0,17,48,4,0,-1,-21
1501882635986284,16,-3,-24,-22,-7,-2,-1,45
1501882635986284,4,1,-28,26,-4,-3,-2,-25
1501882636000279,-8,6,25,-3,7,5,5,-2
1501882636000279,10,-11,-36,-91,-31,-6,-2,18
1501882636000279,-39,-1,16,32,8,1,-4,-3
1501882636000279,3,2,11,20,-1,-2,-7,-4
1501882636030325,-6,-7,-11,-9,0,-4,2,41
1501882636030325,3,6,1,19,3,2,-1,-35
1501882636031254,18,5,21,32,5,2,4,28
1501882636031254,-3,-6,-35,-59,-9,-3,-2,-23
1501882636045293,-4,-5,-4,3,1,-2,-5,3
1501882636045293,-21,-3,6,27,4,-1,-2,-54
1501882636046255,-42,-1,-9,-31,3,3,-2,-39
1501882636046255,6,1,13,-12,1,-5,-1,2
1501882636060274,19,6,6,-48,-5,5,-1,-16
1501882636060274,31,-3,1,21,-1,-7,4,58
1501882636060274,-13,-2,15,62,6,2,1,-40
1501882636060274,-26,-1,2,-5,-1,1,0,-33
1501882636083300,18,-5,-15,-10,-2,-9,-7,11
1501882636083300,4,-3,-16,28,7,5,0,18
1501882636083300,12,3,2,-54,-13,-4,-5,-5
1501882636083300,2,-2,10,-30,-5,2,5,10
1501882636105273,-10,-2,-6,67,4,-4,1,54
1501882636105273,-22,2,-6,-94,-1,5,0,-23
1501882636106268,16,3,2,90,5,0,2,-7
1501882636106268,-14,-2,1,-74,-9,0,-4,-5
1501882636119301,5,2,15,72,-2,-5,-2,11
1501882636119301,-14,-7,0,34,1,-5,-8,0
1501882636127306,10,-2,-12,-70,-9,-2,2,1
1501882636127306,1,6,1,-11,2,2,0,5
1501882636143303,0,1,18,5,5,0,0,-6
1501882636143303,-3,-4,-12,12,8,-1,-3,-19
1501882636144261,-16,-4,-34,-6,-6,3,-1,-18
1501882636144261,12,-1,13,18,6,-1,0,46
1501882636165300,-15,-5,-10,58,-7,-4,-6,-43
1501882636165300,22,1,2,-38,-6,0,0,-4
1501882636167264,-16,3,22,9,2,1,4,-12
1501882636167264,22,-6,-34,16,-6,-3,-2,10
1501882636179326,-21,0,5,-15,1,-3,-1,-17
1501882636179326,10,4,13,-18,0,7,0,13
1501882636188263,3,-6,3,45,5,0,6,-16
1501882636188263,-8,-2,-6,-59,-4,3,-3,-34
1501882636203297,-3,-2,4,11,3,-2,-4,-5
1501882636203297,13,1,1,37,-2,-1,0,51
1501882636204265,9,2,2,-18,-4,-6,-5,-24
1501882636204265,-30,-1,10,70,1,-1,-2,-72
1501882636225304,17,0,-13,15,12,8,5,18
1501882636225304,-32,1,5,-67,-12,-4,-2,9
1501882636227267,11,0,-15,-6,-4,-2,-2,6
1501882636227267,5,2,32,13,-1,-8,-5,8
1501882636239340,2,0,12,3,1,6,-2,5
1501882636239340,-12,-3,-30,37,1,-1,-2,-24
1501882636248268,-6,-2,-2,-35,2,1,-1,21
1501882636248268,25,0,19,79,1,0,-1,6
1501882636263310,15,-3,-32,-3,-7,-8,0,1
1501882636263310,-4,2,4,-2,2,0,0,14
1501882636264279,-1,-1,-1,-5,-1,-1,-4,-6
1501882636264279,5,6,12,8,15,8,9,66
1501882636285309,-5,-3,0,-15,-1,1,2,-14
1501882636285309,-18,-9,-8,-3,-11,-7,-6,-55
1501882636287272,6,3,9,42,1,-4,-1,16
1501882636287272,-6,-1,-16,-38,-2,1,-1,-4
1501882636299309,3,-2,-2,-15,-2,-2,-2,0
1501882636299309,-2,-4,-11,-25,1,0,1,-2
1501882636308304,32,0,9,36,2,0,-4,56
1501882636308304,-36,-9,-19,-45,-5,-6,-2,-16
1501882636323343,-25,-2,-12,-75,-15,-1,-3,-24
1501882636323343,32,5,13,32,4,-3,-2,32
1501882636324272,16,-2,4,-14,4,2,-2,-25
1501882636324272,23,7,8,-17,6,3,-1,46
1501882636345310,22,-3,-6,79,-4,-9,-2,15
1501882636345310,-7,-1,16,-6,5,5,1,11
1501882636347285,10,-6,-33,-1,-12,-5,3,-23
1501882636347285,10,-7,-31,-53,-3,-2,-6,16
1501882636368347,-5,0,7,-12,-2,-5,-3,-12
1501882636368347,7,10,21,26,8,5,1,-15
1501882636369286,-4,0,-5,-11,-10,2,1,18
1501882636369286,-5,-3,0,-21,0,-5,0,-20
1501882636383352,-5,-3,-7,5,1,2,-1,-17
1501882636383352,16,-10,-26,10,-8,-8,-4,48
1501882636384276,-13,1,12,5,1,-3,-5,-8
1501882636384276,7,1,5,27,-2,4,2,-7
1501882636405315,-33,1,21,1,2,-2,-2,-16
1501882636405315,-16,-5,-30,-40,-3,4,5,34
1501882636407277,5,-5,-4,-9,-7,-6,-6,5
1501882636407277,-18,3,-2,-21,-4,-4,-3,-31
1501882636419280,13,0,13,-8,7,4,0,14
1501882636419280,-19,3,24,-24,-1,-2,-1,-19
1501882636428279,-4,-2,-6,65,1,-3,-2,3
1501882636428279,-10,0,17,12,3,4,2,-13
1501882636443306,-2,-4,-8,-44,-9,-4,-5,-3
1501882636443306,-6,-5,-3,5,-6,-3,-1,-13
1501882636444279,3,0,-2,-17,5,1,3,-5
1501882636444279,-23,0,-4,15,-3,-5,-5,-8
1501882636465285,-2,1,12,18,-2,-1,1,7
1501882636465285,4,-2,-26,38,4,1,-2,-47
1501882636467285,-11,0,0,-67,-5,0,0,18
1501882636467285,16,-3,-1,61,-2,-4,0,16
1501882636488282,-14,2,20,-69,-1,6,7,-7
1501882636488282,18,0,-14,17,5,-4,-3,-8
1501882636489283,-3,1,28,38,5,0,-4,-1
1501882636489283,-3,-3,-30,-69,-2,0,0,-1
1501882636503282,8,-3,-20,-2,-9,-1,1,9
1501882636503282,13,6,33,24,4,1,0,16
1501882636504282,-7,-2,-11,-59,2,2,5,-18
1501882636504282,6,0,27,66,-8,-5,-6,0
1501882636525313,4,-4,-14,28,5,-3,-7,-4
1501882636525313,-10,-5,-15,-11,-9,-2,-2,-11
1501882636527287,12,1,-3,-48,-2,-3,0,9
1501882636527287,-23,0,15,23,0,4,2,4
1501882636548346,10,-10,-40,-8,-1,-3,-7,-76
1501882636548346,-11,-2,8,20,3,-3,-2,-6
1501882636549284,19,2,-4,16,-3,-3,-1,16
1501882636549284,5,2,22,1,1,4,-1,-7
1501882636563358,11,-2,-38,-38,2,4,3,39
1501882636563358,-15,2,26,8,-3,-4,-3,-41
1501882636564287,-46,-7,-17,-35,-7,-1,0,-53
1501882636564287,54,3,4,23,5,1,2,25
1501882636585325,-15,9,17,25,4,0,-2,-16
1501882636585325,6,3,22,-6,0,1,0,60
1501882636587286,-46,-16,-57,27,1,-2,1,-11
1501882636587286,-17,-6,-19,-87,-16,-6,-4,-25
1501882636608352,-8,1,14,26,4,0,3,-4
1501882636608352,13,1,-27,-67,-2,1,0,3
1501882636609288,-6,4,57,100,3,0,-1,-12
1501882636609288,-1,-7,-34,-45,-7,-8,-4,21
1501882636622353,16,0,-3,40,-1,5,3,24
1501882636622353,-21,0,32,-37,-3,-3,0,1
1501882636629338,16,-5,-37,22,6,0,0,11
1501882636629338,-11,-2,-8,-42,-5,-5,-1,-19
1501882636645358,-3,4,10,-7,-2,-6,-2,10
1501882636645358,-4,2,-5,20,2,5,2,-19
1501882636647290,8,-2,9,-20,3,0,-4,3
1501882636647290,-24,-1,-6,45,3,4,0,2
1501882636668363,13,1,16,-3,-15,-7,-2,59
1501882636668363,-1,-7,-12,-6,-3,-2,-2,-5
1501882636669293,20,5,8,-12,3,1,1,-1
1501882636669293,-30,-8,-11,1,-8,-3,-3,28
1501882636682355,12,-1,16,29,8,5,3,-7
1501882636682355,-60,-7,-15,-41,-16,-12,-9,-5
1501882636689339,19,1,-7,-13,-1,-1,-2,7
1501882636689339,20,2,0,-2,4,1,2,-8
1501882636705331,-19,-5,8,64,4,-1,-3,-13
1501882636705331,2,4,8,-73,-4,2,7,13
1501882636707294,3,-2,7,75,1,-2,0,-12
1501882636707294,15,-1,-11,-27,-1,-1,-1,-7
1501882636728345,-26,-5,-10,-12,1,-1,-3,-13
1501882636728345,16,4,14,36,-2,-4,-2,-24
1501882636729297,-9,6,17,-5,-1,1,-1,32
1501882636729297,12,-3,11,26,1,-2,0,-42
1501882636742369,-11,0,-6,-40,-2,-3,-1,0
1501882636742369,40,-4,-28,86,14,4,1,-12
1501882636749359,-30,0,-11,-72,-19,-8,-10,-21
1501882636749359,-8,-1,16,48,4,3,4,26
1501882636765338,19,0,5,-24,-4,-2,0,27
1501882636765338,-7,0,-7,-9,1,-1,-3,-40
1501882636767300,1,-8,-12,26,-7,-5,-3,14
1501882636767300,-9,-1,0,-3,4,0,-2,-16
1501882636788350,28,4,12,13,1,1,-1,9
1501882636788350,16,3,-13,-64,-14,-4,-1,16
1501882636789299,7,-5,23,24,7,6,3,39
1501882636789299,-22,-3,-26,-4,-3,-7,-5,-33
1501882636802366,3,1,15,0,-6,0,-2,24
1501882636802366,-20,-7,-22,15,0,1,-2,-1
1501882636809347,14,5,26,25,6,0,0,-17
1501882636809347,11,0,-23,-38,-5,-3,0,23
1501882636825343,-11,-7,-2,5,-4,0,-4,-14
1501882636825343,8,3,4,4,4,-1,1,31
1501882636827301,3,-6,-3,-5,-2,-3,-1,18
1501882636827301,8,2,14,73,7,6,1,2
1501882636848376,-28,3,-13,-82,-3,-2,-5,-43
1501882636848376,6,-3,16,-7,-5,-2,0,-11
1501882636849315,5,-5,-17,-17,-2,1,1,-3
1501882636849315,19,5,15,10,5,2,0,-32
1501882636862366,-29,-2,4,-3,0,-4,-3,17
1501882636862366,15,-5,-16,31,3,3,-3,4
1501882636869316,-18,9,30,-2,-1,2,2,-22
1501882636869316,-12,-9,-28,-2,0,0,-3,8
1501882636885344,11,1,12,-49,-10,-1,4,31
1501882636885344,21,2,1,9,-2,-4,-6,-29
1501882636887314,1,0,-10,5,4,-3,0,-17
1501882636887314,-9,-5,-20,-51,-15,0,-1,-12
1501882636908306,4,-4,-6,84,10,1,2,11
1501882636908306,19,-1,4,-6,2,-3,-1,23
1501882636909308,-6,2,5,-7,-3,1,2,4
1501882636909308,21,9,30,59,12,3,4,21
1501882636922379,-41,-6,-19,-128,-18,-4,-5,-56
1501882636922379,32,-1,2,67,5,2,4,59
1501882636929371,-25,-7,-21,-20,-3,-6,-8,-97
1501882636929371,-1,2,17,10,5,2,-2,11
1501882636945348,-2,0,-14,15,9,3,3,-14
1501882636945348,-17,-6,-10,-49,-8,-1,0,-10
1501882636947309,7,2,4,-4,2,0,0,28
1501882636947309,-24,-4,-1,-3,-8,-5,-5,-18
1501882636968375,23,5,18,34,-1,-7,1,20
1501882636968375,12,2,-16,1,2,4,1,1
1501882636969310,-29,-4,-6,-57,-5,2,2,12
1501882636969310,18,8,22,-7,7,-1,2,11
1501882636981372,19,-13,-28,94,-4,-5,-5,38
1501882636981372,-22,3,14,-41,-4,-3,-1,-16
1501882636990343,11,0,-3,6,5,5,1,11
1501882636990343,7,1,-3,10,-1,-4,-4,2
1501882637005355,23,1,2,-55,-4,0,4,22
1501882637005355,-43,-2,5,12,7,2,-2,-65
1501882637007344,29,-4,-20,72,-1,-5,-6,18
1501882637007344,-32,-9,9,-6,-3,-1,1,58
1501882637028390,11,1,-18,-13,-5,-3,-6,-15
1501882637028390,3,0,24,10,1,-1,1,11
1501882637029314,22,2,0,13,1,3,2,18
1501882637029314,-9,-2,1,-15,-9,1,-1,-34
1501882637041355,-18,4,10,21,2,-2,-3,-25
1501882637041355,12,1,16,-9,3,2,0,20
1501882637050337,-11,-7,-17,-9,-7,-6,-3,23
1501882637050337,27,-1,-19,-28,-4,-4,0,13
1501882637065314,-13,3,13,17,8,8,1,-54
1501882637065314,-2,2,5,63,8,2,-1,-1
1501882637067348,-7,-3,-33,-88,-11,-3,-2,17
1501882637067348,-8,-2,9,42,-2,-6,-1,-17
1501882637088317,4,-5,-10,-11,3,1,1,40
1501882637088317,-29,0,-7,-17,-8,-2,0,2
1501882637089316,-24,3,42,59,13,4,7,-36
1501882637089316,54,-5,-32,-47,-8,-5,-7,35
1501882637101354,-7,3,18,54,-1,-5,-2,-22
1501882637101354,9,0,-17,-33,0,4,3,-11
1501882637110338,-12,-6,-1,16,-4,-2,-4,-3
1501882637110338,-12,-2,-17,-10,1,-4,-1,-12
1501882637125356,7,-2,2,-12,-3,5,-1,49
1501882637125356,14,-2,-1,-38,-7,-7,-5,0
1501882637127351,13,6,17,-60,-11,-3,-1,0
1501882637127351,-18,-11,-12,20,-2,-1,-3,-34
1501882637148392,34,-1,-3,27,5,-1,-2,1
1501882637148392,-14,-3,7,20,-3,-1,0,-70
1501882637149321,2,3,4,1,-1,2,-2,2
1501882637149321,3,0,16,-12,-2,1,2,1
1501882637161329,-27,-2,-8,40,9,-2,0,-37
1501882637161329,-5,0,-21,-74,-9,0,2,19
1501882637170363,-2,-7,-2,13,-5,-2,-3,-6
1501882637170363,-11,4,7,6,2,-4,-2,-10
1501882637185366,6,-2,-1,-30,-4,2,-1,0
1501882637185366,1,1,-1,17,0,2,0,18
1501882637187324,1,-2,-4,-9,7,-2,4,20
1501882637187324,-36,1,12,-15,-2,2,-2,-59
1501882637208395,-3,1,-9,16,-6,-5,-4,14
1501882637208395,-12,-9,-34,-15,-2,-4,-5,-10
1501882637209324,-15,2,6,-31,-3,-2,1,6
1501882637209324,3,1,2,38,1,6,2,4
1501882637221363,11,-2,16,15,-1,-4,0,-2
1501882637221363,-4,-4,4,27,-1,0,0,-1
1501882637236385,-4,3,3,16,7,0,-4,-11
1501882637236385,-2,-1,-4,-52,-6,-4,3,52
1501882637245365,-12,-2,0,1,-6,-2,-4,-43
1501882637245365,2,5,19,7,3,0,0,23
1501882637247327,11,-3,-18,0,-2,0,-1,-6
1501882637247327,-19,-2,-9,-20,-8,-3,0,64
1501882637268343,-11,0,-18,-86,2,1,-2,-32
1501882637268343,5,-6,-5,61,-6,-7,-4,6
1501882637269329,12,6,14,-31,5,2,1,-3
1501882637269329,4,4,9,30,6,2,-3,-13
1501882637281381,-10,-12,-49,-35,-8,-1,-1,23
1501882637281381,-9,-3,21,34,-1,-5,-1,4
1501882637290361,-2,-2,-4,-17,-5,2,-6,-5
1501882637290361,30,3,4,21,6,5,1,-2
1501882637305371,-15,1,7,-10,-5,-6,-1,10
1501882637305371,25,2,-3,-53,1,1,0,14
1501882637307328,-12,-7,-1,23,-1,4,1,19
1501882637307328,-7,5,13,-11,0,-3,-3,-67
1501882637328347,15,-3,-1,43,0,1,-1,-19
1501882637328347,9,-9,-13,-2,-4,-9,-6,85
1501882637329332,17,-2,3,-13,-8,-7,-1,4
1501882637329332,-10,2,3,9,7,1,-2,-22
1501882637341396,3,0,2,16,3,2,-1,-2
1501882637341396,0,1,-2,-49,-4,1,-1,-1
1501882637350368,-4,1,6,32,4,-2,-2,-5
1501882637350368,18,-11,-33,-40,-16,-7,-7,-2
1501882637373372,13,4,13,-30,8,1,1,14
1501882637373372,-19,2,18,64,-9,-4,-2,-24
1501882637374333,-13,-3,-3,4,3,3,3,39
1501882637374333,-11,-4,-6,32,-1,-1,-1,-2
1501882637388367,-7,0,7,-19,-5,-4,-1,4
1501882637388367,3,3,-9,4,5,7,-2,-18
1501882637389342,-3,2,6,-21,-5,-9,-1,-13
1501882637389342,-18,-4,-3,67,5,6,2,16
1501882637410379,7,-3,-6,-72,-10,2,-2,-1
1501882637410379,2,-6,-13,27,4,1,2,25
1501882637412337,19,2,-1,-35,-7,-5,-5,3
1501882637412337,-30,0,16,-13,0,-3,3,-7
1501882637425378,-6,-3,-8,10,-5,-4,-2,-10
1501882637425378,-5,-1,-2,-30,0,2,0,-7
1501882637427337,5,4,-4,57,9,4,0,-5
1501882637427337,38,-1,5,-6,1,-1,-5,-10
1501882637448371,-57,-5,-7,-6,-9,-10,-9,-41
1501882637448371,-25,0,2,2,7,3,6,-12
1501882637449338,12,-1,-4,7,-10,-4,-7,-3
1501882637449338,-2,-3,3,-13,0,-1,2,-23
1501882637470410,8,3,7,81,12,6,3,19
1501882637470410,14,-4,-11,-76,-8,-5,-6,-41
1501882637472341,-31,-2,7,3,2,-1,-1,-23
1501882637472341,5,3,-1,-30,-5,-7,-1,33
1501882637485401,-3,-1,-5,18,0,4,2,-5
1501882637485401,-21,-1,13,25,5,4,1,8
1501882637487342,17,1,1,10,-1,6,3,2
1501882637487342,2,-4,-15,12,2,-2,0,-11
1501882637508356,13,4,7,-53,-2,0,1,13
1501882637508356,6,5,11,24,-10,-7,-1,-20
1501882637509342,0,-6,-19,3,-6,-4,-5,-66
1501882637509342,-28,-2,-3,9,-2,-1,-1,-6
1501882637530385,12,0,1,83,9,-1,-1,5
1501882637530385,-8,-4,-12,-52,-8,-2,-5,-12
1501882637532342,8,2,17,-2,4,4,4,20
1501882637532342,2,-1,-12,-17,-2,0,-2,-4
1501882637545385,0,-1,15,-10,5,2,0,-10
1501882637545385,6,0,-3,32,-5,-2,-1,19
1501882637547353,-7,3,4,3,4,-1,-2,-5
1501882637547353,8,-3,-2,16,2,-2,-3,23
1501882637568363,7,-3,5,-46,-11,-2,4,16
1501882637568363,6,-3,-9,-2,4,4,-4,25
1501882637569345,-9,-1,1,-9,0,2,-4,-39
1501882637569345,-2,0,3,-5,0,3,-2,-5
1501882637590388,11,0,-3,-14,-4,-3,-1,5
1501882637590388,-3,-1,4,19,0,-5,-2,-21
1501882637592345,-3,-7,-12,79,4,-5,-3,18
1501882637592345,-19,-2,-1,-48,-7,0,2,-10
1501882637604347,28,-3,-8,-34,-12,-2,-1,8
1501882637604347,33,8,7,10,9,1,4,0
1501882637611386,-32,-4,5,1,-1,-1,0,-18
1501882637611386,-4,1,-4,-8,-5,-2,-1,-8
1501882637628414,0,-5,-15,10,0,-3,-2,17
1501882637628414,-17,-1,4,5,2,0,-2,-19
1501882637629348,9,6,-1,-18,5,6,7,8
1501882637629348,5,-1,9,7,-1,-3,-2,-7
1501882637650391,-11,2,22,33,4,-1,-1,-4
1501882637650391,-20,-8,-29,39,-5,-2,-3,7
1501882637652351,3,-2,-8,-37,-8,-12,-5,1
1501882637652351,29,3,-1,16,2,-2,-1,35
1501882637664361,-18,-4,-4,-1,10,14,3,-7
1501882637664361,-8,-1,2,-5,-1,-4,-4,-18
1501882637671392,13,0,11,-51,-1,0,1,28
1501882637671392,-19,-7,-33,11,-12,-7,-3,-17
1501882637695400,12,3,-6,6,1,-4,-3,-14
1501882637695400,-14,-4,3,-8,1,1,3,-9
1501882637697354,16,-3,-21,-22,-6,0,-3,-7
1501882637697354,6,-1,-12,1,4,-1,0,8
1501882637710395,-4,-1,5,34,4,-2,-2,13
1501882637710395,-11,-5,-22,-80,-20,-4,-1,-23
1501882637712355,-5,-1,5,22,0,-5,0,18
1501882637712355,-20,0,12,30,4,9,1,1
1501882637724353,17,-1,-5,-11,-3,-7,-6,-22
1501882637724353,17,5,18,4,5,3,0,33
1501882637731417,-19,-4,-8,32,-3,-6,0,-10
1501882637731417,9,1,8,-23,6,6,4,23
1501882637748415,3,-1,-15,-7,-5,-1,0,3
1501882637748415,9,2,14,-6,7,0,0,2
1501882637749357,-10,-1,-13,29,-1,1,-2,-14
1501882637749357,27,-3,4,-5,2,-3,-1,30
1501882637770399,-23,0,11,-10,-9,0,1,-8
1501882637770399,27,1,-5,-1,1,-2,0,0
1501882637772367,0,5,0,-36,-3,4,-1,0
1501882637772367,7,2,13,61,9,-1,0,6
1501882637784374,-14,-1,6,-28,-6,-4,-1,-16
1501882637784374,-15,-8,-6,27,-1,0,-2,-66
1501882637791419,1,0,6,-12,6,4,2,34
1501882637791419,-3,-6,-4,1,-7,-3,-2,-24
1501882637808374,5,-1,-9,-19,-2,-3,-3,-8
1501882637808374,-7,2,1,59,1,-1,-1,29
1501882637809359,-2,4,22,24,9,4,0,2
1501882637809359,-3,-9,-35,-78,-9,0,-3,-23
1501882637830405,-28,-7,-4,-14,-6,-3,-1,11
1501882637830405,39,2,-1,-2,-2,-4,-4,39
1501882637832370,-15,-3,-3,11,0,-4,-1,-11
1501882637832370,-11,10,19,-12,3,1,3,0
1501882637844400,9,-5,-26,7,3,6,1,-18
1501882637844400,-23,-3,-2,12,4,-1,1,-20
1501882637851428,9,0,13,-19,-6,-1,-1,54
1501882637851428,-9,1,-3,45,0,-4,-4,-25
1501882637868382,15,-4,-11,-19,-4,-6,0,14
1501882637868382,-7,2,13,31,1,-2,-5,-17
1501882637869362,4,-2,-6,-23,-3,1,0,1
1501882637869362,0,5,22,-1,5,6,0,10
1501882637890408,19,-2,-24,3,-1,0,1,9
1501882637890408,-3,-5,0,-14,-5,-3,-4,-1
1501882637892363,0,-3,-3,-37,-7,-3,-1,-20
1501882637892363,12,-3,-5,34,-6,-8,-6,-11
1501882637904363,-29,5,16,-21,-3,5,1,-18
1501882637904363,-3,-1,-4,-15,5,4,3,4
1501882637913364,0,-6,-4,13,-4,-9,-2,-8
1501882637913364,3,-2,-2,-15,1,3,-1,-3
1501882637928404,4,0,9,40,2,-3,-3,27
1501882637928404,11,3,16,-24,2,1,1,9
1501882637929366,-11,-7,-31,-13,-6,-3,-3,-17
1501882637929366,-4,-8,0,-21,-5,-8,-4,12
1501882637950408,-6,2,7,16,3,-1,-1,-5
1501882637950408,-8,2,8,16,-1,4,4,10
1501882637952369,18,3,-2,22,7,5,2,-11
1501882637952369,0,0,-4,-17,-17,-7,-2,5
1501882637964409,2,-4,2,8,1,0,0,-9
1501882637964409,-6,-1,-6,7,-2,-3,-2,-10
1501882637973370,-17,-2,16,-3,1,-2,-3,-28
1501882637973370,-39,-4,-13,-17,3,2,3,31
1501882637988388,19,1,9,17,-6,-7,-7,-9
1501882637988388,3,1,-8,-2,0,3,0,-2
1501882637989371,15,-1,7,-15,8,3,0,-4
1501882637989371,-17,0,-1,-13,-12,-3,-3,6
1501882638010403,-16,-1,6,16,1,1,0,-6
1501882638010403,6,-4,-13,-25,-3,-4,-3,5
1501882638012375,18,-1,-12,-28,-2,-1,-2,13
1501882638012375,0,1,1,33,2,-1,-1,-34
1501882638024437,13,2,23,41,5,-1,0,31
1501882638024437,-3,1,1,23,2,2,1,28
1501882638033371,4,-9,-25,-21,-10,2,1,-24
1501882638033371,-8,-1,-1,11,3,-4,-3,-6
1501882638048382,-1,-2,-16,-19,-5,-3,-2,0
1501882638048382,2,5,17,8,2,-3,-4,-28
1501882638049378,0,0,-11,17,-1,0,-3,10
1501882638049378,5,-5,-6,-26,-5,-3,-1,-8
1501882638070408,3,7,9,30,12,6,2,-15
1501882638070408,-10,-5,3,-12,-11,-6,-3,15
1501882638072376,-1,-6,-21,39,-8,-6,-3,8
1501882638072376,17,-3,-13,8,4,-1,-3,-4
1501882638084448,13,-1,1,6,0,-4,0,21
1501882638084448,-34,0,-8,-59,-10,5,1,-25
1501882638093375,-7,5,15,-11,5,3,0,-12
1501882638093375,43,-3,-15,57,6,1,-1,44
1501882638108388,-8,-4,-4,-62,-18,-11,-2,-8
1501882638108388,-10,-5,-14,-21,-2,0,1,3
1501882638109376,20,2,6,10,-2,-2,-2,21
1501882638109376,-12,4,15,-2,5,4,1,-5
1501882638130415,-16,-3,-1,43,1,-1,0,6
1501882638130415,18,-1,8,0,0,-3,-1,13
1501882638132379,1,2,8,32,-1,-2,0,10
1501882638132379,-14,-3,5,-31,0,-1,-5,-59
1501882638144441,10,-5,-30,-29,-3,-2,-3,16
1501882638144441,-6,0,0,-5,3,5,1,10
1501882638153381,-9,-7,-16,-30,-4,-7,-4,-15
1501882638153381,1,0,-3,14,2,-1,0,2
1501882638168399,-16,-2,13,1,-1,6,2,-12
1501882638168399,11,1,2,58,5,-3,-1,-10
1501882638169382,-48,-1,16,-26,4,3,0,-3
1501882638169382,-1,-3,-13,-15,-12,-4,1,-17
1501882638190424,-9,3,1,3,2,2,-5,-45
1501882638190424,18,-11,-30,-4,-5,-11,-4,14
1501882638192392,-4,2,1,28,3,3,0,-8
1501882638192392,1,2,18,-14,-1,2,0,14
1501882638204400,-2,0,-3,-8,3,0,-3,1
1501882638204400,18,0,-5,-44,-6,-4,-1,0
1501882638219455,-11,3,15,82,2,3,3,-12
1501882638219455,-12,-3,9,-38,-2,0,1,13
1501882638228416,37,-4,-10,13,0,-5,-3,9
1501882638228416,-2,4,7,10,-5,-2,0,-11
1501882638229385,16,-4,-20,-61,-10,-6,-4,-16
1501882638229385,-35,-3,4,4,-6,-6,-1,-19
1501882638250442,-12,-1,-3,-9,0,2,2,8
1501882638250442,-19,-5,-12,56,4,-1,-2,-10
1501882638252421,15,5,12,-32,7,4,3,14
1501882638252421,-21,2,2,3,-4,1,-1,-47
1501882638264427,-2,-2,-8,-15,-5,-3,0,-8
1501882638264427,-9,1,17,2,-2,-2,-1,-4
1501882638280408,-5,1,6,33,-1,-5,0,12
1501882638280408,2,-5,-7,-29,2,1,-1,-1
1501882638288397,-1,1,-6,-13,1,1,0,11
1501882638288397,-8,1,10,-39,-2,2,0,-25
1501882638289387,10,1,13,76,-1,-1,-1,9
1501882638289387,15,-1,-18,-16,-6,-3,3,12
1501882638310430,-3,0,-4,-21,5,2,-2,-10
1501882638310430,-3,-4,-1,-11,-6,-1,-1,15
1501882638312407,1,-4,0,-16,-7,-10,-7,-9
1501882638312407,13,4,9,0,3,4,-2,19
1501882638324442,-18,2,10,48,4,3,7,39
1501882638324442,12,-1,-13,-85,-4,3,-1,-29
1501882638333391,21,-1,7,41,-3,-6,-2,13
1501882638333391,13,-1,-6,-25,-2,-1,0,-13
1501882638348411,-14,-1,-5,32,-3,-4,-3,-3
1501882638348411,0,0,10,83,16,2,1,22
1501882638349390,-9,-4,-19,-115,-16,0,-2,-6
1501882638349390,11,1,8,-3,0,-4,-5,-33
1501882638370453,-17,-4,-5,10,3,1,3,-8
1501882638370453,1,5,1,-13,-2,1,0,10
1501882638372402,-9,-7,-21,13,7,0,-1,-14
1501882638372402,12,1,6,33,3,1,-1,26
1501882638393402,9,2,6,-60,-11,-1,-2,-6
1501882638393402,6,-8,-10,39,-5,-7,0,20
1501882638394402,-22,1,-1,10,2,-2,-2,-14
1501882638394402,2,0,-6,-43,-1,2,3,11
1501882638408410,1,0,5,20,9,4,1,13
1501882638408410,-8,1,-2,-32,-11,-2,-3,-7
1501882638409393,4,0,11,-20,5,0,0,10
1501882638409393,21,-3,-27,22,-7,-8,-5,-8
1501882638430433,0,1,-1,10,3,2,1,-13
1501882638430433,-5,-2,-6,-82,-3,0,-1,3
1501882638432394,-8,0,3,-11,-2,0,1,-4
1501882638432394,-18,4,27,70,5,2,1,-22
1501882638453407,6,-6,-11,-13,-3,-6,-3,17
1501882638453407,-13,-2,11,83,7,-2,-3,-23
1501882638454397,-11,-1,-1,-50,-1,4,1,23
1501882638454397,-2,-3,0,7,-1,-3,-1,20
1501882638468416,17,2,-3,-26,-5,1,0,-7
1501882638468416,17,0,5,2,4,-2,-1,13
1501882638469412,-11,-2,-13,25,4,0,3,-14
1501882638469412,-5,-1,8,-11,-1,-3,-4,14
1501882638490463,-2,-3,10,12,-6,-5,-4,-25
1501882638490463,1,5,-3,-18,6,7,4,17
1501882638492399,-1,-2,-11,34,2,2,-2,-57
1501882638492399,10,-6,-1,-1,-5,-2,-2,13
1501882638512427,-16,1,5,15,2,-6,1,-10
1501882638512427,-8,-8,-21,-18,-11,-5,-2,-23
1501882638514400,16,3,9,28,3,-3,-2,25
1501882638514400,-6,-1,-9,-5,-1,2,1,3
1501882638527460,1,2,9,-63,-1,2,-1,-18
1501882638527460,-1,-4,-12,23,6,-2,-1,21
1501882638534436,7,-5,-13,-24,-9,-5,-4,6
1501882638534436,-24,0,6,20,2,0,1,-4
1501882638550445,15,-4,-13,-33,-9,-3,-1,28
1501882638550445,-18,-2,-2,6,0,-2,-3,-19
1501882638552403,19,-2,-2,-43,-3,-5,-2,19
1501882638552403,-12,4,6,38,5,-1,0,-9
1501882638573424,9,-1,9,15,-2,4,2,-3
1501882638573424,-18,-6,-25,5,0,0,-1,4
1501882638574403,10,4,-1,-19,-8,-1,-1,-26
1501882638574403,3,0,3,-21,1,0,-1,5
1501882638587465,-12,-3,1,14,-2,-4,-3,-7
1501882638587465,16,-1,-4,4,-4,0,-1,6
1501882638594458,-14,-6,-9,59,7,1,-2,-4
1501882638594458,21,-3,-26,-65,-19,-6,-4,9
1501882638609448,13,-4,-1,-24,-5,-2,0,21
1501882638609448,7,6,10,20,5,1,0,-16
1501882638618407,-33,0,3,22,1,-2,-2,-7
1501882638618407,10,-2,11,38,2,1,2,3
1501882638633406,-1,-4,-11,11,5,-2,-1,3
1501882638633406,-1,1,6,-1,-1,-2,0,3
1501882638634405,3,2,3,2,4,5,2,13
1501882638634405,2,2,-2,-58,3,1,1,2
1501882638647449,-7,1,6,81,-4,-1,-1,-15
1501882638647449,-5,-4,-6,-23,-1,-1,1,-5
1501882638654415,0,0,7,5,-1,1,-1,-7
1501882638654415,-13,-2,-7,5,2,-1,0,-7
1501882638670450,-2,-1,-2,23,3,-2,-1,13
1501882638670450,7,1,-4,-24,-2,0,0,12
1501882638672411,-2,3,11,48,1,-3,1,-5
1501882638672411,-3,-7,-14,-46,-7,-3,-2,13
1501882638693410,-11,3,1,-33,2,3,0,-11
1501882638693410,-2,1,19,59,-1,-4,0,19
1501882638694409,-7,-4,0,-24,1,-2,-2,-45
1501882638694409,-15,0,-1,6,-1,-2,0,3
1501882638707456,0,0,1,29,1,-3,-2,-1
1501882638707456,-7,1,-1,-88,-8,6,2,-3
1501882638714471,4,-2,-6,7,0,2,1,22
1501882638714471,4,1,10,65,6,0,0,4
1501882638730422,-6,-7,-19,-52,-16,-6,-3,-9
1501882638730422,2,0,7,5,3,-1,-2,-5
1501882638732417,5,1,3,-20,0,1,4,2
1501882638732417,-5,-3,5,12,-1,-2,0,-10
1501882638753436,1,1,3,-4,1,0,-1,5
1501882638753436,-8,-2,-5,2,0,-5,-2,-16
1501882638754414,-2,-1,-5,-33,-1,1,0,9
1501882638754414,9,3,3,39,5,4,1,7
1501882638767452,-7,-3,-1,-44,-10,-3,-2,-7
1501882638767452,0,-1,2,32,0,-4,-6,5
1501882638774480,-3,-3,-7,-17,-1,-5,0,-1
1501882638774480,16,0,-9,-23,-1,1,-1,29
1501882638790488,-22,3,4,23,6,7,0,-49
1501882638790488,-17,0,12,27,-3,-3,-1,3
1501882638792425,9,-4,-6,22,-1,-5,-2,16
1501882638792425,13,-1,4,-41,-5,-3,-1,0
1501882638813444,18,2,-13,-2,-4,-1,-1,7
1501882638813444,-13,-2,6,2,-1,-3,-2,2
1501882638814426,-11,4,3,5,-7,-1,-1,-16
1501882638814426,2,1,0,-14,3,0,2,5
1501882638827422,35,-5,-2,34,-4,-9,0,36
1501882638827422,-23,-1,4,34,7,9,2,-23
1501882638834433,3,-5,2,-25,-6,-1,-2,17
1501882638834433,3,-1,-23,-20,0,-2,0,-9
1501882638850463,-5,-4,-8,6,-1,2,-1,-6
1501882638850463,9,0,0,-14,0,-5,-2,6
1501882638852455,27,-3,4,21,-5,-8,-6,2
1501882638852455,-20,1,4,-6,2,4,0,-11
1501882638873460,-5,2,13,63,17,1,0,3
1501882638873460,2,-3,-8,-69,-8,1,-1,4
1501882638875421,-3,2,-16,-16,-14,-1,-1,-1
1501882638875421,-1,1,11,28,2,2,0,-2
1501882638886489,-6,-7,-13,-20,-4,-6,-6,-11
1501882638886489,12,0,-5,4,5,1,1,0
1501882638895433,-13,1,18,57,1,-2,-2,4
1501882638895433,-3,-2,9,-1,-3,-3,-2,0
1501882638910464,5,4,-5,-21,8,3,4,-5
1501882638910464,-16,-4,-19,-23,-16,-7,-3,-12
1501882638912422,7,-1,-11,-45,4,6,3,12
1501882638912422,-17,-4,10,46,0,0,-3,-22
1501882638933435,6,2,-3,-13,-3,-3,-1,6
1501882638933435,3,0,2,14,2,-1,-3,-2
1501882638934437,18,-3,0,21,0,-5,-1,56
1501882638934437,-9,0,-9,-4,0,-4,-2,-27
1501882638946497,-5,-3,14,-65,-7,0,-1,11
1501882638946497,-14,-1,-4,3,3,-1,0,-11
1501882638955424,-1,-4,1,-7,-9,-1,-3,-15
1501882638955424,-1,1,-20,-31,0,5,2,7
1501882638970465,-1,-1,7,17,-5,-8,-1,-2
1501882638970465,-2,3,17,81,8,3,0,2
1501882638972428,-9,0,1,-17,5,2,2,-3
1501882638972428,3,0,1,-68,-6,-5,-2,-3
1501882638992494,-13,0,-12,-8,-1,-4,-4,-14
1501882638992494,10,-5,8,30,6,5,-1,1
1501882638994428,3,1,-16,-26,-4,-3,-2,0
1501882638994428,-48,-2,6,-27,-11,-4,-2,-31
1501882639006428,3,4,12,45,3,8,2,6
1501882639006428,23,2,3,25,4,-2,1,8
1501882639015428,-5,-5,-2,14,1,-1,-1,-11
1501882639015428,42,-3,-2,23,0,-1,1,65
1501882639030467,-39,-3,-3,-7,-1,-1,-3,-64
1501882639030467,6,1,3,-26,-4,-2,-1,-12
1501882639032430,0,-2,-13,-23,-3,0,-1,13
1501882639032430,-12,-4,8,27,0,-2,0,-23
1501882639053448,23,1,-6,-2,7,11,1,21
1501882639053448,-4,-5,-17,-18,-5,-5,-2,3
1501882639054444,-3,4,22,-15,-6,-1,3,-11
1501882639054444,1,-2,-10,27,0,-4,-3,18
1501882639066502,1,0,-2,-13,-1,-4,0,6
1501882639066502,-9,1,-6,-53,0,0,0,-20
1501882639075431,10,-1,2,34,2,4,1,6
1501882639075431,-29,-3,7,41,2,1,0,-13
1501882639090447,28,0,-7,-37,-6,1,2,10
1501882639090447,14,-2,-24,32,-1,-5,-4,3
1501882639092467,-29,0,16,-8,4,-3,-2,-7
1501882639092467,-9,-2,-6,-18,-6,-3,-7,-77
1501882639112501,-26,-5,2,65,5,-1,-1,-2
1501882639112501,15,1,14,0,-6,-3,0,15
1501882639114435,-7,-4,-32,-62,-6,0,-1,-16
1501882639114435,17,-1,0,17,4,2,0,25
1501882639126508,-9,-1,1,-10,-4,0,0,3
1501882639126508,-7,-2,-7,1,-2,-3,0,-13
1501882639135437,0,0,7,25,6,0,0,8
1501882639135437,6,-2,2,-48,-4,-1,-4,-2
1501882639150474,5,-1,1,-5,3,-1,-2,5
1501882639150474,-3,3,16,12,-10,-8,-2,14
1501882639152463,4,-2,-5,-9,3,4,-1,-8
1501882639152463,10,1,-6,3,0,2,6,15
1501882639173457,6,-1,-4,3,3,0,-2,-11
1501882639173457,28,-6,-10,-36,-6,-2,0,30
1501882639174471,-21,-2,12,4,-2,-1,-5,-32
1501882639174471,2,2,-1,36,3,-1,-1,-3
1501882639186438,-12,0,-11,-74,-5,-3,-2,19
1501882639186438,10,1,6,24,2,3,0,-4
1501882639201470,-21,-4,-4,18,0,-7,-4,-1
1501882639201470,25,3,9,59,8,4,-1,68
1501882639210502,-28,-4,-6,-7,-10,-2,-2,-10
1501882639210502,-9,-3,-11,4,0,0,-2,-6
1501882639212451,1,6,4,-28,0,-1,1,2
1501882639212451,13,-5,-11,25,-1,-7,-5,-8
1501882639232452,6,2,8,15,1,2,3,12
1501882639232452,-20,-3,0,-17,-3,-1,0,-16
1501882639234442,4,-4,0,18,-6,-4,-1,2
1501882639234442,-8,5,6,-39,0,5,1,5
1501882639246450,13,-1,10,28,1,-3,-2,11
1501882639246450,-8,3,8,59,8,3,1,-14
1501882639255455,10,-1,-13,-26,-13,-4,-1,3
1501882639255455,-6,-5,-24,1,-3,0,0,-14
1501882639270508,2,-2,5,0,-3,-3,-2,-6
1501882639270508,-5,1,-2,18,7,5,1,2
1501882639272445,24,1,0,-23,2,-1,-2,38
1501882639272445,-8,-4,6,17,-5,-5,-1,-9
1501882639292444,-2,0,0,28,4,-2,0,3
1501882639292444,-3,-1,-6,-41,-1,3,0,10
1501882639294444,2,-1,2,14,0,-1,-1,4
1501882639294444,4,0,-3,-31,0,-4,-2,-10
1501882639315488,26,-1,-1,-7,2,3,0,8
1501882639315488,-27,-2,3,-15,-13,-6,-2,-18
1501882639317457,-15,-1,-4,3,7,4,-1,-1
1501882639317457,6,1,9,22,1,0,-3,-9
1501882639330505,1,-4,-5,-12,1,1,3,12
1501882639330505,4,0,-8,-13,-3,0,0,-15
1501882639332449,2,-1,2,-2,-3,0,0,-8
1501882639332449,-6,-1,1,50,-1,-3,-2,17
1501882639352469,0,-2,-17,-26,-7,0,-1,7
1501882639352469,10,-4,-8,-49,-11,-5,-5,-12
1501882639354449,-5,1,-3,31,7,2,1,-9
1501882639354449,-2,-1,0,-21,-1,0,1,2
1501882639375495,4,-2,0,8,-1,-1,-1,49
1501882639375495,-3,-2,-2,22,5,-6,-3,-12
1501882639377452,4,1,4,-13,-10,0,0,4
1501882639377452,-29,-3,-23,-27,-2,3,0,-31
1501882639390517,-5,2,1,20,0,-4,1,-7
1501882639390517,1,-2,21,24,3,0,2,15
1501882639392454,-17,-5,-9,10,4,0,1,-16
1501882639392454,11,0,10,-12,-4,-2,-1,20
1501882639412515,4,-2,-4,-4,-1,-7,-3,-25
1501882639412515,0,1,-2,1,3,8,1,-9
1501882639414464,2,-1,6,14,1,1,-1,-19
1501882639414464,-2,-1,1,-36,-1,-1,0,-9
1501882639435491,-6,-2,-13,32,-1,-4,-6,-16
1501882639435491,-22,-1,3,-29,-5,0,5,55
1501882639441492,18,-7,-1,-18,-8,-3,-2,5
1501882639441492,6,-1,-6,-17,-3,-3,0,-23
1501882639449515,-3,2,11,13,-1,3,0,-15
1501882639449515,1,1,5,40,2,-2,-2,6
1501882639456498,-1,0,4,1,5,3,2,10
1501882639456498,2,-3,5,13,-2,-2,-2,1
1501882639473466,-7,-4,-7,-37,-4,-1,-4,1
1501882639473466,5,-1,-3,4,-1,0,-2,-11
1501882639474465,2,1,-6,-3,2,-2,-1,-1
1501882639474465,-4,-3,4,30,-2,-2,-1,12
1501882639495498,-22,3,12,-62,-4,2,-2,-37
1501882639495498,0,-5,-15,16,0,-2,-5,-4
1501882639497458,27,2,6,19,1,-4,-1,11
1501882639497458,-3,-3,-11,-21,1,4,6,12
1501882639509490,-22,-1,0,11,7,3,0,-3
1501882639509490,8,-6,-10,-7,-7,-5,-4,-2
1501882639516502,-7,1,10,34,0,-1,2,-3
1501882639516502,4,-3,-6,-12,-1,-5,-5,-6
1501882639540503,13,2,9,45,2,4,2,8
1501882639540503,2,0,-2,-57,-5,1,-1,-6
1501882639542463,-8,-2,0,4,1,-7,-5,-11
1501882639542463,-1,-1,7,24,1,0,-2,2
1501882639555502,-1,-2,-6,-20,-2,-2,1,9
1501882639555502,-5,1,9,-47,-4,-2,-2,-59
1501882639557472,-16,-8,-24,-14,-7,-3,-7,-20
1501882639557472,-4,2,5,-23,2,-1,0,-3
1501882639569495,0,-1,-5,-7,0,1,1,-8
1501882639569495,-8,1,5,26,3,1,-1,-1
1501882639576498,7,0,7,3,0,-2,0,12
1501882639576498,-4,-1,-5,-4,-4,-8,-4,-10
1501882639592522,7,-4,0,34,2,-4,-3,-1
1501882639592522,12,-2,-1,-20,-8,-2,2,24
1501882639594465,-9,-2,-2,2,2,7,1,1
1501882639594465,17,0,-3,-13,-3,-1,-1,5
1501882639615524,5,1,9,5,-1,-3,-1,1
1501882639615524,5,0,-19,48,13,-1,3,23
1501882639617492,6,-3,10,-43,-14,-4,-1,10
1501882639617492,-31,-2,5,21,3,1,1,-18
1501882639629536,20,-2,-12,-3,-3,-1,-1,23
1501882639629536,11,3,15,9,7,-3,-4,-1
1501882639636521,-3,4,-4,-6,3,4,4,4
1501882639636521,2,-5,-16,-6,-1,1,1,5
1501882639652533,-7,-3,-8,3,-2,-4,-1,-2
1501882639652533,-3,1,-1,0,1,1,-1,1
1501882639654467,4,0,-8,-11,2,1,-3,-2
1501882639654467,-1,2,8,-19,-6,-1,-1,2
1501882639675507,-5,-1,-1,-2,-2,-4,-1,-11
1501882639675507,-4,-4,-5,-8,-1,6,1,2
1501882639677468,-1,-2,2,-2,1,-3,-1,-11
1501882639677468,6,2,0,8,2,1,0,2
1501882639689517,-6,1,1,-9,0,-1,-2,-6
1501882639689517,-1,0,0,-14,-4,2,3,-3
1501882639696509,-2,-3,1,25,-1,-4,-4,11
1501882639696509,-1,2,0,-2,0,2,1,-10
1501882639712509,-2,1,0,31,4,-2,-2,-2
1501882639712509,-4,-2,-3,-56,-14,-8,-7,-1
1501882639714471,-9,-1,-6,2,0,4,2,-7
1501882639714471,2,2,9,8,0,-4,-1,-4
1501882639735510,-4,-1,-5,2,-3,2,-2,-5
1501882639735510,7,0,3,9,6,0,0,-2
1501882639737472,-18,-3,-3,3,-3,-5,-2,-17
1501882639737472,2,-5,-7,3,0,1,-3,8
1501882639749530,-3,1,13,5,-4,0,0,-1
1501882639749530,-3,-4,-5,7,2,3,2,-6
1501882639756475,9,1,0,-11,2,0,0,4
1501882639756475,-1,-1,2,0,0,-6,-1,4
1501882639772479,1,-2,-6,-23,0,4,-1,-20
1501882639772479,-2,-2,-15,-5,-9,-2,-4,2
1501882639774481,-2,0,17,-45,-3,-3,0,1
1501882639774481,12,-2,-19,29,-2,0,1,8
1501882639795516,-26,-2,-5,-5,0,-2,0,5
1501882639795516,16,0,1,8,-3,-6,-4,6
1501882639797474,-14,5,3,0,5,4,-1,-2
1501882639797474,-9,-7,-2,3,-3,-3,-2,-9
1501882639809487,-4,-2,-2,-32,-10,-4,-2,13
1501882639809487,-7,1,0,-2,5,2,2,14
1501882639818478,15,-6,-8,44,-5,-4,-4,-2
1501882639818478,-3,6,22,-8,0,5,1,6
1501882639832475,-11,-8,-12,12,-5,-4,-3,-21
1501882639832475,-13,-1,2,-26,-4,0,-1,-17
1501882639834478,16,0,-6,11,1,-6,-2,11
1501882639834478,4,5,2,-36,2,5,-2,11
1501882639855517,8,2,14,59,-5,-2,-1,-7
1501882639855517,-2,-5,-2,16,3,3,5,18
1501882639857479,2,-1,-4,4,-1,-1,-2,-7
1501882639857479,-4,0,-3,-17,-1,-4,-3,-5
1501882639869487,20,1,4,-29,-10,-9,-1,-1
1501882639869487,-5,-1,-1,62,5,3,-1,12
1501882639878480,-8,2,5,-48,-6,-2,1,-20
1501882639878480,-8,-1,-2,26,3,-3,-1,-11
1501882639892551,-16,1,-12,-34,7,9,6,-12
1501882639892551,15,-4,-4,7,-1,-4,-4,-3
1501882639894480,20,-2,-9,-4,3,1,0,23
1501882639894480,-7,1,-6,-49,-6,-3,-1,43
1501882639915532,-1,-1,18,48,4,-2,-1,-8
1501882639915532,-8,-4,-12,-20,-4,-5,-3,-19
1501882639917484,-7,1,-5,31,4,-4,-3,-1
1501882639917484,0,-2,5,6,2,5,0,-5
1501882639929494,4,-3,-13,-26,-5,1,1,0
1501882639929494,-20,2,17,25,3,-5,-4,-15
1501882639938484,20,3,2,16,0,2,0,7
1501882639938484,-18,-6,-21,-43,-11,0,0,-30
1501882639952541,7,-4,-5,-10,1,-3,-4,14
1501882639952541,21,-3,-15,-46,-5,-6,-2,10
1501882639954484,-24,-3,2,27,0,-1,-2,-27
1501882639954484,7,2,25,61,5,0,0,3
1501882639975529,0,-2,-14,-77,-16,5,1,4
1501882639975529,6,2,-1,0,1,-4,1,7
1501882639977496,9,-2,-1,5,-2,5,3,47
1501882639977496,6,-2,4,11,1,-8,-6,-36
1501882639989496,-12,0,5,64,6,-2,-1,-7
1501882639989496,4,-1,-3,-13,-8,-11,-2,4
1501882639998489,-23,-5,-12,-12,5,6,1,-10
1501882639998489,1,0,-2,-16,0,2,1,7
1501882640012547,7,0,2,-5,3,1,1,1
1501882640012547,-20,-2,4,-23,-4,0,-3,-11
1501882640014486,-14,0,2,9,-1,-5,-2,-3
1501882640014486,23,0,-10,-8,-2,-3,-1,1
1501882640035528,0,0,7,6,2,-4,-4,-13
1501882640035528,-15,-1,-2,-1,0,6,3,16
1501882640036488,29,-4,0,-6,-2,0,-1,2
1501882640036488,-4,1,4,-6,-2,-1,-1,-2
1501882640049504,11,2,3,9,2,-3,-1,16
1501882640049504,-9,-1,-4,-35,-5,5,1,5
1501882640058492,2,-2,3,29,-7,-5,-2,-6
1501882640058492,-7,-1,-7,0,1,-3,0,-6
1501882640073514,7,-1,-5,-60,-11,2,-2,5
1501882640073514,-8,-1,14,70,5,-12,-7,-17
1501882640074500,-2,-2,-15,-68,-1,4,1,19
1501882640074500,-6,0,11,46,2,3,2,-21
