timestamp,emg1,emg2,emg3,emg4,emg5,emg6,emg7,emg8
1501881678647840,14,1,-14,17,13,0,5,-5
1501881678647840,-2,-4,0,-45,-13,2,12,4
1501881678648838,98,16,-13,61,10,-3,-14,-14
1501881678648838,-76,-10,11,-6,7,11,14,13
1501881678663848,-5,8,23,4,2,-1,-37,-41
1501881678663848,-28,-8,14,28,-22,-10,22,20
1501881678664838,-22,0,19,6,-1,4,-2,11
1501881678664838,40,-1,-69,-68,8,-1,5,4
1501881678684842,-30,-16,-13,127,-7,-14,-43,-9
1501881678684842,36,2,-22,-127,-14,-2,3,73
1501881678686840,-38,6,40,-49,-3,18,73,-65
1501881678686840,-10,6,31,13,-9,-12,-22,6
1501881678698842,55,15,-5,-3,0,10,14,88
1501881678698842,8,-8,-67,-54,4,-6,-15,-47
1501881678707841,-111,-12,13,51,1,0,9,-14
1501881678707841,-29,-12,16,-14,-10,-9,-25,-11
1501881678722843,13,5,-4,4,6,6,13,-12
1501881678722843,41,-6,21,-32,-16,-3,2,10
1501881678723844,26,0,-20,57,23,-5,-12,31
1501881678723844,15,8,-26,-43,9,1,4,36
1501881678744843,0,18,107,79,8,5,8,-10
1501881678744843,5,-27,-72,96,7,-4,16,-26
1501881678761844,-51,6,2,25,0,0,-17,-20
1501881678761844,36,0,14,-39,-12,5,7,13
1501881678762845,-46,-2,-2,-31,-4,-6,-8,-33
1501881678762845,12,13,20,-17,4,1,-18,-13
1501881678765845,-6,-17,-16,48,9,0,-12,29
1501881678765845,41,-6,-11,-21,-5,-4,18,-9
1501881678782848,-40,2,-41,-128,-20,4,-6,-2
1501881678782848,-34,0,16,99,19,-6,-25,10
1501881678783849,13,-10,9,-10,-21,-3,57,13
1501881678783849,4,6,44,69,29,4,-22,5
1501881678806848,56,-9,-76,-112,-16,-2,-2,-30
1501881678806848,-15,3,53,76,16,11,36,13
1501881678807848,-27,6,-24,-60,-10,-1,-23,-28
1501881678807848,-11,0,-33,95,10,-5,-19,-17
1501881678819852,-23,-17,-3,23,-19,-9,17,21
1501881678819852,29,0,-23,-21,2,0,1,8
1501881678833850,34,7,0,-8,11,6,-12,17
1501881678833850,-20,10,51,-21,-1,-2,-8,-21
1501881678843857,-30,-8,-8,-11,8,1,20,6
1501881678843857,-13,7,-21,-76,1,-4,-5,-10
1501881678845850,33,3,-3,18,-3,-1,11,70
1501881678845850,-18,11,-14,18,12,4,-25,-25
1501881678864850,42,-29,-58,25,-18,-3,9,-8
1501881678864850,-68,11,41,34,10,0,-4,-26
1501881678866852,42,4,52,61,10,0,-13,29
1501881678866852,-45,-6,-42,29,-5,0,37,-53
1501881678878865,21,-1,2,53,5,-5,-8,25
1501881678878865,6,0,8,-61,-12,4,16,3
1501881678888854,0,6,-9,19,16,1,-38,-25
1501881678888854,16,-8,5,-73,-25,-7,7,23
1501881678902854,0,3,56,69,3,-2,-4,37
1501881678902854,6,-8,-50,-21,-17,-3,-10,-18
1501881678904859,-10,20,75,23,12,8,11,-13
1501881678904859,-15,-10,-19,-29,-18,-2,3,5
1501881678924871,17,5,-44,-82,-5,1,1,12
1501881678924871,9,6,14,-4,8,-5,-32,6
1501881678926864,-27,-17,20,70,-7,-1,29,-52
1501881678926864,5,-3,-21,-34,-2,-2,3,19
1501881678938854,-20,6,40,55,5,-2,-8,-24
1501881678938854,46,-3,26,-50,-11,-2,-8,30
1501881678947855,-7,4,-51,-98,-19,-2,-12,45
1501881678947855,-8,-19,11,-5,-5,-7,-18,11
1501881678969856,13,10,42,23,9,3,-11,-53
1501881678969856,-102,2,-9,-47,-2,-3,8,-27
1501881678971857,45,-7,-21,32,6,-3,0,22
1501881678971857,31,1,7,-98,-9,-1,-12,9
1501881678984858,-9,1,-15,10,11,2,-4,41
1501881678984858,19,-15,-17,0,-7,-1,15,-44
1501881678990872,-1,7,-25,-90,0,-4,-15,-27
1501881678990872,3,-9,-35,-25,-11,-7,-12,10
1501881678998869,5,-2,5,-54,1,4,30,-63
1501881678998869,17,6,10,29,-6,2,4,8
1501881679007858,-34,2,15,-9,13,0,-6,-22
1501881679007858,-1,-14,-3,127,17,2,-1,0
1501881679022859,-4,9,-2,-128,-38,-7,-13,-4
1501881679022859,57,-13,2,80,6,1,16,83
1501881679023862,2,5,0,71,1,0,-5,-47
1501881679023862,-49,4,-20,-93,-5,3,10,53
1501881679044864,12,-8,2,-17,-2,-9,-23,39
1501881679044864,51,5,7,24,2,1,13,8
1501881679046874,-15,-7,25,81,21,4,-2,-11
1501881679046874,3,-5,0,3,-26,-7,1,4
1501881679058862,-37,0,-27,2,-7,-2,-6,-25
1501881679058862,-1,-5,4,-43,0,1,4,-11
1501881679067862,10,-4,-36,-57,-16,-11,-8,40
1501881679067862,14,3,11,112,14,0,4,-21
1501881679082864,15,-1,5,-95,-2,1,-5,-4
1501881679082864,-18,2,0,118,7,0,0,36
1501881679084864,-36,-4,-4,-18,-10,-2,-11,-30
1501881679084864,12,4,0,-27,-2,4,17,27
1501881679104868,75,2,-5,21,7,-2,5,57
1501881679104868,-45,5,15,41,3,1,0,-41
1501881679106865,12,-8,-22,-6,0,-4,-7,5
1501881679106865,-75,3,34,15,1,1,11,-37
1501881679127868,27,4,-28,49,18,-1,-11,2
1501881679127868,-17,-6,16,7,-8,0,2,4
1501881679129875,41,1,-23,-57,-18,0,4,69
1501881679129875,40,8,52,21,6,-2,3,-44
1501881679157867,-47,8,0,50,9,6,8,28
1501881679157867,-6,-8,-29,-61,3,4,-3,-23
1501881679158867,9,3,71,127,22,-3,-12,-16
1501881679158867,-19,-10,-72,-91,-22,-5,1,-18
1501881679164867,-30,-8,-3,-13,-3,-2,-12,-12
1501881679164867,-18,-9,-18,33,-8,-8,-3,20
1501881679166869,-22,7,17,-33,-3,2,12,-26
1501881679166869,28,0,-10,54,24,5,-2,10
1501881679178868,-60,-5,20,-45,-5,-4,-4,-82
1501881679178868,14,5,11,-66,-18,-4,-2,9
1501881679187869,4,-11,-32,-65,4,2,0,-2
1501881679187869,4,8,15,103,7,1,0,15
1501881679202871,41,-15,0,-7,-8,-5,-3,-23
1501881679202871,11,7,15,3,9,1,-6,32
1501881679203872,27,-1,-24,-26,-10,1,11,-11
1501881679203872,20,0,-35,-32,6,0,-14,-57
1501881679224886,-24,-8,16,31,-5,-3,-5,-16
1501881679224886,-17,14,40,-29,13,6,20,7
1501881679226872,6,-16,-58,69,-7,-3,-8,9
1501881679226872,-25,-4,21,-71,-32,-7,-11,-18
1501881679238872,21,1,1,111,14,-3,5,9
1501881679238872,-21,-6,-1,-11,-9,-4,-18,-69
1501881679247872,-27,3,13,-32,-2,0,-2,-21
1501881679247872,32,4,23,67,17,1,0,23
1501881679261874,-29,0,-4,-107,-22,1,-2,39
1501881679261874,28,-4,-28,-41,-11,-5,-5,11
1501881679269874,0,1,-2,74,8,2,-3,4
1501881679269874,22,-6,4,-26,-18,-3,1,83
1501881679284877,22,-1,6,42,9,-1,-1,-57
1501881679284877,-12,5,-8,5,4,4,2,-9
1501881679290874,-8,-6,11,-7,-7,-5,-5,-1
1501881679290874,12,6,-2,-67,9,4,1,12
1501881679298875,-8,1,-9,65,15,4,2,12
1501881679298875,-3,-4,17,6,3,1,0,29
1501881679307878,-24,-10,-40,-59,-8,-1,6,-18
1501881679307878,4,4,18,20,-5,-1,2,11
1501881679322877,68,10,-10,-46,2,0,2,17
1501881679322877,-33,-7,-3,42,-8,-4,-11,11
1501881679323879,24,5,-2,-5,10,0,2,47
1501881679323879,-79,-9,7,94,-5,-3,-1,-82
1501881679344902,0,-5,8,64,-5,-4,-2,23
1501881679344902,34,-1,-11,-22,1,-1,-3,-18
1501881679346879,-50,2,24,-32,-6,0,4,11
1501881679346879,18,2,-20,-59,-3,3,7,10
1501881679367879,-13,2,27,81,14,4,-5,-27
1501881679367879,-14,2,13,18,5,-6,4,-24
1501881679368881,5,-8,-19,18,-4,0,-6,5
1501881679368881,-25,1,-42,-64,-21,-4,-4,-23
1501881679382882,-37,-8,10,-42,-11,-5,-1,10
1501881679382882,3,-2,-14,33,10,4,-6,-11
1501881679383885,-12,7,21,17,4,2,4,29
1501881679383885,14,-13,-9,39,11,1,3,-5
1501881679405882,-1,5,-30,-116,-12,0,-4,-96
1501881679405882,-6,1,30,18,-13,-5,0,5
1501881679406885,27,1,-10,13,1,-1,-1,28
1501881679406885,-8,-14,-24,-25,0,-5,-6,-40
1501881679427893,-61,1,-4,15,1,-2,3,-27
1501881679427893,65,2,-4,-21,-1,-5,-3,87
1501881679428887,-61,-9,-12,-7,-5,-4,-9,-44
1501881679428887,15,4,34,-6,6,1,3,29
1501881679442885,14,-2,-20,-5,-6,-4,-2,11
1501881679442885,-2,0,3,-25,20,8,-1,-64
1501881679444886,-3,-2,-15,49,-2,-4,1,17
1501881679444886,8,-5,-13,-52,-7,-1,7,-28
1501881679464885,12,5,3,55,8,3,2,25
1501881679464885,-16,-4,-2,5,-12,-3,-1,-32
1501881679466886,38,1,-11,-66,-2,-2,-1,25
1501881679466886,13,11,27,91,6,-1,-3,7
1501881679487888,-32,-17,-21,-30,-1,-3,-2,66
1501881679487888,-34,6,18,-5,-6,3,4,-27
1501881679488889,93,-6,-27,7,2,-4,-10,18
1501881679488889,-16,-1,-2,37,-2,0,0,11
1501881679501902,27,10,24,52,7,7,10,77
1501881679501902,-23,-14,-41,-72,-17,-7,-10,-23
1501881679508888,-31,0,10,4,-2,-4,-5,-42
1501881679508888,18,-4,11,-6,4,1,-2,56
1501881679524889,5,10,20,-29,17,7,3,-65
1501881679524889,-2,-13,-31,-28,-16,-4,-4,-17
1501881679526890,-37,7,6,9,-8,-2,2,-11
1501881679526890,-1,3,7,38,21,0,-3,-19
1501881679547890,2,-2,-3,-58,3,6,5,-1
1501881679547890,3,2,26,10,12,0,1,24
1501881679562895,11,-3,-17,-7,-17,-4,-7,-17
1501881679562895,-4,0,29,-1,-5,-1,0,71
1501881679563892,3,-4,-44,12,-1,-3,0,43
1501881679563892,-1,0,15,54,1,1,2,46
1501881679568891,28,3,30,-22,-2,0,6,10
1501881679568891,-22,0,-2,-38,8,5,-3,-27
1501881679592893,-28,-8,9,4,-11,-10,-8,-28
1501881679592893,30,2,-13,-48,-19,-5,-3,46
1501881679593895,-5,5,10,-45,1,1,3,16
1501881679593895,1,-2,1,96,13,-2,-2,-85
1501881679607894,9,10,42,-1,-12,3,0,-6
1501881679607894,-39,-15,-68,-63,-8,-4,-1,12
1501881679608894,-2,2,8,-17,-3,-2,-4,-14
1501881679608894,20,1,7,38,10,3,-1,24
1501881679621900,-36,-5,-1,-38,-11,-5,-1,-38
1501881679621900,-54,-6,-14,51,3,-6,-7,-67
1501881679628903,-4,0,1,-6,2,9,8,13
1501881679628903,-10,-8,-44,-84,-17,-3,-3,11
1501881679645896,27,-7,-10,64,10,-3,-5,3
1501881679645896,19,4,15,-12,-7,2,2,5
1501881679646905,-26,-4,26,90,5,-4,-5,-45
1501881679646905,24,8,12,-128,-16,-1,1,11
1501881679667898,-37,-3,20,59,2,-1,2,-31
1501881679667898,38,3,-15,-58,9,3,-2,39
1501881679668897,37,3,40,127,22,2,3,89
1501881679668897,-17,-9,-63,-42,-24,-6,0,71
1501881679681898,24,-4,-12,-63,-20,-4,0,25
1501881679681898,39,4,-4,51,16,1,-1,-5
1501881679688899,-65,-6,-11,-14,8,-2,-5,-51
1501881679688899,7,10,31,19,-6,2,-3,18
1501881679705900,38,-3,-27,-52,-11,-5,-3,19
1501881679705900,-24,-1,26,30,0,0,0,13
1501881679706901,13,-4,0,-5,11,4,2,-17
1501881679706901,-10,-4,-9,5,-10,-5,-2,-3
1501881679734903,9,3,11,113,23,4,6,29
1501881679734903,32,8,16,-70,-13,-3,-8,-65
1501881679736902,-36,-2,-4,-70,-15,-4,-2,4
1501881679736902,57,1,-8,-45,4,1,5,40
1501881679741901,16,-4,5,-22,-8,0,-6,-1
1501881679741901,-52,-4,7,96,9,-1,9,14
1501881679748902,0,5,-18,-40,-1,3,0,-21
1501881679748902,-20,-8,-5,95,13,-5,-7,-63
1501881679764904,16,0,13,-31,-27,-6,-2,29
1501881679764904,11,-9,-28,-44,-2,0,2,-12
1501881679766915,-3,5,18,30,6,3,3,74
1501881679766915,-6,-3,6,4,-1,-3,0,-79
1501881679787906,23,-5,-19,-35,-4,-3,-5,46
1501881679787906,-16,1,22,26,4,3,4,-5
1501881679788906,28,-1,-10,62,-7,-2,-2,-3
1501881679788906,-27,-2,15,-45,3,2,-2,-40
1501881679801905,18,-3,-9,15,-3,-3,-5,34
1501881679801905,21,5,-5,10,12,4,10,-53
1501881679808906,-25,-8,-3,30,5,0,-4,-32
1501881679808906,45,9,13,10,-3,-1,-1,78
1501881679824908,-27,0,16,25,14,1,-2,-69
1501881679824908,-20,-5,-25,-60,-20,-2,-6,-10
1501881679826907,2,1,-19,-7,4,1,4,42
1501881679826907,-15,-2,8,6,-5,-2,-3,-53
1501881679847916,-32,-1,-8,1,-2,1,2,-53
1501881679847916,39,3,10,66,19,0,-5,74
1501881679848908,-16,-5,8,-79,-33,-8,-5,-25
1501881679848908,-15,-5,-29,44,10,-2,5,0
1501881679860910,5,1,-3,-12,0,2,1,-16
1501881679860910,21,-2,-3,-14,-9,-2,2,-5
1501881679869909,-27,5,2,-9,-2,-3,-8,-10
1501881679869909,-2,-5,4,31,6,1,3,30
1501881679892913,-8,1,10,-8,-1,-1,-5,-26
1501881679892913,3,-9,-23,-77,-11,-3,-6,-59
1501881679893912,1,6,37,61,4,-2,0,-19
1501881679893912,-31,1,15,12,11,1,-3,14
1501881679906912,1,-3,-7,7,-2,-3,-4,-24
1501881679906912,-3,5,13,49,4,0,5,41
1501881679914917,15,-8,-21,-44,-4,-1,-1,-28
1501881679914917,7,13,19,-77,-10,0,-3,8
1501881679920915,-19,-10,-20,-7,-1,-2,-4,18
1501881679920915,-29,-1,28,39,3,-4,-6,-17
1501881679929914,-2,-8,-53,5,-3,-1,3,-19
1501881679929914,-9,-4,9,-48,1,5,4,3
1501881679944916,-4,7,9,41,-1,-4,2,-4
1501881679944916,-8,-6,-13,-14,-6,-6,-7,3
1501881679946914,-26,-2,-3,38,7,2,-1,-15
1501881679946914,4,-1,-3,-102,-14,-2,-5,13
1501881679967915,24,-5,-9,-13,-1,-3,5,48
1501881679967915,31,2,6,38,4,-1,1,88
1501881679968916,-17,2,26,10,6,0,-4,-36
1501881679968916,-4,-14,-57,-18,-2,-2,-3,-26
1501881679980917,17,5,7,-35,8,2,0,38
1501881679980917,-15,-4,-10,-29,-15,-2,4,-15
1501881679989931,50,-3,-18,-29,-11,-6,-2,27
1501881679989931,20,3,18,-10,3,-2,-1,56
1501881680003916,-1,2,-13,-67,11,6,4,-15
1501881680003916,-5,-6,-2,104,7,-4,-2,4
1501881680012920,-37,-4,-15,-63,-9,-2,-3,-13
1501881680012920,9,6,26,-14,-3,-1,1,-56
1501881680027919,26,-11,-22,50,-2,-7,-13,-61
1501881680027919,20,8,13,26,9,3,3,-5
1501881680028921,26,4,27,28,-3,3,5,23
1501881680028921,-9,-5,-15,2,1,-3,-2,-11
1501881680040933,1,7,15,47,-8,-1,-1,17
1501881680040933,-29,-2,10,18,3,0,3,-28
1501881680049920,21,2,2,25,6,-1,-4,-1
1501881680049920,29,2,18,14,-3,0,4,25
1501881680064920,-31,-4,-25,0,3,0,-1,1
1501881680064920,-13,-1,11,-19,1,0,2,3
1501881680066921,-2,2,-14,-22,4,5,2,18
1501881680066921,16,-5,5,74,-19,-9,-2,68
1501881680087935,2,5,11,13,2,0,3,15
1501881680087935,-9,5,14,-57,2,3,-2,-2
1501881680088924,-3,-3,-8,-20,-2,-3,-2,-2
1501881680088924,2,1,-8,25,6,1,-1,4
1501881680100937,-25,-11,4,-69,-11,-3,-2,0
1501881680100937,26,11,5,62,13,4,4,40
1501881680109943,-31,-6,7,77,1,-5,-5,-48
1501881680109943,-48,-3,-13,-23,-21,-6,-5,-23
1501881680125980,-5,1,10,-45,-5,-3,-1,-12
1501881680125980,-21,-6,-17,-75,0,0,0,-12
1501881680127923,26,-3,-30,-25,-4,-3,-5,29
1501881680127923,-35,4,22,52,6,-1,-1,-17
1501881680147925,40,9,-13,42,3,3,3,1
1501881680147925,-4,-13,-18,63,-9,-5,-6,5
1501881680148927,4,0,4,-46,0,-1,3,19
1501881680148927,-11,0,18,29,-10,0,-2,-18
1501881680160939,0,4,17,6,0,0,1,45
1501881680160939,-35,-9,-37,-55,-14,-5,-5,-21
1501881680169927,-5,3,22,41,6,-2,-3,-11
1501881680169927,7,-10,-37,27,3,0,-1,9
1501881680192928,-24,-4,24,-49,4,-1,2,-12
1501881680192928,24,4,0,-8,-7,-5,-1,23
1501881680193930,5,-2,-38,-57,-2,-1,-10,-44
1501881680193930,22,-3,4,70,10,3,4,3
1501881680207932,-16,-8,-17,-33,-12,-2,2,-28
1501881680207932,-4,6,32,27,4,1,-2,-20
1501881680208929,5,-8,-16,-66,-16,-6,3,14
1501881680208929,9,6,8,-8,6,-1,-2,16
1501881680220934,17,-8,-20,30,10,5,2,59
1501881680220934,-7,4,23,34,10,0,-3,-21
1501881680229930,-17,-5,-2,32,-4,-2,1,34
1501881680229930,15,-1,-32,-18,-4,2,0,8
1501881680260950,1,0,2,-1,-8,-4,-3,1
1501881680260950,-6,-1,16,-62,-6,-2,-5,-7
1501881680261932,27,7,8,24,7,3,6,22
1501881680261932,-15,-4,5,37,14,0,-2,26
1501881680267933,-23,-1,-26,35,3,0,-3,-51
1501881680267933,12,-2,-5,-89,-13,-2,-5,-18
1501881680268935,-23,-12,-19,10,-12,-10,-8,-35
1501881680268935,-12,1,20,24,1,-2,-1,2
1501881680289949,31,7,4,-19,8,6,5,79
1501881680289949,-61,-5,-6,60,10,2,-3,-79
1501881680291935,-4,3,-6,-82,-19,-6,-6,18
1501881680291935,-1,-4,2,-53,1,1,3,-8
1501881680304934,3,-1,-8,-28,-7,-5,-3,38
1501881680304934,-10,-5,7,41,-2,-1,-2,-17
1501881680306936,11,6,23,87,18,4,-1,1
1501881680306936,2,-1,-44,-83,-13,-3,-3,-21
1501881680334939,-14,5,10,-26,-1,0,-1,-31
1501881680334939,-9,-18,-23,57,-10,-10,-7,38
1501881680336938,-7,2,14,7,-6,1,2,-44
1501881680336938,9,7,6,-41,-2,0,-2,-1
1501881680349958,-12,-2,6,19,5,2,-1,-47
1501881680349958,-2,8,6,35,7,4,2,25
1501881680351939,11,-8,3,-85,-17,-5,-2,63
1501881680351939,-2,-2,4,16,-2,-3,0,-17
1501881680364938,22,3,17,34,6,0,-2,24
1501881680364938,-20,-3,11,-17,-7,-2,2,-24
1501881680366939,11,0,-5,8,6,3,3,-2
1501881680366939,5,-2,-5,-40,10,2,0,-13
1501881680387954,1,-3,12,127,-9,-4,0,-7
1501881680387954,23,2,-33,-13,5,2,1,71
1501881680388939,0,0,17,-28,-6,-1,-5,-22
1501881680388939,-15,-6,-19,6,-1,-3,-1,-5
1501881680409941,2,5,14,-62,11,5,3,1
1501881680409941,2,-7,-11,64,-3,-5,0,12
1501881680411942,-14,-9,2,27,-7,-2,1,-9
1501881680411942,1,2,-1,28,10,-1,-2,-14
1501881680424942,-12,-10,-39,24,8,-1,-3,-13
1501881680424942,18,4,23,-61,-24,-1,-3,71
1501881680426943,17,4,-15,-81,-7,-1,4,-9
1501881680426943,-32,5,25,18,-5,-5,-5,-22
1501881680447944,3,-5,-11,-47,0,-3,-3,-34
1501881680447944,30,1,2,31,10,0,3,-1
1501881680448945,14,-1,5,60,15,3,1,16
1501881680448945,15,-4,2,-36,-7,-1,-5,-11
1501881680469944,-26,2,13,-15,-13,-3,2,24
1501881680469944,9,0,-6,-21,5,-1,-1,-20
1501881680471944,17,6,15,-11,9,4,0,-19
1501881680471944,2,-1,-10,74,3,0,1,4
1501881680484945,-11,-6,10,56,-15,-7,-6,-11
1501881680484945,11,0,-8,-78,-8,0,1,-7
1501881680490959,-19,-1,-11,39,7,-1,-1,49
1501881680490959,15,1,12,29,5,3,1,-35
1501881680507947,-29,-10,14,-17,-6,-5,-2,3
1501881680507947,-9,5,-13,-47,-14,-3,-1,-26
1501881680508947,-33,-4,-9,4,1,0,-1,-44
1501881680508947,-18,0,-3,-1,4,-1,-1,3
1501881680530952,24,-1,1,-9,-10,-5,-4,10
1501881680530952,17,5,23,18,11,-1,0,10
1501881680535948,26,4,-9,-33,-3,0,0,30
1501881680535948,-10,-13,-34,37,1,-1,-1,15
1501881680544949,-31,-2,7,25,5,3,2,-17
1501881680544949,23,-3,-14,-75,-25,-7,-5,5
1501881680552950,1,-5,5,-2,2,-2,-1,17
1501881680552950,8,9,5,-7,-3,0,-2,3
1501881680567950,10,1,-2,105,12,2,4,-5
1501881680567950,-19,-3,-16,-18,0,1,-2,-22
1501881680568951,14,-3,1,-16,-2,-5,-6,-12
1501881680568951,-18,0,-4,27,5,1,2,22
1501881680589954,7,-5,-21,1,0,-5,-9,-72
1501881680589954,-2,4,19,-74,-12,-1,-1,-39
1501881680591952,-4,4,9,61,15,8,7,5
1501881680591952,2,-5,-22,-55,-13,-3,-3,44
1501881680604953,1,4,10,-26,1,-1,0,6
1501881680604953,0,3,24,106,22,6,4,32
1501881680610953,-18,-17,-55,-112,-30,-9,-14,-40
1501881680610953,29,4,23,42,1,0,2,33
1501881680627956,-17,-2,-9,-27,-4,0,0,3
1501881680627956,14,0,-9,3,5,0,-3,-17
1501881680628953,-6,2,9,10,6,0,4,49
1501881680628953,33,-4,12,-64,-6,-1,-1,15
1501881680657958,-7,6,-26,20,-4,1,5,-5
1501881680657958,-14,-6,10,-50,-1,-2,1,-9
1501881680658955,-29,1,-1,52,6,0,-2,-44
1501881680658955,-2,-4,9,-37,-8,-2,-1,6
1501881680664955,13,-2,12,-4,-1,-2,-5,8
1501881680664955,0,4,-5,21,13,4,1,4
1501881680670956,-5,-9,-47,-73,-16,-6,1,44
1501881680670956,-30,0,54,32,2,-1,0,-27
1501881680687959,-6,1,-10,-18,-2,1,-3,-13
1501881680687959,-11,-2,-7,47,7,-3,-4,-34
1501881680689957,5,4,15,-18,8,3,5,-13
1501881680689957,-4,-7,-35,-3,-3,-3,-1,-2
1501881680710959,32,1,21,-46,2,-1,-2,39
1501881680710959,-25,-6,-38,33,-3,-3,-2,-47
1501881680711958,34,3,20,12,2,-2,-3,-17
1501881680711958,-37,-5,-5,-5,-5,-3,-6,-37
1501881680724959,-10,1,17,21,3,3,4,-10
1501881680724959,11,-3,-22,-41,-6,0,0,17
1501881680730963,25,6,29,38,0,3,1,11
1501881680730963,2,3,7,28,11,0,0,-17
1501881680747962,-10,-12,-22,-11,-22,-7,-7,-41
1501881680747962,-22,-8,6,61,4,-6,-6,20
1501881680748962,6,7,7,-32,-4,-2,1,0
1501881680748962,20,-1,-16,-49,5,1,0,5
1501881680769962,-6,-2,-3,30,0,-1,0,24
1501881680769962,9,-5,-24,-61,-4,3,3,-4
1501881680771963,-24,-5,10,40,1,-2,-4,-29
1501881680771963,-19,5,18,36,7,1,-2,32
1501881680783963,5,2,-33,-97,-3,-4,-3,10
1501881680783963,6,-4,9,74,1,0,1,2
1501881680792964,2,-13,-16,5,-8,-6,-5,62
1501881680792964,31,3,3,-36,0,-1,1,25
1501881680807965,-31,1,13,107,23,6,-1,-26
1501881680807965,18,4,25,-123,-30,-8,-1,1
1501881680808964,-45,-9,-20,18,-3,-4,-4,-11
1501881680808964,16,0,15,38,0,0,1,19
1501881680829966,11,1,-28,-27,-3,-2,0,-10
1501881680829966,3,1,17,36,7,-1,-5,16
1501881680831967,-3,5,27,19,4,4,3,-28
1501881680831967,-14,-5,-33,-29,-6,-4,-3,-32
1501881680843967,-9,-3,-3,10,-1,-4,-5,-29
1501881680843967,0,0,5,-19,1,-1,0,-15
1501881680852966,21,-6,-29,42,0,-4,-3,6
1501881680852966,-8,-1,-2,-77,-6,1,-1,-29
1501881680867967,40,4,4,-19,1,2,4,62
1501881680867967,-58,0,12,89,13,4,5,-24
1501881680868968,33,-4,1,-8,6,0,-2,10
1501881680868968,16,5,-11,-12,0,0,2,-12
1501881680889983,-11,-1,30,31,-2,-2,1,21
1501881680889983,-3,-2,-37,-63,-8,-3,1,41
1501881680891971,-4,8,21,15,12,4,0,-25
1501881680891971,-6,-4,0,46,-9,-3,-1,-8
1501881680903971,6,-5,4,-21,2,-3,-3,-3
1501881680903971,2,1,-4,7,-10,-1,0,9
1501881680912973,-14,5,5,16,2,2,1,5
1501881680912973,29,-3,-6,0,-2,-3,-2,36
1501881680927974,-16,2,10,-64,-16,-1,-4,-21
1501881680927974,36,-8,-20,4,5,-2,-2,7
1501881680928971,16,-2,-5,8,-10,-1,1,10
1501881680928971,-48,1,28,17,9,3,-1,-52
1501881680949972,12,-4,-28,-18,-3,-2,1,19
1501881680949972,12,3,18,33,3,-3,-3,7
1501881680955974,-26,6,6,-45,-15,-3,-1,-63
1501881680955974,3,-7,-23,31,6,0,-2,-42
1501881680963973,10,1,18,-21,0,-2,1,7
1501881680963973,-14,1,14,19,-1,1,-2,-13
1501881680972974,2,-12,-17,63,4,-4,-2,21
1501881680972974,-30,-3,-13,-58,-17,-3,-2,2
1501881680987987,12,-2,-28,-31,0,-1,-2,-12
1501881680987987,13,3,15,13,-4,0,-1,18
1501881680988976,9,9,22,17,10,4,0,6
1501881680988976,-23,-5,-7,-3,-6,-2,-5,-12
1501881681010975,-18,-12,-9,-28,-13,-7,0,6
1501881681010975,3,-1,-13,21,4,0,2,-7
1501881681011976,-25,-2,-13,-52,-7,-2,-3,-11
1501881681011976,23,1,3,24,2,-2,-1,12
1501881681023992,-3,3,-5,-4,10,3,-1,32
1501881681023992,-5,2,9,6,-7,-2,-3,-46
1501881681032987,-9,-6,-5,24,-12,-4,-3,-2
1501881681032987,12,3,16,54,-7,-2,-3,12
1501881681047984,-2,2,12,32,-1,-2,-1,5
1501881681047984,23,-1,-20,-4,2,1,1,40
1501881681048980,-38,-9,-8,-40,-3,-2,-3,0
1501881681048980,2,3,14,54,12,3,2,-7
1501881681069979,50,-2,-13,-32,-12,-2,-2,51
1501881681069979,-14,1,34,30,-2,-1,-1,-6
1501881681071981,24,1,-16,-29,-4,-3,-1,7
1501881681071981,-15,-5,-9,-34,0,2,0,5
1501881681083980,-9,-7,-15,96,-3,-3,-3,-17
1501881681083980,-5,0,0,11,5,-1,-2,6
1501881681092983,5,-1,2,-24,-4,-1,1,-1
1501881681092983,6,7,15,-9,7,4,2,0
1501881681107982,-2,-2,-24,-56,-2,-4,-2,3
1501881681107982,26,-4,5,-34,-11,-4,0,-1
1501881681108981,-18,3,6,91,3,-4,-1,-2
1501881681108981,-3,0,-6,-128,-13,-4,-2,0
1501881681130984,-5,-2,-16,9,9,2,1,-24
1501881681130984,-24,-2,-14,-126,1,2,3,-12
1501881681135984,45,-5,15,44,-3,-3,-4,12
1501881681135984,-7,3,0,-10,-7,-3,0,-12
1501881681143986,-33,2,19,11,8,2,0,-12
1501881681143986,20,-2,-6,44,4,0,-2,3
1501881681152985,-1,7,6,-5,7,5,4,15
1501881681152985,2,-5,1,29,-6,-5,-3,-70
1501881681167992,0,-1,2,20,-2,-1,-4,13
1501881681167992,-26,-3,-7,1,0,-1,-1,-59
1501881681168985,34,6,3,-63,1,3,2,25
1501881681168985,14,5,10,105,4,0,0,15
1501881681190991,2,2,6,-16,6,3,3,-8
1501881681190991,-39,-4,-4,74,7,0,-4,1
1501881681191986,1,0,-18,-46,-15,-2,-1,2
1501881681191986,17,-6,-11,14,-4,-5,-1,11
1501881681203989,-6,-6,10,-65,-10,1,1,-4
1501881681203989,1,1,0,40,6,0,-3,10
1501881681212989,-35,-1,11,-56,-3,-1,1,-32
1501881681212989,-9,-3,-28,47,8,0,-2,34
1501881681227990,-1,4,11,-28,-16,-4,1,-20
1501881681227990,11,-8,-20,-31,-11,-5,-4,9
1501881681233989,-4,0,8,32,3,-1,-2,18
1501881681233989,8,-4,14,-63,-8,1,-2,-70
1501881681250002,-58,-2,-14,6,1,-1,-3,-24
1501881681250002,42,6,1,-70,-2,2,2,50
1501881681255992,12,-2,4,-46,3,-1,-2,19
1501881681255992,-13,-9,-5,49,0,-5,-5,30
1501881681272996,-2,1,24,23,-4,-1,-2,-10
1501881681272996,-7,-4,-23,-43,-4,-2,-2,-7
1501881681273991,6,-1,13,23,-7,-4,-4,-2
1501881681273991,-31,-7,-19,-59,-1,3,2,10
1501881681288006,12,-5,0,39,6,-2,-3,4
1501881681288006,-9,3,18,28,-10,-3,2,-25
1501881681288993,-18,0,-11,44,6,-1,-3,-70
1501881681288993,-1,1,-7,-70,-2,0,0,11
1501881681309994,20,5,27,109,9,-1,-3,17
1501881681309994,-1,0,-32,-19,-10,-1,1,-5
1501881681311995,-6,-8,12,101,1,-5,-2,-4
1501881681311995,5,6,17,28,6,1,-1,0
1501881681332997,-3,0,-15,32,15,2,2,-2
1501881681332997,-3,-10,-2,-39,-14,-5,-5,28
1501881681333995,-1,0,-11,-29,-2,2,2,-5
1501881681333995,5,-3,-14,25,-4,-2,1,34
1501881681346996,6,6,16,-4,-3,1,0,0
1501881681346996,-13,-4,-11,-67,1,2,0,18
1501881681353997,-17,-2,1,46,4,2,1,-33
1501881681353997,35,3,17,58,6,0,2,31
1501881681369997,-19,-3,-35,-36,-16,-2,0,14
1501881681369997,14,2,2,-9,-1,-4,-6,-30
1501881681371998,-19,-2,5,-32,-9,-2,0,0
1501881681371998,-6,0,-1,-35,5,1,-1,5
1501881681392998,0,-1,1,12,0,1,0,-16
1501881681392998,-2,-3,-6,28,4,0,-2,-6
1501881681399018,28,-4,-15,40,8,1,2,37
1501881681399018,-35,3,2,-86,-14,-2,0,-24
1501881681406999,20,-5,-9,-4,-7,-3,-2,6
1501881681406999,-2,-1,5,38,11,2,0,-6
1501881681414003,0,2,-6,-65,-4,1,-2,14
1501881681414003,4,-4,11,86,-8,-3,-1,-13
1501881681430005,-6,-5,-6,-34,-5,-5,-3,1
1501881681430005,-2,6,15,-7,6,2,0,14
1501881681432005,-18,-11,-29,94,8,-3,-6,-20
1501881681432005,20,4,-1,-93,-21,-1,2,14
1501881681452015,-17,-1,9,-2,8,-2,-2,4
1501881681452015,3,-4,-12,62,2,-3,-2,11
1501881681453002,12,1,22,55,8,-3,-5,7
1501881681453002,8,-3,-19,-72,-9,0,0,-4
1501881681466002,-5,2,-7,27,-10,-3,1,3
1501881681466002,-5,2,18,-80,-10,-2,-1,1
1501881681475006,-16,-1,6,-29,2,-1,-2,-58
1501881681475006,30,-10,-24,37,12,-1,-3,-12
1501881681490004,-21,1,4,-86,-6,-2,-3,-19
1501881681490004,-1,-2,8,98,3,0,-1,-7
1501881681490004,8,5,11,-14,5,5,4,15
1501881681490004,4,6,12,-21,5,0,-1,20
1501881681512006,7,-9,-38,-87,-8,-4,-3,-31
1501881681512006,-8,-2,-3,6,4,-4,-2,0
1501881681513005,-7,-1,-3,-56,-9,-1,2,11
1501881681513005,0,2,3,39,9,0,-3,-3
1501881681526019,7,0,13,-17,6,4,0,10
1501881681526019,-5,-4,-18,9,2,0,-2,-6
1501881681534027,2,0,8,-19,-8,-5,0,11
1501881681534027,-11,0,5,14,-3,-2,-1,15
1501881681549013,-2,2,17,70,8,1,-1,-10
1501881681549013,14,4,-2,-61,-12,2,3,10
1501881681550007,1,-7,-31,-26,0,0,-1,14
1501881681550007,-17,-5,0,64,2,-3,-3,-3
1501881681572013,10,1,20,25,4,-2,0,1
1501881681572013,8,4,-3,41,13,4,3,-10
1501881681573009,4,-3,-3,-80,-9,0,-2,10
1501881681573009,-9,-4,-11,11,-5,1,4,47
1501881681586009,-54,-2,0,31,12,2,-2,-40
1501881681586009,21,1,8,7,1,0,-1,10
1501881681595011,0,2,3,49,-17,-6,-1,-6
1501881681595011,8,-1,-10,-24,0,1,-2,7
1501881681609012,14,-3,-15,19,2,-1,1,14
1501881681609012,-16,-1,9,-14,-5,-1,0,1
1501881681610011,-6,4,-4,-5,2,1,1,-6
1501881681610011,6,-2,10,61,-6,-6,-6,-16
1501881681640025,14,-2,0,-39,-8,-2,-4,1
1501881681640025,-23,-4,12,50,1,-4,-2,-14
1501881681648013,26,0,0,-57,-11,1,-1,30
1501881681648013,-7,-2,-18,-2,9,3,2,2
1501881681649015,-10,1,-1,-29,-7,0,-5,-65
1501881681649015,10,-4,5,40,-11,-7,-3,41
1501881681654014,-70,-3,4,-10,10,-1,-2,-34
1501881681654014,6,0,19,27,3,-2,-2,-25
1501881681669015,20,0,-8,23,-12,-1,3,26
1501881681669015,-6,1,-15,-102,-5,1,-1,-8
1501881681670014,9,-3,-7,26,-1,-3,-4,-9
1501881681670014,-7,0,1,-20,7,1,3,-8
1501881681692015,9,0,-6,67,-7,-3,-1,9
1501881681692015,4,-4,-1,-10,-2,-4,-3,-4
1501881681693016,1,5,3,6,-2,3,3,16
1501881681693016,-6,-7,-2,-13,-7,-9,-7,-23
1501881681706018,-4,-5,-6,2,5,1,0,14
1501881681706018,-5,3,-4,-30,1,2,3,-20
1501881681715021,4,2,19,73,3,0,0,-14
1501881681715021,-9,1,-9,-29,3,1,-2,-15
1501881681729018,-4,-1,11,3,-12,-3,1,0
1501881681729018,7,-11,-18,-27,-10,-6,-5,14
1501881681730018,21,0,5,32,14,0,-1,28
1501881681730018,-8,2,10,-4,-2,-1,-5,-63
1501881681752018,12,5,1,15,13,4,1,14
1501881681752018,-16,0,-13,9,-7,-2,-1,-20
1501881681753019,10,-5,-3,-7,-6,-4,-2,5
1501881681753019,10,0,-17,-54,-7,0,1,17
1501881681768019,-23,-2,14,25,5,-1,-1,13
1501881681768019,17,2,6,25,-4,1,1,2
1501881681774024,-5,-3,-11,-7,-4,0,-3,-19
1501881681774024,-6,0,-13,-26,4,4,1,1
1501881681789022,9,1,19,-39,-17,-4,-4,5
1501881681789022,-5,1,-12,16,0,-1,1,9
1501881681790021,-9,-7,-2,-12,3,-1,-2,-4
1501881681790021,7,3,10,18,2,1,1,5
1501881681812025,18,1,-5,-9,-2,0,1,20
1501881681812025,-17,0,-6,2,11,0,0,-4
1501881681813026,15,0,3,20,-18,0,0,3
1501881681813026,-3,0,4,14,-2,-3,-1,-3
1501881681826026,-4,-4,-5,56,8,-3,-2,0
1501881681826026,34,-4,7,-49,-14,0,0,51
1501881681834025,-13,2,-2,-39,7,0,0,-25
1501881681834025,3,2,17,22,-4,-1,1,24
1501881681849026,-2,-3,-18,-15,-2,-2,-3,-23
1501881681849026,-2,0,8,26,7,-2,-3,4
1501881681851029,0,1,-6,-87,5,3,2,22
1501881681851029,-4,-10,-6,67,-19,-8,-5,-2
1501881681880027,5,3,-3,-10,0,0,0,12
1501881681880027,-7,-1,0,23,4,1,-2,-24
1501881681881028,9,4,14,-64,-4,-3,-1,3
1501881681881028,-19,-7,-33,28,4,1,-2,-5
1501881681886028,-8,0,-2,-58,-9,-2,1,2
1501881681886028,-7,-2,9,18,-2,-3,-2,5
1501881681902042,-4,-2,-17,30,-5,-2,-2,-37
1501881681902042,1,1,10,-44,4,-1,-1,8
1501881681909028,-3,-1,2,2,5,2,-1,-4
1501881681909028,9,0,3,-29,-3,0,-3,2
1501881681917030,-14,1,6,74,4,-2,-3,-9
1501881681917030,10,-9,-22,-85,-12,-3,-4,20
1501881681932031,9,1,1,5,4,-1,-4,-2
1501881681932031,-35,-2,-3,-2,0,0,-1,-27
1501881681933040,10,3,3,3,1,0,0,6
1501881681933040,4,-1,3,13,1,-1,0,16
1501881681955032,0,-4,-14,-7,-15,-6,-2,0
1501881681955032,6,0,-2,-37,6,3,1,-19
1501881681956031,-8,-5,2,29,-5,-1,-2,3
1501881681956031,-12,3,14,15,6,0,0,-20
1501881681969033,9,1,5,-15,2,2,2,17
1501881681969033,-2,5,8,14,0,-3,-2,-4
1501881681970031,-5,-4,-17,-13,-2,-3,-3,2
1501881681970031,6,1,9,-11,2,2,3,5
1501881681992046,-8,-3,-10,-5,2,1,-1,-13
1501881681992046,-5,-6,-5,15,-2,-3,-3,-7
1501881681993035,1,3,12,15,5,2,0,-4
1501881681993035,3,-4,1,-40,-12,-5,-5,-13
1501881682006034,11,-1,-3,-10,10,2,4,25
1501881682006034,-1,6,38,41,-2,3,0,-7
1501881682022036,1,-11,-38,-35,-10,-5,-3,-1
1501881682022036,-5,5,3,15,9,1,1,0
1501881682029039,-6,-5,10,21,-6,-3,-3,-12
1501881682029039,12,3,5,0,2,1,0,-6
1501881682030042,-9,-4,-13,-25,2,-2,1,13
1501881682030042,10,3,18,21,-5,-2,-1,-3
1501881682052050,-7,0,-9,8,11,0,1,-11
1501881682052050,-1,-2,-15,-27,-13,-2,0,11
1501881682053038,-1,-1,18,33,-3,0,-1,-8
1501881682053038,-1,-1,-9,-22,1,-2,-2,4
1501881682066040,4,1,8,-13,1,2,2,18
1501881682066040,-3,2,-2,44,11,3,4,-8
1501881682074039,-20,-4,-22,-59,-9,-3,-3,-14
1501881682074039,11,2,-11,14,-1,-1,0,-7
1501881682089052,-4,-4,-10,60,4,0,-4,2
1501881682089052,5,-7,-12,-61,-20,-8,-2,15
1501881682090038,-3,1,15,32,6,2,0,-2
1501881682090038,3,4,-2,-16,2,2,-1,-3
1501881682112042,-22,-1,11,-1,-8,2,3,19
1501881682112042,17,-1,-18,-7,7,1,-4,-1
1501881682113041,-22,-1,10,38,-10,-5,-3,-1
1501881682113041,-4,-5,-21,-67,-4,-3,-1,-3
1501881682135043,-18,-1,6,44,4,-1,0,-14
1501881682135043,-3,0,9,-8,1,0,0,-16
1501881682136041,16,3,-17,-45,0,-1,-2,-7
1501881682136041,-26,-3,-4,-42,1,0,-1,-11
1501881682150049,0,-4,-7,-19,-7,-4,-4,-10
1501881682150049,-7,-1,-3,0,5,0,1,-2
1501881682150049,5,4,9,40,11,3,2,5
1501881682150049,-11,-3,12,27,-7,-3,-1,-7
1501881682180047,12,2,10,-26,-9,-1,-2,1
1501881682180047,-6,-14,-31,-14,0,-9,-8,-2
1501881682181045,-28,4,-5,23,4,5,6,-20
1501881682181045,53,-5,-4,37,0,-2,0,-7
1501881682195044,38,11,13,16,7,5,4,25
1501881682195044,-20,-6,-10,-32,-5,-1,-3,-38
1501881682196045,-11,-3,22,79,1,-4,-4,-16
1501881682196045,-16,-5,-12,-25,-13,-4,-2,7
1501881682209046,16,4,3,-8,4,2,1,18
1501881682209046,-11,-5,15,20,-5,-2,-2,5
1501881682210048,33,-3,-13,-12,-3,-5,-3,12
1501881682210048,-17,5,16,6,7,2,2,-2
1501881682232051,-4,-6,-10,-13,3,-3,-1,10
1501881682232051,-7,4,6,-15,-3,-3,0,6
1501881682234047,15,0,29,66,4,-1,-2,17
1501881682234047,12,-5,-30,-13,-2,0,-2,0
1501881682255049,-17,-4,-6,-5,-10,-7,-2,-35
1501881682255049,-1,2,0,16,1,4,2,1
1501881682256049,5,4,8,36,4,2,0,21
1501881682256049,-6,-3,8,-45,-5,-2,-2,-7
1501881682278049,0,-2,-15,-62,-7,-3,-4,-8
1501881682278049,1,3,14,34,-3,-2,0,-4
1501881682278049,-1,-7,-15,-40,-1,-1,1,3
1501881682278049,-1,5,15,75,12,3,2,18
1501881682292065,-25,0,-7,-45,-5,0,-1,-9
1501881682292065,12,2,5,6,0,-2,0,12
1501881682293053,-7,-1,-22,-82,-4,-1,-1,-27
1501881682293053,-7,-3,5,38,-5,-6,-5,2
1501881682315054,5,-1,13,43,5,0,1,-5
1501881682315054,11,-1,-7,-7,2,2,1,-1
1501881682316054,-8,0,-11,-9,-6,-3,-2,19
1501881682316054,0,3,14,-20,2,2,-1,-1
1501881682329055,4,-2,-27,-32,-1,-3,-5,-43
1501881682329055,-20,2,15,-7,-5,0,0,-12
1501881682330061,4,-4,0,-6,-3,-2,0,21
1501881682330061,6,4,-12,-5,1,1,-1,-9
1501881682352055,-8,-3,17,53,3,-2,-3,0
1501881682352055,4,-7,-21,-68,-7,-3,-1,2
1501881682353072,12,3,8,49,12,2,0,-1
1501881682353072,-45,0,-2,-1,-13,-1,1,-13
1501881682374056,16,-3,-1,15,-10,-5,-5,-7
1501881682374056,33,1,-3,-18,-1,-2,-1,9
1501881682375059,-9,-2,3,-20,-3,0,-5,-4
1501881682375059,8,2,-2,17,9,1,8,11
1501881682391071,-20,-1,3,-21,-2,0,-2,-4
1501881682391071,-5,-2,-7,59,0,1,1,-5
1501881682392060,4,-2,-6,-31,-5,-5,-5,0
1501881682392060,1,-5,-13,16,-5,-3,-6,3
1501881682412077,2,-2,4,-16,-3,0,6,0
1501881682412077,-15,-1,-3,50,11,0,-7,16
1501881682413058,-3,0,-6,0,-17,0,4,6
1501881682413058,-7,-3,9,30,-1,0,4,-6
1501881682435080,-5,0,1,4,-1,-3,-7,-23
1501881682435080,2,-6,-27,-47,-3,-4,-3,8
1501881682436063,2,2,4,5,1,-1,-1,-9
1501881682436063,-2,-3,-1,24,2,-2,-3,-9
1501881682450068,0,2,-9,-21,-8,-2,0,13
1501881682450068,-9,3,23,58,6,1,1,-13
1501881682450068,-2,-3,-4,-108,-8,-1,-1,-3
1501881682450068,5,0,-2,0,3,0,-3,12
1501881682472103,2,-5,-1,-2,2,-2,-1,9
1501881682472103,-4,3,13,13,2,-1,-2,4
1501881682473067,-2,-1,11,-1,0,-1,3,-8
1501881682473067,7,3,-5,0,1,2,-1,12
1501881682495081,-3,-12,-33,-43,-7,-4,-5,-1
1501881682495081,-4,2,22,25,1,-1,1,4
1501881682496062,42,0,-5,41,13,2,1,50
1501881682496062,-20,0,-7,-43,-2,0,3,-18
1501881682509084,10,0,12,-20,-1,0,-4,3
1501881682509084,-3,-6,-25,2,-8,-5,1,-6
1501881682510063,6,0,-7,-10,0,0,-4,15
1501881682510063,8,-4,9,12,-5,0,-2,3
1501881682533065,2,4,8,44,6,1,5,3
1501881682533065,-3,0,-2,-32,-3,1,-1,5
1501881682534066,-16,-1,2,12,6,0,0,-44
1501881682534066,19,-2,9,3,-12,-4,-3,22
1501881682554086,-9,0,-8,-22,-6,0,-3,1
1501881682554086,1,-3,7,10,-1,-2,0,-6
1501881682555067,-20,-1,-10,-21,-6,-3,-4,-4
1501881682555067,-9,4,21,-13,2,0,1,-29
1501881682571068,9,-5,-29,-45,1,-2,1,4
1501881682571068,9,-1,10,51,0,-3,-2,1
1501881682572087,1,1,4,27,1,-1,0,-4
1501881682572087,-7,-6,-3,-3,2,-1,-1,11
1501881682593068,-41,4,16,24,12,5,1,-31
1501881682593068,-1,-5,-3,-14,-16,-3,-6,-13
1501881682593068,1,-2,-19,-71,-12,-3,0,-1
1501881682593068,0,2,-2,6,2,-1,-4,-19
1501881682614102,4,-1,-4,39,4,0,1,-1
1501881682614102,-11,-1,-21,-54,-3,1,0,7
1501881682615070,-3,-1,17,51,2,0,0,-14
1501881682615070,-2,-3,4,44,-2,-4,-4,-4
1501881682629074,-3,0,2,-49,-8,-4,-3,15
1501881682629074,11,8,16,2,14,5,3,9
1501881682630073,-1,-6,-11,-54,-13,-2,-1,6
1501881682630073,-2,-2,-8,21,-1,-1,-1,6
1501881682652071,4,0,6,9,3,-3,-4,0
1501881682652071,-5,-1,-10,-22,0,1,-2,-9
1501881682653071,-3,-2,1,19,-1,-2,2,9
1501881682653071,4,-3,-18,-75,-5,-1,-1,3
1501881682674076,2,-2,23,73,2,-3,0,2
1501881682674076,10,-3,-2,7,-2,-2,-3,12
1501881682675072,-7,1,8,48,9,1,-2,-18
1501881682675072,-5,-3,-17,-96,-17,1,-1,-2
1501881682689076,11,0,-7,13,-2,0,-1,6
1501881682689076,-11,-2,-7,-18,8,2,1,-11
1501881682690075,1,2,7,89,-9,-6,-1,39
1501881682690075,30,0,4,37,6,0,-1,13
1501881682712076,0,4,9,-13,2,2,0,-3
1501881682712076,-6,-1,-12,-14,-7,-5,-2,-12
1501881682713076,-2,2,6,-18,5,2,-1,-13
1501881682713076,-10,-1,6,10,13,1,1,10
1501881682734090,-5,-4,-1,-15,-14,-1,-1,3
1501881682734090,17,6,10,8,3,0,0,1
1501881682735078,-4,-6,-28,-58,-7,-3,-1,-6
1501881682735078,4,1,5,51,1,-2,-2,4
1501881682751079,-15,-6,-12,-18,-4,-3,-4,-14
1501881682751079,0,2,8,-27,-5,-3,1,14
1501881682752079,3,5,17,38,8,2,1,-9
1501881682752079,-12,-3,-9,46,-2,-3,0,-8
1501881682772079,1,-1,-7,-14,-3,-4,0,16
1501881682772079,-31,-1,7,-32,-3,0,-1,-23
1501881682773079,9,-7,-19,0,0,-1,0,-2
1501881682773079,-9,3,13,-22,-7,-3,-4,-10
1501881682795081,5,-6,-30,23,2,0,-1,8
1501881682795081,11,-6,-14,-17,-5,-4,-1,2
1501881682802080,-3,1,23,-5,4,-1,0,-7
1501881682802080,-5,-1,-16,-7,-5,-3,0,-1
1501881682809082,6,1,5,-9,-1,-1,-1,-1
1501881682809082,4,1,-3,53,4,0,-1,-3
1501881682824083,-16,-1,-4,-75,-8,2,-2,-20
1501881682824083,10,-5,-3,-24,-7,-8,-2,10
1501881682834085,13,5,16,8,0,1,-1,9
1501881682834085,-6,-4,-12,27,1,-3,-5,-4
1501881682834085,2,3,5,4,6,2,4,14
1501881682834085,4,0,-5,-21,4,1,1,14
1501881682854087,-13,0,6,18,0,0,-3,-20
1501881682854087,0,0,5,-9,-2,-1,4,3
1501881682855089,13,-3,-6,-5,-9,-5,-4,8
1501881682855089,-3,3,10,-12,4,4,1,9
1501881682870085,0,-2,-2,40,1,0,1,-3
1501881682870085,7,2,2,2,10,4,-1,-7
1501881682877086,-3,-6,-5,6,-15,-4,-1,6
1501881682877086,1,-5,5,-27,-2,-4,-2,-12
1501881682892099,5,8,14,4,8,2,1,-17
1501881682892099,6,-4,2,-11,1,-1,-1,3
1501881682893087,0,0,-21,-21,-3,-1,-1,1
1501881682893087,-6,3,1,-19,9,5,0,-17
1501881682914089,0,0,20,63,1,-3,-4,7
1501881682914089,-2,-6,-11,5,-15,-7,-4,5
1501881682922091,2,0,-16,-3,4,1,0,-8
1501881682922091,0,-1,1,9,0,1,1,1
1501881682929089,-3,-3,-10,-19,4,0,0,3
1501881682929089,4,0,7,3,-5,-3,-4,-12
1501881682937106,-9,2,-5,-3,0,-3,-4,-2
1501881682937106,-10,-4,-7,19,-5,-3,-2,-2
1501881682952088,7,-2,3,-56,-9,0,1,2
1501881682952088,9,-1,-11,-43,-1,-1,-1,10
1501881682959089,-7,-1,18,84,8,0,-1,9
1501881682959089,-5,-3,-3,24,-6,0,-3,-6
1501881682974091,17,1,-6,1,-2,-5,-2,-11
1501881682974091,1,1,3,-8,-5,-2,-1,4
1501881682975091,-34,-4,-6,10,3,0,-2,-13
1501881682975091,3,0,-6,-38,-2,-2,-2,-4
1501881682989093,-9,-4,-1,-1,-5,-2,-1,4
1501881682989093,-6,0,-4,20,2,1,1,3
1501881682997091,4,-1,0,-16,0,-1,-4,-19
1501881682997091,-3,4,11,18,8,3,1,-8
1501881683012092,-8,-5,17,19,-13,-2,-1,-10
1501881683012092,1,-2,-23,-45,-8,-5,-2,12
1501881683013093,-21,-3,24,-2,1,-2,1,-13
1501881683013093,15,-1,-31,-1,4,-1,1,18
1501881683034095,2,3,-10,-14,4,0,-1,3
1501881683034095,-16,2,7,36,4,4,0,-3
1501881683035093,17,1,-7,-52,4,3,-1,-1
1501881683035093,-13,-6,23,74,-11,-5,-1,-7
1501881683049099,1,-1,-17,-24,-4,-4,-2,6
1501881683049099,-2,-1,8,32,2,-1,-3,-2
1501881683057098,3,0,-3,-32,-1,-3,-1,1
1501881683057098,3,1,0,-10,3,1,0,0
1501881683072097,-9,-2,-7,-5,-1,-1,-2,4
1501881683072097,-4,0,11,-3,3,2,0,-4
1501881683073096,22,-1,-14,-6,-7,-3,-2,9
1501881683073096,-24,-2,4,24,-2,-4,-3,-30
1501881683102114,-9,-1,4,-4,-3,-1,0,0
1501881683102114,10,-3,-12,33,0,0,-1,7
1501881683103105,3,3,-2,-18,-3,2,1,-4
1501881683103105,6,0,-1,-42,-9,-3,-5,-1
1501881683109100,-10,2,15,29,9,0,0,-8
1501881683109100,-12,-5,-16,-44,-10,-2,3,-3
1501881683124113,6,0,1,33,4,-3,-3,4
1501881683124113,9,2,5,-18,-2,-1,-3,10
1501881683132101,-2,-2,-7,-32,-1,0,0,-3
1501881683132101,-4,2,10,22,3,-2,-2,-8
1501881683133110,5,-4,0,26,-2,-1,0,6
1501881683133110,-3,3,1,44,11,3,-1,-1
1501881683154106,-1,-9,-30,-96,-14,-5,-4,15
1501881683154106,1,-1,-4,51,7,-1,0,-20
1501881683155101,-6,2,5,-102,-12,-3,-1,14
1501881683155101,1,3,14,28,6,2,0,-19
1501881683178102,9,-1,-15,16,2,1,0,-7
1501881683178102,-15,3,4,-5,-1,-2,1,7
1501881683178102,-1,0,0,-4,1,-1,-3,-10
1501881683178102,-12,-2,1,75,3,-5,-2,6
1501881683192116,-18,-6,-13,-50,-5,-3,-2,-5
1501881683192116,10,1,4,-22,-1,-2,0,-14
1501881683193106,-7,2,1,14,1,1,1,-24
1501881683193106,9,-3,-4,-40,-3,0,0,12
1501881683214107,1,4,11,28,9,1,0,-1
1501881683214107,-18,-7,-5,70,-4,-2,-6,-8
1501881683215106,16,0,-15,-31,-8,-3,-2,11
1501881683215106,-1,0,2,-1,-2,-2,1,6
1501881683237121,-3,-2,-10,-16,0,0,-1,-4
1501881683237121,8,1,9,-13,2,1,2,28
1501881683238105,-1,-1,10,84,3,1,0,7
1501881683238105,2,-2,-5,-71,-4,2,-2,-13
1501881683252122,4,2,9,36,2,1,0,9
1501881683252122,17,1,-8,-88,-9,-2,0,9
1501881683253108,-32,-2,5,56,1,-2,-2,-37
1501881683253108,-2,-2,-11,-25,-1,-1,1,-2
1501881683274108,-2,1,8,82,5,-1,0,5
1501881683274108,13,-3,-11,-90,-9,0,0,-9
1501881683275108,4,-2,-9,-23,-3,-2,0,6
1501881683275108,-3,-1,-2,12,-3,1,0,21
1501881683298113,23,0,7,45,12,2,-1,-8
1501881683298113,-19,-6,-3,-7,-16,-6,-4,-4
1501881683298113,-15,5,-5,-53,-5,0,-1,2
1501881683298113,-8,-6,11,8,-5,-7,-1,21
1501881683312110,10,-1,-6,2,-1,-2,-1,-3
1501881683312110,15,2,4,8,2,-1,1,3
1501881683313133,-4,0,1,-3,3,1,0,8
1501881683313133,-1,-3,-15,52,-1,1,-1,13
1501881683334113,-11,1,11,-14,-3,-3,-1,-11
1501881683334113,-9,1,12,-9,-7,-4,-5,-8
1501881683335112,16,-4,-6,4,2,0,3,-8
1501881683335112,3,5,-12,21,7,3,1,-2
1501881683358115,-8,-3,5,-17,-9,-6,-3,-6
1501881683358115,-1,-3,-5,12,6,5,0,-3
1501881683358115,11,-1,-1,7,-2,-2,-1,19
1501881683358115,-5,-2,-2,-26,0,0,1,-13
1501881683380116,6,-1,-5,42,1,1,-1,6
1501881683380116,6,-1,10,-8,-3,-3,-3,-7
1501881683381121,-4,-3,1,-20,-9,-2,-1,-3
1501881683381121,-2,-3,-3,-9,1,1,-2,-15
1501881683402155,9,3,-4,-22,-5,-1,1,19
1501881683402155,1,-4,-1,44,9,2,3,8
1501881683403120,-13,-5,2,22,5,2,2,-10
1501881683403120,8,2,-10,-56,-13,-6,-3,-2
1501881683425117,4,3,13,-6,-3,-2,-2,9
1501881683425117,-3,-1,-10,-23,-3,-3,-3,4
1501881683426118,-15,-5,-5,39,4,-3,-5,-42
1501881683426118,23,1,7,-35,-15,-3,-3,6
1501881683432119,-13,-1,-2,-13,3,2,6,-5
1501881683432119,8,0,-2,-17,-7,1,0,8
1501881683433118,14,-2,12,52,1,-3,-1,8
1501881683433118,-1,3,3,-23,6,-2,-3,3
1501881683454121,2,-8,-21,-6,-3,-1,-4,-11
1501881683454121,-15,2,-2,18,5,2,1,-1
1501881683455119,2,0,4,10,-3,-1,0,11
1501881683455119,3,-4,-9,-2,-2,-1,-1,-7
1501881683477121,-11,2,7,-2,0,-1,0,0
1501881683477121,-7,-5,0,13,6,-3,0,-9
1501881683478122,2,2,1,-34,-5,-1,-3,-12
1501881683478122,-8,0,7,26,3,1,2,-8
1501881683492136,-7,1,3,12,0,0,0,-8
1501881683492136,7,-4,-16,-29,3,-1,-5,-2
1501881683493128,9,3,2,2,-7,-5,-1,12
1501881683493128,-9,-5,-7,10,0,0,0,1
1501881683514127,-4,-2,-9,-16,2,1,-2,-4
1501881683514127,-2,3,-2,3,0,-1,1,1
1501881683515124,-6,-3,3,13,-2,0,0,6
1501881683515124,-2,-1,5,-4,-5,-3,-5,-7
1501881683537125,3,-2,1,5,1,0,-2,27
1501881683537125,0,2,4,21,0,-2,0,-8
1501881683544126,0,0,-13,-51,0,-2,-1,-3
1501881683544126,-21,-1,8,37,4,1,1,-14
1501881683552145,-1,-3,-4,30,-2,-2,-1,-5
1501881683552145,-21,-8,-10,-60,-11,-3,-2,13
1501881683553144,12,-1,1,48,3,1,-2,-5
1501881683553144,-6,3,2,-3,-1,-2,-3,11
1501881683574126,-5,-5,-5,-20,-3,-3,-2,-13
1501881683574126,-5,1,-12,52,7,1,1,0
1501881683575126,-22,-2,0,-44,-5,0,-2,-28
1501881683575126,5,-3,-1,-60,-6,0,-1,3
1501881683598153,-3,-6,-17,21,-3,-5,-3,-2
1501881683598153,-2,2,-4,13,-2,-1,-2,-8
1501881683598153,2,0,1,3,2,1,1,20
1501881683598153,4,0,2,9,5,0,1,-5
1501881683612128,-4,3,4,0,0,0,-1,-12
1501881683612128,13,-4,-7,-9,-3,-10,-4,12
1501881683613132,16,2,3,19,12,5,0,5
1501881683613132,-5,0,-9,1,-10,4,2,-4
1501881683634130,0,0,14,-32,-3,-4,-3,-1
1501881683634130,-6,-3,6,18,3,1,-2,-4
1501881683635130,-8,-2,-13,18,3,-3,-1,7
1501881683635130,-5,-5,-2,14,-1,-6,-4,-28
1501881683657134,11,4,-7,-16,-3,4,2,2
1501881683657134,2,0,9,28,-3,-2,-1,-10
1501881683658132,0,2,6,-22,-1,-4,0,7
1501881683658132,-11,-3,-7,47,15,3,-1,-9
1501881683680154,-14,-5,-5,-80,-30,-7,-5,6
1501881683680154,12,5,11,42,5,2,0,-42
1501881683681131,-6,-5,-12,-108,-17,-4,-2,1
1501881683681131,2,0,4,32,1,-5,1,-3
1501881683702135,-2,3,13,41,14,4,2,-7
1501881683702135,17,-3,-10,-38,-4,-1,-3,17
1501881683709136,-4,1,-6,47,0,-1,-3,-8
1501881683709136,-24,-4,7,-6,0,-3,-2,-25
1501881683717136,7,-1,1,-17,-4,-3,-1,18
1501881683717136,-3,0,8,-3,0,5,-1,-24
1501881683718134,-14,-2,-2,10,2,0,-1,2
1501881683718134,10,2,-3,26,-2,-1,1,15
