timestamp,emg1,emg2,emg3,emg4,emg5,emg6,emg7,emg8
1501880302366759,-48,-5,-7,-73,-28,-12,4,-5
1501880302366759,59,9,2,-126,-1,8,59,33
1501880302368759,-73,-8,-11,63,-13,-5,-55,63
1501880302368759,112,12,22,100,24,6,-4,-78
1501880302380762,-45,18,-12,-82,-2,-3,-54,-7
1501880302380762,10,4,7,105,21,12,90,46
1501880302387767,-83,-12,-16,-52,-38,-8,-46,-29
1501880302387767,-79,5,-33,-56,-5,-5,-5,-25
1501880302404778,96,8,76,38,22,8,22,12
1501880302404778,-17,-10,19,60,1,-5,4,-11
1501880302406761,15,15,-7,-110,7,3,2,1
1501880302406761,0,-6,-20,74,4,-6,-14,-17
1501880302426762,-57,-14,-77,-98,-8,-3,-15,-37
1501880302426762,-4,6,-12,-110,21,17,-21,26
1501880302428764,23,-21,62,105,4,-6,47,-5
1501880302428764,-50,5,93,-72,-32,-15,-9,-6
1501880302448765,79,-15,5,104,10,5,-14,14
1501880302448765,37,33,-14,4,-26,-6,31,72
1501880302450763,-47,5,-51,89,6,17,-1,-89
1501880302450763,-10,7,-13,-54,2,-7,-64,33
1501880302471771,-81,-13,30,127,24,6,13,8
1501880302471771,-49,-25,4,-61,-46,-12,14,-56
1501880302473765,124,44,22,30,14,8,-23,-34
1501880302473765,-28,-17,-44,-50,-29,-5,28,-21
1501880302485778,64,-6,-13,-63,-7,-12,-12,-35
1501880302485778,-115,22,80,-62,11,8,-33,-95
1501880302494771,28,-35,-82,-14,-47,-9,11,17
1501880302494771,-47,-14,47,83,23,8,24,6
1501880302501767,-13,15,-69,12,14,5,-5,-7
1501880302501767,-14,-11,-4,88,6,-13,-41,-1
1501880302515770,31,0,6,10,0,4,40,8
1501880302515770,-1,-3,4,61,19,-5,-46,38
1501880302523768,-58,-23,2,-51,-48,-8,23,41
1501880302523768,11,4,23,41,30,2,-4,3
1501880302525768,-34,15,10,59,19,10,24,7
1501880302525768,116,-16,-66,-4,-4,-11,-7,-21
1501880302546768,-11,14,19,73,16,11,-9,59
1501880302546768,51,9,17,40,5,8,16,2
1501880302548770,-43,-27,-27,-66,-19,-8,-9,-32
1501880302548770,-20,-13,-24,25,-3,-3,15,31
1501880302560771,-64,16,60,28,7,3,-32,-40
1501880302560771,50,-33,-18,83,-36,-19,56,30
1501880302567771,-64,-8,-28,-3,29,4,-22,-28
1501880302567771,-5,-5,-65,35,-17,-5,2,62
1501880302584785,-18,7,3,65,26,12,34,-26
1501880302584785,-1,-1,-28,-57,-14,-11,-28,-3
1501880302586772,-50,-1,39,-38,15,-1,1,7
1501880302586772,12,-17,-71,-36,-3,5,26,5
1501880302613788,-91,9,-14,-80,-3,-2,-60,14
1501880302613788,102,7,-24,44,0,10,68,-48
1501880302615775,-45,-4,-27,-113,-26,-4,-23,24
1501880302615775,-9,24,95,72,28,0,-57,-56
1501880302620774,64,22,80,-117,-31,12,103,54
1501880302620774,3,-17,-28,85,23,-4,-63,-35
1501880302627773,29,23,40,-73,-14,7,22,38
1501880302627773,45,-33,-64,25,-18,-10,1,5
1501880302643778,-58,-5,-31,10,-11,-12,-25,-2
1501880302643778,7,5,36,0,-9,-6,-33,4
1501880302645774,18,12,18,30,11,6,28,-17
1501880302645774,-16,11,19,93,24,6,-5,8
1501880302673781,31,-8,45,109,-4,2,12,-16
1501880302673781,-54,-12,-54,-128,-15,-10,-13,9
1501880302682819,23,-8,-105,43,11,-3,-11,15
1501880302682819,-6,1,93,56,-14,5,26,46
1501880302683782,1,-10,4,4,-19,-19,-38,-26
1501880302683782,-51,5,11,27,15,1,5,-7
1501880302687778,44,27,36,95,16,2,-1,-33
1501880302687778,-13,-19,-26,-102,-23,-6,11,30
1501880302703779,59,4,-43,-63,17,8,-2,24
1501880302703779,-101,-18,-14,-24,-22,-22,-50,-25
1501880302705779,45,1,64,78,5,0,47,26
1501880302705779,-7,22,2,-1,20,11,13,-8
1501880302726779,-92,-1,29,96,17,1,10,-64
1501880302726779,-1,-11,-55,-57,-18,-3,-4,-43
1501880302728786,-13,2,2,-28,-5,-2,-23,15
1501880302728786,33,11,26,-53,3,2,18,42
1501880302740801,12,0,-32,-51,-17,-9,-1,-49
1501880302740801,-25,-3,17,-15,8,8,4,15
1501880302755781,32,-22,46,-6,-23,-14,-21,46
1501880302755781,84,29,34,-44,4,6,15,-33
1501880302771786,76,-4,-41,75,19,-6,-3,35
1501880302771786,-32,-3,51,-43,-5,7,12,-39
1501880302773783,11,-22,-77,-89,-13,-7,-25,-8
1501880302773783,-42,-1,-28,-73,-14,1,3,63
1501880302786783,56,1,39,85,12,2,-1,7
1501880302786783,64,17,-9,-6,13,8,9,29
1501880302792789,-31,-9,52,14,0,-5,-7,9
1501880302792789,-43,-19,-100,-80,-39,-11,12,-33
1501880302808801,9,9,71,-26,0,-3,-9,-29
1501880302808801,11,-6,-12,3,-7,3,1,35
1501880302816785,-32,-2,-4,-5,26,1,-4,-22
1501880302816785,10,6,-7,65,-6,2,22,-76
1501880302823785,-28,-6,33,-21,-2,-3,-13,7
1501880302823785,-10,-10,-5,-80,-14,-7,23,7
1501880302825785,-37,5,-12,4,7,3,-23,16
1501880302825785,-5,2,16,44,17,11,10,7
1501880302846791,7,-2,-18,-41,0,-5,12,59
1501880302846791,-71,1,-27,57,-8,-10,-11,44
1501880302847790,-11,-5,38,-39,-15,-1,3,-28
1501880302847790,7,-2,0,40,3,1,-21,87
1501880302860790,26,-5,29,55,9,-4,-16,-23
1501880302860790,2,10,25,111,26,10,9,68
1501880302869798,19,3,-17,-94,-5,10,14,-46
1501880302869798,24,5,81,127,-15,-15,6,-25
1501880302883792,-78,-7,-84,9,7,7,9,-21
1501880302883792,12,-14,-6,-57,-16,-8,-11,-20
1501880302885789,-25,3,-25,-8,1,-2,3,22
1501880302885789,21,2,6,-29,7,0,-14,-15
1501880302907809,-16,5,33,14,4,2,3,-17
1501880302907809,32,-4,-52,-35,-19,-10,-3,-19
1501880302909792,-6,-12,2,93,18,2,-4,-9
1501880302909792,-54,-4,-51,-60,-25,-2,-1,-6
1501880302920800,41,-17,-5,-44,-22,-11,-15,13
1501880302920800,-23,14,-21,47,13,-1,-13,12
1501880302929793,40,17,85,28,15,11,17,25
1501880302929793,16,-11,-56,-57,-3,-3,-16,-13
1501880302943812,-60,-6,-44,48,-2,-3,-4,-38
1501880302943812,17,-9,47,75,4,-8,-26,-59
1501880302945792,15,5,-26,-23,-31,-3,41,-53
1501880302945792,-41,0,51,-45,4,-6,-5,48
1501880302966796,-21,0,-14,34,-5,5,14,7
1501880302966796,27,5,-9,-29,-13,-4,-3,7
1501880302968795,-13,11,-12,39,21,3,-22,-40
1501880302968795,-45,-20,0,81,-6,-12,-5,-33
1501880302980798,35,4,26,-128,-26,-7,-2,3
1501880302980798,-27,-3,-47,10,1,2,8,-43
1501880302989796,-25,-9,47,-71,-6,-3,-4,29
1501880302989796,51,3,-70,-48,4,4,-8,-37
1501880303003796,-9,-6,39,-14,-1,-3,-14,21
1501880303003796,-40,2,41,39,12,5,31,10
1501880303005800,12,10,-13,58,-10,-3,-13,-3
1501880303005800,6,3,-2,-25,-13,4,-1,-28
1501880303026797,-18,-23,-51,64,5,-7,-8,-34
1501880303026797,3,6,11,-27,5,8,-3,28
1501880303027817,15,-12,-36,-17,2,-1,20,46
1501880303027817,5,9,25,35,17,8,0,-23
1501880303048814,24,13,30,20,1,4,-1,11
1501880303048814,-6,-1,-39,-15,-1,-3,1,0
1501880303050798,19,4,-9,18,-1,2,-4,-35
1501880303050798,41,-2,21,72,28,2,-1,109
1501880303063818,-40,9,13,-91,-38,-6,5,-89
1501880303063818,-7,-11,35,43,24,5,-8,15
1501880303070801,28,7,-82,-21,-12,-3,-6,29
1501880303070801,-76,-3,0,-59,-14,-5,-7,-16
1501880303086847,41,12,10,46,14,4,18,69
1501880303086847,-7,-7,-20,-49,-4,-2,-2,-13
1501880303088810,7,-1,16,-20,-9,-3,1,27
1501880303088810,-27,-2,30,54,23,4,-25,-80
1501880303099803,-34,-7,-16,-71,-15,-6,10,-19
1501880303099803,15,3,16,-56,-9,1,-2,-10
1501880303109806,-18,-8,9,70,11,0,8,12
1501880303109806,47,-8,24,56,1,2,-2,19
1501880303124803,8,-6,-59,-21,4,-5,-11,-1
1501880303124803,-15,6,45,88,0,-3,4,11
1501880303130803,12,-10,-82,1,-6,-8,-20,-71
1501880303130803,-16,12,54,-105,-12,-3,8,37
1501880303146804,-20,-15,-25,99,10,-2,-12,-58
1501880303146804,11,-2,-21,-51,-26,-7,-2,23
1501880303148805,6,-1,6,9,6,1,-6,-32
1501880303148805,-7,0,34,23,-2,2,4,14
1501880303160808,69,11,5,16,-3,11,10,92
1501880303160808,-7,4,1,-93,2,-3,-9,-26
1501880303169806,-7,-3,36,114,9,-4,-6,21
1501880303169806,55,2,-20,-63,6,4,6,-50
1501880303183807,-14,-4,0,-94,1,3,5,0
1501880303183807,29,-14,-48,61,-12,-7,-7,63
1501880303185807,10,6,13,-23,-15,-2,2,17
1501880303185807,-40,-9,3,69,-5,-11,-8,16
1501880303206809,31,7,15,-32,-1,2,-2,-32
1501880303206809,10,6,11,75,15,4,28,6
1501880303208812,-27,-8,-14,-109,-5,-3,-11,-22
1501880303208812,-20,-6,-38,47,2,-2,-10,37
1501880303220808,-19,-3,8,63,1,-3,15,-77
1501880303220808,-19,15,40,-10,1,3,-12,-4
1501880303229811,-37,-29,23,55,-14,-15,-8,70
1501880303229811,34,-12,-118,-103,-9,1,9,4
1501880303243814,29,-3,3,-28,3,-8,-19,33
1501880303243814,3,24,80,-39,9,5,1,-25
1501880303245811,26,1,2,-71,-10,2,2,-5
1501880303245811,-27,-4,20,36,7,-3,-3,-5
1501880303266813,38,9,47,75,19,8,9,73
1501880303266813,8,4,-19,75,-4,5,1,-23
1501880303268814,4,-13,-40,-118,-9,-5,-3,52
1501880303268814,21,16,19,27,9,3,4,-6
1501880303289821,-1,-10,-42,59,2,-2,-5,5
1501880303289821,-17,-16,-40,-31,-7,-7,-13,-14
1501880303290813,46,1,19,35,-2,0,4,-3
1501880303290813,-13,7,31,43,19,10,5,-25
1501880303303814,-6,9,-31,-122,-26,-4,-19,-96
1501880303303814,51,-16,-26,30,-1,-7,-9,47
1501880303305814,-19,5,-6,29,5,2,15,-55
1501880303305814,2,-5,8,3,-13,-4,-3,1
1501880303326825,7,8,41,-16,-1,2,-2,22
1501880303326825,-10,-14,-59,-20,-10,-8,4,16
1501880303327817,18,12,29,-35,0,7,1,15
1501880303327817,23,11,13,76,9,5,3,1
1501880303348815,-56,-27,-25,-95,-36,-13,1,-39
1501880303348815,-23,-1,-10,22,23,5,1,-10
1501880303350816,16,4,16,55,10,-4,0,14
1501880303350816,3,4,-12,-78,-24,-4,-2,30
1501880303363817,-2,5,26,127,36,9,6,15
1501880303363817,19,-5,31,-101,-26,-6,-10,-13
1501880303365817,3,3,16,65,-10,-5,3,7
1501880303365817,-22,-5,-10,118,10,-5,-8,-3
1501880303386820,-9,9,-22,-64,6,11,18,38
1501880303386820,13,-16,33,21,6,-5,-7,-25
1501880303387819,25,-3,-19,-109,-29,-3,-22,39
1501880303387819,-28,11,40,-4,1,2,13,-70
1501880303408823,8,0,12,107,12,0,-3,55
1501880303408823,-42,7,-12,-12,-5,1,9,-10
1501880303410821,-25,-7,-25,-22,5,0,-3,-5
1501880303410821,-28,-5,3,41,-2,-2,-4,-48
1501880303423838,-18,-4,-3,-43,-9,-3,-7,-29
1501880303423838,25,4,-9,4,3,4,11,42
1501880303429823,-23,9,-31,-57,13,13,9,-27
1501880303429823,44,-14,15,22,-1,-11,-11,-28
1501880303446821,20,2,-35,64,9,4,4,20
1501880303446821,-25,-6,19,13,-17,-8,-11,-27
1501880303447822,-13,22,69,93,28,9,12,-28
1501880303447822,-18,-20,-90,-109,-24,-1,-8,42
1501880303468829,19,-20,-19,-73,-41,-17,-18,23
1501880303468829,-9,5,12,32,16,1,4,-93
1501880303470823,-27,-6,-27,27,0,-3,-4,-3
1501880303470823,23,13,54,-25,4,1,7,34
1501880303483838,6,12,-24,15,5,-5,-1,16
1501880303483838,-4,-12,12,11,-13,-5,-13,-17
1501880303490833,-6,-8,-6,-23,2,5,21,39
1501880303490833,13,-6,-30,1,-19,-9,-15,-38
1501880303506826,4,11,11,-76,0,7,2,4
1501880303506826,-57,-7,-12,57,-4,-9,-10,-35
1501880303507832,50,4,28,-9,1,-9,-14,9
1501880303507832,5,-10,-35,24,-1,0,5,27
1501880303528827,-14,4,18,-3,1,0,-2,-16
1501880303528827,18,-7,-14,-73,7,8,12,3
1501880303530827,23,-1,-32,-17,-11,-3,-1,83
1501880303530827,-4,2,11,-33,-6,-1,4,17
1501880303543828,10,5,36,5,4,1,-3,16
1501880303543828,11,-9,-52,-19,8,4,5,47
1501880303550829,-42,-2,28,119,5,-1,-6,-38
1501880303550829,14,1,-95,-5,6,2,4,-11
1501880303566830,-36,-7,40,-9,-10,-3,-1,41
1501880303566830,1,5,61,62,4,1,2,-32
1501880303567829,-30,-8,-34,-12,-3,-2,-1,-35
1501880303567829,2,7,32,-11,6,0,-3,25
1501880303588830,-38,-9,-15,54,5,-1,-7,-78
1501880303588830,35,1,-10,1,2,5,8,99
1501880303590839,4,4,2,-64,-18,-4,-8,-60
1501880303590839,-32,9,47,9,-6,-1,5,-62
1501880303603831,4,-9,-30,13,5,-1,-2,4
1501880303603831,24,9,20,4,2,2,1,31
1501880303609831,-23,-7,-1,42,8,2,5,7
1501880303609831,21,-4,-2,-20,0,2,2,89
1501880303626834,-5,-2,16,98,-4,-3,-1,42
1501880303626834,-18,9,22,80,11,-1,-2,-56
1501880303627837,48,-2,-2,-56,-7,-2,-1,55
1501880303627837,14,-4,3,-24,-1,0,-1,4
1501880303648833,14,1,-66,7,8,8,12,47
1501880303648833,-4,-7,33,104,6,-1,-5,-34
1501880303650833,-28,-19,-80,-102,-26,-9,-3,2
1501880303650833,25,10,34,-71,-6,-7,-11,-40
1501880303663837,15,7,14,28,9,3,6,-21
1501880303663837,18,6,26,-20,-6,-2,-4,27
1501880303670836,-14,1,9,69,8,7,-1,-25
1501880303670836,12,-8,-19,-52,7,-4,2,57
1501880303686837,2,-6,-6,0,2,-7,-8,-24
1501880303686837,5,-1,-28,-68,-25,-4,1,74
1501880303688836,-37,-1,22,97,14,-1,-2,-59
1501880303688836,-4,4,10,17,-14,1,5,49
1501880303708838,2,-3,4,27,2,-2,-8,1
1501880303708838,-59,-4,-19,-5,-12,-4,-1,-10
1501880303710840,52,-6,6,60,11,-2,-14,52
1501880303710840,-31,5,6,-8,6,5,15,-52
1501880303723851,-12,-3,-3,-18,18,8,6,-20
1501880303723851,3,-3,-17,-105,-22,-7,-8,8
1501880303737839,6,-1,-4,-6,-7,-6,2,74
1501880303737839,21,3,36,117,2,1,-3,46
1501880303746839,-4,1,19,-85,-14,-3,-3,9
1501880303746839,-15,-9,-57,-51,4,0,7,-18
1501880303747840,-7,-3,36,33,-13,-4,1,11
1501880303747840,8,-1,-30,21,-7,-5,0,64
1501880303768841,-3,9,46,20,8,1,0,-76
1501880303768841,26,15,28,50,20,7,1,30
1501880303770841,-35,-10,-38,-72,-15,-9,-8,-56
1501880303770841,-22,-11,-25,-53,-5,2,5,-8
1501880303782855,39,-5,-5,16,-9,-8,-11,-24
1501880303782855,-14,1,-27,14,5,5,1,-17
1501880303791845,17,12,63,54,-3,0,1,23
1501880303791845,-20,-1,-35,-29,-5,-3,-4,-85
1501880303806847,-21,-9,-15,21,-5,-3,2,4
1501880303806847,11,-11,-31,-18,0,-3,-6,-9
1501880303807843,-20,10,45,21,20,5,0,7
1501880303807843,23,13,47,-33,4,0,-1,58
1501880303828883,2,-10,-42,74,-16,-8,-6,37
1501880303828883,-20,2,34,41,-1,0,5,-27
1501880303830844,23,-7,-59,-128,-30,-12,-17,-92
1501880303830844,-58,-5,9,112,12,1,2,-15
1501880303842852,-3,7,-7,-29,6,5,3,-22
1501880303842852,-6,0,10,57,15,8,2,-26
1501880303851845,58,14,48,-68,-3,-4,2,75
1501880303851845,-38,-24,-59,10,4,-4,-14,-53
1501880303866851,17,5,22,-59,1,2,5,2
1501880303866851,-10,20,47,-6,10,7,0,-14
1501880303868848,-9,-21,-44,-46,-15,-6,0,-30
1501880303868848,6,8,51,26,1,3,0,-10
1501880303888847,0,-4,-4,-38,-8,-5,-3,93
1501880303888847,8,-5,-51,-22,2,-4,-3,-9
1501880303890854,22,10,-7,75,8,5,10,59
1501880303890854,-33,7,0,-28,-6,0,-9,-45
1501880303902891,-12,-4,23,52,9,1,3,50
1501880303902891,6,-9,2,-5,-20,-12,-11,-31
1501880303911849,-35,2,-10,76,22,6,16,-72
1501880303911849,19,-14,-5,-12,-21,-7,-4,47
1501880303926866,6,7,12,-29,-5,-1,-2,-13
1501880303926866,-12,1,23,-4,5,0,-2,11
1501880303927853,15,-1,-6,-30,5,2,-3,28
1501880303927853,-15,1,6,15,3,2,7,-20
1501880303949853,-33,1,-28,18,1,-2,-2,-94
1501880303949853,61,2,40,-15,-10,-5,-1,55
1501880303950871,-15,-4,-20,63,7,3,-2,10
1501880303950871,21,1,-27,-69,-4,-1,3,72
1501880303962851,2,-5,-10,-89,-24,-10,-7,-5
1501880303962851,-52,-9,-50,7,-5,-3,-6,-27
1501880303971853,-54,5,31,16,13,7,7,-25
1501880303971853,-6,7,11,-51,5,4,-7,-93
1501880303993874,-15,6,46,102,18,1,0,0
1501880303993874,3,-17,-65,28,-20,-11,-5,21
1501880303995854,-13,5,10,-23,3,0,-1,-8
1501880303995854,4,-9,2,-11,-2,-4,-17,-59
1501880304009854,12,-5,-7,34,6,4,8,67
1501880304009854,38,3,19,-128,-18,-3,3,20
1501880304010857,7,-6,-7,61,4,-2,-7,13
1501880304010857,12,4,-4,28,5,2,4,-2
1501880304022856,11,-3,-14,-23,-14,-5,-10,-46
1501880304022856,7,-6,-18,81,7,1,2,24
1501880304031856,-14,5,6,-41,-1,1,3,-54
1501880304031856,11,-6,6,-7,8,-1,-4,-23
1501880304046877,3,-8,-52,-63,-32,-8,-2,20
1501880304046877,6,10,24,32,11,3,5,63
1501880304047875,1,7,41,9,4,3,2,17
1501880304047875,-2,-3,10,55,12,3,3,-4
1501880304068877,-19,-6,-63,15,11,5,3,-20
1501880304068877,2,-15,-14,-105,-48,-16,-14,0
1501880304070858,-5,4,30,-10,-3,-1,6,-28
1501880304070858,39,-2,-25,38,-12,-7,-11,-13
1501880304082880,-17,8,45,10,10,4,2,8
1501880304082880,21,8,10,58,25,7,6,13
1501880304091872,39,11,10,-15,-8,3,7,89
1501880304091872,-37,-17,1,-4,-14,-8,-6,18
1501880304106877,4,4,-3,-35,10,3,13,-18
1501880304106877,2,0,13,24,11,4,-2,-9
1501880304107863,-45,3,10,-15,-2,-3,-6,-42
1501880304107863,10,-5,-10,55,6,-3,-4,-12
1501880304128882,10,-1,12,-41,-17,-2,3,22
1501880304128882,0,2,0,-29,2,3,2,-77
1501880304135862,15,-1,-60,13,5,5,5,8
1501880304135862,-6,-5,27,46,-17,-7,-1,21
1501880304142876,0,-1,24,5,15,-1,-11,-1
1501880304142876,-10,1,-8,40,8,4,10,-56
1501880304151863,28,-22,-49,-15,-14,-10,-11,8
1501880304151863,11,14,-32,-42,14,10,5,-17
1501880304166865,14,-9,32,91,12,-7,-5,20
1501880304166865,-1,13,49,-59,-8,3,4,35
1501880304167864,6,-12,-2,118,-2,-4,-9,0
1501880304167864,-15,2,-23,-64,-8,-7,3,-37
1501880304189871,19,-3,10,4,-3,0,-4,17
1501880304189871,-13,-5,-22,-11,6,3,4,-12
1501880304190866,41,6,16,32,11,6,2,24
1501880304190866,-42,-13,-35,32,10,2,2,-11
1501880304202868,20,3,16,26,-3,-8,0,-49
1501880304202868,6,4,-4,-18,-13,-4,-14,-31
1501880304211866,20,1,-15,-27,-11,-1,1,59
1501880304211866,-39,0,25,64,4,-3,3,21
1501880304234867,-34,3,-2,-4,10,1,1,-26
1501880304234867,-5,-7,5,44,4,-2,-7,24
1501880304236869,-35,-13,-33,-61,-5,-2,-8,-64
1501880304236869,12,9,-13,-16,-6,-2,4,52
1501880304248870,-36,2,66,67,1,-1,-7,-43
1501880304248870,36,-8,-37,-7,3,-2,-3,26
1501880304250869,-10,-12,-6,45,0,-3,-2,-50
1501880304250869,10,-2,9,-75,-7,2,3,24
1501880304271871,0,10,-6,-13,-14,0,-2,69
1501880304271871,-35,0,15,56,7,4,-2,-27
1501880304272871,-4,7,1,23,9,-1,-1,-9
1501880304272871,45,-14,37,-53,-3,0,-2,28
1501880304285870,8,1,8,-38,-21,-3,-2,48
1501880304285870,-35,-5,-27,-44,-4,1,1,-11
1501880304292872,-20,-3,3,36,-2,-5,-1,5
1501880304292872,26,8,-14,7,11,8,6,73
1501880304309885,24,9,12,-7,13,3,0,6
1501880304309885,-3,-11,-21,-40,-5,-5,-5,22
1501880304310872,-41,-8,9,-28,-6,-3,7,43
1501880304310872,13,12,22,-1,-7,0,-1,2
1501880304331874,-41,-7,-16,18,4,0,1,-21
1501880304331874,-8,7,-49,-20,-4,-1,-1,-13
1501880304337874,50,-6,20,7,4,-3,5,58
1501880304337874,-16,-8,-13,24,-14,-3,-1,30
1501880304346874,12,2,-14,-41,1,5,-1,-87
1501880304346874,-12,-3,0,59,13,-3,3,54
1501880304347874,-19,2,-5,-103,-11,-1,-3,-38
1501880304347874,-8,1,-8,37,1,0,4,-8
1501880304368877,16,-10,-46,-100,-10,3,-2,6
1501880304368877,17,0,95,119,17,1,2,35
1501880304370876,7,5,-15,-93,-21,-4,-4,-1
1501880304370876,-5,5,-14,-2,-5,-4,-5,12
1501880304391878,-12,-6,21,-33,0,1,4,-56
1501880304391878,-4,-3,-5,11,-6,-1,-2,-30
1501880304393886,-4,3,9,86,21,-3,-7,-6
1501880304393886,23,7,22,-47,-1,2,6,15
1501880304405883,-15,-7,-31,5,-5,-3,-6,8
1501880304405883,-3,5,24,-9,-7,-2,7,8
1501880304412886,-21,-12,-24,-49,-11,-3,-15,-57
1501880304412886,25,8,32,38,5,-1,7,10
1501880304427881,-25,-6,11,17,2,-5,-3,-35
1501880304427881,-6,3,3,-10,-7,-4,-8,-65
1501880304436878,46,9,2,44,13,8,12,97
1501880304436878,-56,5,54,-57,6,3,-5,-71
1501880304451880,42,-7,-17,82,-5,-5,-4,52
1501880304451880,-19,-4,-16,-7,0,0,-2,33
1501880304452881,5,3,-8,-65,-6,-1,5,59
1501880304452881,10,0,-18,-73,4,-2,-9,-37
1501880304465881,-1,8,53,94,8,2,8,34
1501880304465881,17,-7,-3,34,10,0,-1,18
1501880304472881,-16,-10,-41,-25,-22,-1,5,3
1501880304472881,4,5,30,42,11,-1,-14,-70
1501880304489887,11,-9,-101,-118,-18,-6,-2,12
1501880304489887,2,-5,-10,-18,3,2,12,17
1501880304490883,-9,3,8,10,-10,-4,-6,-56
1501880304490883,-6,0,4,-1,2,0,3,32
1501880304511885,-11,-7,-25,4,5,3,-2,-18
1501880304511885,-12,5,-16,-69,-13,-5,-6,-34
1501880304512885,14,-1,34,62,8,-1,0,-21
1501880304512885,-5,-8,-21,-17,-12,-3,-7,30
1501880304525885,-2,9,16,-25,5,1,2,0
1501880304525885,45,-1,28,-10,0,-1,-4,63
1501880304539887,-35,-15,-64,37,-4,-5,-9,-31
1501880304539887,3,-15,-36,59,-6,-4,-3,35
1501880304548886,-16,5,23,-64,-8,-1,12,0
1501880304548886,-34,5,-23,-20,0,-2,0,-25
1501880304550886,21,2,38,-38,2,7,0,15
1501880304550886,-2,7,29,79,6,-1,-2,-21
1501880304571888,6,-23,-92,-18,-3,-6,-11,-12
1501880304571888,20,14,-1,7,10,5,3,6
1501880304573895,5,-6,31,-15,-6,-4,-1,-1
1501880304573895,1,-3,-50,28,-15,-5,-2,8
1501880304585887,-12,14,83,-10,-2,1,-4,-18
1501880304585887,15,-15,-47,-11,-3,-3,5,11
1501880304592898,20,1,0,33,6,-3,-6,-2
1501880304592898,-2,2,-3,-31,7,4,6,33
1501880304608890,-1,-9,-15,57,-7,-5,-3,-17
1501880304608890,-17,-2,0,10,-7,-4,-8,-25
1501880304610890,-5,7,11,32,15,5,7,-34
1501880304610890,56,1,14,-76,-29,-2,16,71
1501880304631905,-28,-2,-2,-6,-3,-3,-10,-62
1501880304631905,-14,-3,-13,-8,-3,1,4,8
1501880304632893,5,5,11,22,2,-2,-7,-19
1501880304632893,-7,-4,-8,-1,9,4,4,0
1501880304645892,-11,2,-27,31,3,3,3,46
1501880304645892,5,-7,6,11,-20,-11,-12,-44
1501880304652896,-22,4,23,-27,6,-1,-1,6
1501880304652896,-23,-5,-9,18,7,-4,-5,-70
1501880304668914,16,3,0,-30,9,7,-3,66
1501880304668914,29,-6,21,-21,6,1,6,60
1501880304670893,-33,-2,0,-24,-8,-3,-2,-4
1501880304670893,20,0,2,77,11,-2,-4,34
1501880304691909,18,-6,-4,-83,-12,1,0,-5
1501880304691909,5,4,-2,63,4,0,1,53
1501880304692895,-1,0,35,-18,-10,-3,-9,-33
1501880304692895,-12,-7,-64,95,18,0,1,0
1501880304705915,17,7,-4,-41,-6,4,6,-9
1501880304705915,-9,6,36,-33,1,-1,-8,-35
1501880304712939,-3,-2,-17,-57,-17,-3,4,0
1501880304712939,-9,-3,-15,-26,-3,-2,-7,-16
1501880304728937,3,8,36,127,18,1,4,2
1501880304728937,-60,-14,-29,-78,-18,-6,-9,-53
1501880304730898,4,3,14,27,1,0,2,-2
1501880304730898,-28,-6,27,1,2,-1,-3,-30
1501880304751937,-9,-1,-4,17,-2,-7,-8,-75
1501880304751937,26,-3,-5,-23,-4,1,1,27
1501880304752917,-21,8,-10,-45,10,5,4,-5
1501880304752917,-15,7,65,-10,-3,-3,-4,-98
1501880304764932,-3,-6,-45,9,-8,-2,3,41
1501880304764932,-12,2,11,36,10,-1,-2,-8
1501880304773905,-1,-3,-39,-24,-3,-2,-4,7
1501880304773905,7,8,51,54,10,4,0,28
1501880304788900,11,5,25,-71,-22,-8,-10,-51
1501880304788900,1,-3,-13,26,9,7,6,-11
1501880304790900,-20,1,5,79,8,5,5,2
1501880304790900,30,-8,-22,-94,-15,-6,-3,57
1501880304811931,-37,-8,-44,6,0,-5,-5,-25
1501880304811931,1,2,12,60,-5,-2,-2,23
1501880304812920,6,-4,-26,-22,-3,-3,-5,-42
1501880304812920,9,-3,-9,23,11,6,-1,20
1501880304824905,29,4,23,-38,-2,2,1,39
1501880304824905,7,2,59,-3,3,2,7,14
1501880304833943,28,-6,-13,20,1,-5,-5,-44
1501880304833943,4,10,-6,7,-6,-2,-8,-20
1501880304848924,-10,-8,-5,-26,8,1,1,25
1501880304848924,4,6,41,59,10,0,-2,-22
1501880304850903,64,-2,-53,-20,0,-3,1,108
1501880304850903,-40,-10,-7,-7,-8,-1,7,21
1501880304871906,23,-5,1,2,1,-5,-3,-11
1501880304871906,-5,1,-3,-43,0,4,-2,20
1501880304872905,-4,2,51,79,12,2,-1,17
1501880304872905,-1,-7,-39,-100,-17,-5,-3,-47
1501880304884905,15,7,38,45,15,7,16,68
1501880304884905,7,-2,8,-55,-12,-5,-6,-17
1501880304893906,-43,-6,-4,-27,-13,-8,-6,-40
1501880304893906,36,7,31,98,22,5,0,-5
1501880304908940,-6,2,26,-5,-16,4,0,30
1501880304908940,6,-14,-92,-86,-6,-10,-11,19
1501880304910907,-13,-6,11,28,-11,-5,0,2
1501880304910907,31,3,3,-38,-2,-2,2,73
1501880304931921,-12,4,-13,70,15,3,3,-11
1501880304931921,-5,-1,23,52,-6,-2,0,-2
1501880304933923,-6,-3,-15,34,2,0,-3,-5
1501880304933923,-45,-12,-34,-52,-1,-1,-4,51
1501880304944911,18,3,33,-38,-14,-1,5,-26
1501880304944911,-20,5,10,-14,-7,-3,-1,-2
1501880304953911,10,-13,-25,-62,-11,-8,-8,1
1501880304953911,-2,6,-19,13,-1,2,7,-31
1501880304968911,-9,-2,-2,43,7,-1,-5,1
1501880304968911,-3,2,-25,10,7,5,4,7
1501880304970912,-9,1,29,44,5,1,-2,24
1501880304970912,-12,-7,-25,-68,-18,-9,-4,-51
1501880304991935,-23,-7,-29,-83,-1,-2,-3,2
1501880304991935,-21,10,12,95,12,4,7,-82
1501880304992916,-8,-9,-35,-45,-7,-3,-10,9
1501880304992916,-20,-5,24,-37,-19,-5,-5,-34
1501880305004913,18,2,17,25,5,-4,-2,77
1501880305004913,30,-3,-43,-27,3,2,0,21
1501880305014913,-23,9,40,-16,-19,-2,-2,-31
1501880305014913,-18,-15,-51,-14,-4,-3,-1,-8
1501880305028954,30,-6,24,43,5,-1,0,10
1501880305028954,20,10,-8,-27,-1,3,0,53
1501880305030914,12,5,-11,-22,15,2,-2,-65
1501880305030914,20,1,12,20,-1,-4,6,52
1501880305051970,6,-7,4,23,0,-1,-12,-77
1501880305051970,1,-9,-14,-25,0,1,8,-8
1501880305052918,13,13,52,24,7,5,10,24
1501880305052918,-48,2,8,29,5,2,3,17
1501880305073926,10,6,-2,0,0,-1,-3,-29
1501880305073926,25,-4,20,-20,-7,-5,-3,69
1501880305075937,10,-4,-51,-16,-9,-4,-3,-33
1501880305075937,7,6,27,29,5,4,1,-2
1501880305088918,-25,-4,-9,8,1,-3,0,25
1501880305088918,-7,-2,-9,0,4,1,-3,-14
1501880305090918,-21,0,13,38,5,4,5,11
1501880305090918,17,-11,-5,16,-3,-4,-9,-13
1501880305111952,-9,-4,-8,-72,-18,-6,-1,-9
1501880305111952,1,1,7,-12,-12,-9,-7,-25
1501880305112919,4,-3,-15,17,3,0,4,18
1501880305112919,-17,8,26,-27,11,8,0,-52
1501880305134920,-7,-8,-34,44,0,-2,-1,5
1501880305134920,-7,-12,-44,-60,-19,-7,-4,12
1501880305136921,12,-9,-16,-22,4,-2,1,41
1501880305136921,11,3,20,11,4,1,-1,-3
1501880305148927,3,7,28,-7,-4,2,4,17
1501880305148927,-3,1,13,29,16,0,0,-16
1501880305150923,-12,9,-23,-43,-6,-1,-2,0
1501880305150923,33,-7,26,92,-6,-8,-12,-24
1501880305171923,-16,2,17,14,21,7,7,29
1501880305171923,-21,-9,-33,-28,-11,-2,-2,-51
1501880305173929,-22,-5,-24,-37,-6,-2,-2,25
1501880305173929,14,-5,-20,13,6,-4,-1,-2
1501880305193943,6,2,15,-22,-7,-5,-5,-16
1501880305193943,-15,-4,4,-25,3,0,-4,-2
1501880305195924,14,13,33,19,5,5,5,9
1501880305195924,-35,-4,-20,-25,-1,0,1,-2
1501880305208925,-2,-6,16,110,4,-1,3,0
1501880305208925,-6,9,26,-42,-15,0,-6,-46
1501880305210924,-2,-14,-35,-69,-16,-9,-6,-42
1501880305210924,6,5,14,67,9,2,3,31
1501880305231927,-37,-7,3,12,2,-5,-8,-71
1501880305231927,-20,2,35,45,3,-1,-2,-39
1501880305232926,20,6,-21,9,10,7,3,38
1501880305232926,5,6,5,-58,-12,1,2,-31
1501880305253928,29,-8,-44,-36,-20,-10,1,105
1501880305253928,-23,4,27,21,7,3,2,5
1501880305255928,4,0,33,28,-4,-6,-2,61
1501880305255928,-16,-23,-101,-81,4,1,1,18
1501880305268929,22,7,15,76,-1,2,2,11
1501880305268929,36,-7,12,101,1,-3,-1,79
1501880305270928,18,6,40,-40,-11,4,6,-11
1501880305270928,-7,0,-33,18,-3,-8,-7,35
1501880305291929,-4,1,-6,-98,-1,4,3,10
1501880305291929,9,-8,-25,-40,-9,-1,4,80
1501880305292931,-17,2,55,85,13,0,-4,-53
1501880305292931,10,-5,-14,15,-1,-4,-2,-1
1501880305313930,-11,5,-14,6,-10,2,1,-45
1501880305313930,22,4,18,3,8,-1,-3,68
1501880305315932,9,-12,-22,35,-1,-3,-2,4
1501880305315932,15,5,22,-21,-18,3,5,30
1501880305328932,-14,0,-10,34,15,-1,-10,-22
1501880305328932,-15,1,14,-8,-8,-3,1,-66
1501880305334947,-15,-2,23,51,9,2,-1,-13
1501880305334947,-18,1,-16,-8,-2,2,1,22
1501880305351933,10,-1,-6,-70,3,1,4,-20
1501880305351933,-8,-7,-9,74,5,-4,-5,-88
1501880305352933,-9,-3,-25,-128,-8,-2,-1,-45
1501880305352933,3,9,48,31,3,1,1,-19
1501880305374943,-1,-1,-10,18,8,0,-2,18
1501880305374943,9,1,-17,-53,6,0,-4,-5
1501880305375934,7,3,4,38,-8,-2,2,10
1501880305375934,12,-12,5,-16,1,-3,-5,2
1501880305388940,-19,-7,-32,-71,-19,-10,-8,-26
1501880305388940,2,4,33,6,7,2,1,5
1501880305394939,-2,1,-44,52,9,1,2,57
1501880305394939,-20,0,17,-58,-18,-4,-10,-65
1501880305411940,4,-5,6,89,5,-3,2,3
1501880305411940,8,-2,-18,25,-3,-3,-6,-47
1501880305412937,1,5,20,-24,-6,-2,-2,20
1501880305412937,-5,-11,-31,23,5,-4,-2,-12
1501880305434939,-8,11,36,23,7,7,4,-17
1501880305434939,-10,-11,-28,-90,-20,-5,-2,19
1501880305436938,6,3,25,19,11,8,6,37
1501880305436938,6,4,9,-50,-8,-5,-4,-44
1501880305448940,18,-4,-24,62,3,-2,-4,42
1501880305448940,2,6,-15,7,6,1,2,24
1501880305454945,-6,-11,-30,-8,0,-4,-6,-64
1501880305454945,-12,4,23,56,13,3,3,-9
1501880305471944,16,7,10,-52,-8,1,-3,-31
1501880305471944,-20,-8,-17,19,-2,-1,7,27
1501880305472941,14,-4,5,24,4,-2,-8,-11
1501880305472941,0,8,-20,-28,-14,-2,2,3
1501880305493943,-24,-4,55,10,-8,-3,-3,-15
1501880305493943,10,1,-18,-61,-6,-1,-3,-7
1501880305499942,-18,-12,-11,5,-7,-6,-1,-17
1501880305499942,3,4,21,65,14,4,2,36
1501880305508946,0,-5,-5,-41,-1,1,0,3
1501880305508946,10,0,-16,36,-1,-1,1,5
1501880305514963,-9,-2,-10,-32,-7,-4,-4,-10
1501880305514963,9,5,22,19,10,3,1,13
1501880305531985,-45,-1,-27,28,4,3,3,-28
1501880305531985,28,-5,-19,-38,-4,-3,-3,41
1501880305532947,35,9,32,-71,-21,-10,0,-21
1501880305532947,0,0,17,14,0,0,5,109
1501880305553945,10,-9,-8,8,11,2,-2,-34
1501880305553945,-26,1,-30,-15,4,4,0,-13
1501880305555944,-12,3,5,32,4,1,-1,3
1501880305555944,13,3,28,9,-1,0,1,-4
1501880305568968,-3,-4,-9,-41,0,-3,-4,0
1501880305568968,-12,3,41,21,-6,-1,-1,-3
1501880305575964,27,2,-17,-63,6,3,3,19
1501880305575964,-7,-8,-38,33,-4,-8,-9,-79
1501880305592003,13,5,22,-12,6,-3,0,25
1501880305592003,-5,3,5,49,3,1,-1,7
1501880305592946,-11,-2,-8,-21,-7,1,2,-40
1501880305592946,15,-2,1,-2,5,-1,-2,48
1501880305613951,-10,3,12,-9,-2,2,1,36
1501880305613951,-15,-3,15,48,-8,-9,-7,-37
1501880305615967,-20,-15,-47,26,3,-1,-3,5
1501880305615967,26,7,-6,-68,-9,1,3,4
1501880305628964,-39,-7,-41,-19,-9,-7,-1,-23
1501880305628964,4,8,36,-36,5,4,1,12
1501880305634969,-22,-1,41,81,14,-2,-5,-47
1501880305634969,-26,-6,-38,-64,-19,-7,-5,-77
1501880305650950,25,0,25,72,-1,-2,-2,25
1501880305650950,-2,2,-1,-10,7,3,4,-14
1501880305657955,0,-1,6,9,4,1,0,-12
1501880305657955,12,4,8,7,3,0,-1,-7
1501880305673979,0,-6,-9,31,4,1,-2,6
1501880305673979,-2,-13,-46,-53,-15,-4,-3,-4
1501880305679991,4,4,14,108,8,2,0,56
1501880305679991,-12,0,43,6,-5,0,-2,-18
1501880305696973,61,4,-24,-37,-9,1,5,28
1501880305696973,-58,7,89,27,10,-1,-1,-59
1501880305697953,4,0,3,2,1,-1,3,41
1501880305697953,-4,-5,-37,-51,-1,-1,-3,-19
1501880305711955,1,0,9,46,15,-1,1,18
1501880305711955,16,-4,-21,-10,-22,-6,-6,-4
1501880305712956,24,3,7,-44,-5,2,0,40
1501880305712956,-11,-4,0,-3,2,0,3,-9
1501880305733996,-18,1,-17,-58,-15,-6,-5,-3
1501880305733996,11,0,-6,16,13,5,1,13
1501880305736955,-24,-7,3,-45,-8,1,4,33
1501880305736955,-1,0,-42,27,-3,-5,-6,-32
1501880305747977,-40,1,-3,-2,-1,-1,-5,-66
1501880305747977,10,-4,-7,-22,-2,-1,2,14
1501880305756956,0,-7,-20,-31,-4,-2,-2,-24
1501880305756956,-4,0,31,0,5,1,2,30
1501880305771958,13,3,-7,4,0,1,-1,1
1501880305771958,-19,5,-5,45,1,1,0,-7
1501880305772957,-17,2,27,-83,-15,-5,-8,-55
1501880305772957,0,-2,-15,30,-5,-4,-3,10
1501880305793979,3,-12,-18,-2,-4,-2,-1,13
1501880305793979,14,6,21,-3,12,4,3,8
1501880305795962,5,-8,-61,27,0,-2,-3,2
1501880305795962,-2,-3,2,16,0,0,1,9
1501880305807960,0,-2,1,-3,-6,-4,-2,3
1501880305807960,5,-2,-21,-27,-12,-2,-1,2
1501880305823965,-3,7,16,17,0,1,0,-13
1501880305823965,25,8,7,73,11,1,0,90
1501880305832019,2,-6,-13,17,-10,-2,-1,-37
1501880305832019,21,-6,2,17,-3,-3,0,9
1501880305832961,2,-1,-12,-20,-6,-7,-8,-34
1501880305832961,-4,-3,30,18,4,1,1,-5
1501880305854017,4,-6,-23,-29,6,4,5,44
1501880305854017,-8,4,-3,-16,0,-1,-3,-36
1501880305855978,5,-14,-10,48,-11,-5,-1,-17
1501880305855978,-8,-2,-8,4,-1,-1,0,-6
1501880305867966,-30,4,24,-26,-6,-4,-6,4
1501880305867966,5,1,-14,13,10,5,3,1
1501880305876964,5,2,14,-31,-4,-1,-2,4
1501880305876964,18,17,38,28,-3,-1,-4,48
1501880305891986,17,-17,-30,-49,-8,-1,0,23
1501880305891986,-16,-16,-29,1,-1,-2,-1,23
1501880305892964,2,13,27,-56,20,7,4,-5
1501880305892964,-9,-13,-4,51,-20,-8,-5,-7
1501880305913967,13,5,8,-19,1,-2,-3,-16
1501880305913967,0,2,8,6,3,-2,-1,16
1501880305915967,-33,-1,8,13,1,1,2,8
1501880305915967,27,-6,-16,-15,11,3,0,-27
1501880305927966,-23,6,-3,70,11,1,2,-1
1501880305927966,-20,-4,-7,-67,-14,-6,-4,-20
1501880305936969,8,12,16,27,-1,1,2,4
1501880305936969,-26,-23,-33,-20,1,-3,-6,-24
1501880305951968,-1,2,-1,7,-1,0,0,-15
1501880305951968,45,1,13,-13,2,-1,1,54
1501880305952968,-46,-2,17,51,-5,-3,0,-31
1501880305952968,-8,15,7,-69,0,1,4,5
1501880305973969,-1,-16,12,72,2,-3,-3,3
1501880305973969,17,6,-2,-59,3,-2,-2,-44
1501880305975970,29,-14,-58,-36,-15,-6,-4,12
1501880305975970,5,3,12,19,-1,-1,-1,14
1501880305987972,-9,15,6,-53,2,1,-1,10
1501880305987972,-24,-5,-8,58,16,2,-3,-72
1501880305996970,12,-2,14,-35,-17,-1,0,3
1501880305996970,-30,-1,6,23,2,-2,0,-51
1501880306011972,12,-2,9,9,-4,-5,-3,-2
1501880306011972,-1,3,5,36,-4,0,0,26
1501880306013973,14,2,6,-8,18,2,-1,16
1501880306013973,-2,-5,-18,-6,-2,3,3,0
1501880306033973,37,7,43,-34,-6,-1,1,44
1501880306033973,-19,-4,0,42,6,-1,-2,-48
1501880306041974,-15,-10,-24,67,10,-1,-2,6
1501880306041974,-12,5,21,-65,-12,2,4,-23
1501880306047974,-7,3,-39,-7,1,1,0,80
1501880306047974,9,-4,19,75,1,-3,-1,5
1501880306056975,4,4,-28,-52,-16,-4,-1,-7
1501880306056975,-17,-7,19,-8,0,-2,-3,-13
1501880306071977,-1,1,-35,-24,-8,-3,-2,-5
1501880306071977,-4,-1,5,18,-2,2,1,19
1501880306073975,13,3,6,12,10,4,3,9
1501880306073975,0,-4,-17,-16,-2,-3,-3,17
1501880306094977,-11,-2,-4,-40,1,3,1,-23
1501880306094977,35,3,-18,24,-14,-4,-1,48
1501880306095979,-6,-11,7,45,0,-7,-3,-13
1501880306095979,-5,6,-17,-75,-21,-1,-1,-36
1501880306116979,-16,-14,-7,21,11,2,-7,-78
1501880306116979,-4,4,14,-74,-11,0,2,18
1501880306117978,9,2,-11,-1,-3,-1,-2,18
1501880306117978,-13,-5,6,27,5,-2,-1,-14
1501880306131980,4,4,-1,-24,-3,-3,0,-21
1501880306131980,18,-2,11,60,5,0,1,56
1501880306132979,6,1,-18,-39,-5,-1,-2,-43
1501880306132979,0,-4,-8,-32,3,-4,-5,17
1501880306153981,8,2,1,-10,-5,0,2,7
1501880306153981,-1,6,27,18,8,1,1,-3
1501880306155981,20,0,-13,-31,9,7,5,100
1501880306155981,19,-13,10,66,-4,-7,-2,31
1501880306176982,-14,6,43,5,-6,-4,-1,-45
1501880306176982,-10,-7,-30,-37,-3,1,-2,-29
1501880306177982,-7,4,10,-18,5,1,0,-1
1501880306177982,4,-3,-18,31,4,3,1,-5
1501880306191984,10,-6,2,28,11,3,1,16
1501880306191984,-29,-2,-7,-23,-19,-10,-4,-6
1501880306192982,26,-4,-2,-3,-2,-2,-2,6
1501880306192982,2,2,-16,-19,2,1,-2,-11
1501880306213986,2,6,20,37,-2,2,2,-5
1501880306213986,0,-7,-22,-23,2,1,-2,0
1501880306215995,-48,2,39,4,2,0,3,-22
1501880306215995,18,-8,-39,-59,-9,-6,-5,-16
1501880306236985,7,-6,-41,-3,-6,-5,-2,18
1501880306236985,-5,5,32,-39,-1,2,1,5
1501880306237985,8,-6,-21,49,0,-3,-5,-31
1501880306237985,-5,10,10,-3,4,2,3,12
1501880306251989,-16,-5,9,-40,-4,0,-6,-19
1501880306251989,-18,-9,-36,42,8,2,0,10
1501880306252986,15,5,49,118,5,-4,-7,-60
1501880306252986,-8,5,6,14,-11,-6,-2,-20
1501880306273991,9,-3,-24,-28,-5,-5,1,31
1501880306273991,0,4,16,-14,2,0,-2,-13
1501880306275988,-4,-10,-16,31,10,2,0,22
1501880306275988,-31,-3,11,-38,-4,2,0,-5
1501880306304992,29,6,18,31,2,0,1,32
1501880306304992,-12,-2,15,-15,-5,-6,-6,-4
1501880306305990,-17,-1,-4,-43,-10,-1,0,-2
1501880306305990,33,-3,-11,-2,4,2,1,33
1501880306310990,-26,-8,-24,9,4,2,4,12
1501880306310990,-56,2,4,-6,-12,-5,-9,-89
1501880306318004,22,-5,-9,-72,-13,-6,-5,14
1501880306318004,1,-1,13,76,5,1,2,61
1501880306334992,19,-3,1,10,2,2,1,-2
1501880306334992,19,1,-15,-28,-1,2,2,12
1501880306336998,-20,0,21,100,14,0,-2,0
1501880306336998,-19,-4,-35,-63,-10,1,-1,-63
1501880306356991,16,-6,-15,74,6,-2,-2,-9
1501880306356991,-3,-1,25,-52,-17,-8,0,19
1501880306357992,5,5,1,30,7,3,5,27
1501880306357992,-7,7,24,-24,0,1,-1,-12
1501880306370994,-7,8,32,-1,12,3,1,-11
1501880306370994,7,-12,-44,18,4,0,-1,-15
1501880306378008,6,2,6,-37,-23,-7,-2,11
1501880306378008,-8,-3,-1,25,3,-5,-3,-4
1501880306393995,-11,0,4,-48,-1,-1,-2,-4
1501880306393995,8,-3,27,70,9,4,2,10
1501880306395998,-11,-7,-17,-71,-5,-1,-3,-3
1501880306395998,15,2,-18,40,7,0,3,7
1501880306417036,-9,2,15,-31,-9,2,2,6
1501880306417036,18,-8,-63,26,-4,-6,-5,53
1501880306417995,-11,-1,-11,5,-4,-4,-3,-8
1501880306417995,18,-2,9,-19,-1,-2,-3,-1
1501880306431039,0,4,2,29,-1,-2,-3,-5
1501880306431039,7,2,10,-6,3,4,4,8
1501880306437996,4,-4,-24,-23,-1,-2,-2,44
1501880306437996,12,1,26,41,4,-1,-1,8
1501880306454013,-33,-6,-20,-66,-7,-4,-6,-12
1501880306454013,2,0,10,8,-5,-4,-4,-23
1501880306455998,-2,-3,2,14,1,-1,1,3
1501880306455998,6,9,10,-54,4,3,2,53
1501880306476999,-18,-11,7,100,10,-2,-4,-43
1501880306476999,25,4,-21,-88,5,2,2,31
1501880306478031,-28,-3,26,75,-8,-5,-2,-32
1501880306478031,1,-4,-11,-29,-1,-2,-1,5
1501880306491001,6,3,15,-16,-17,-3,-2,7
1501880306491001,-9,4,6,17,4,-2,-2,-4
1501880306499000,-1,-2,-9,-3,2,2,1,-11
1501880306499000,-4,-7,-56,-15,3,4,2,8
1501880306514023,1,4,10,35,7,3,3,13
1501880306514023,-15,-5,33,-29,-14,-7,-7,-25
1501880306516008,26,0,-14,-24,2,0,-2,62
1501880306516008,5,4,39,24,-1,-1,0,-19
1501880306537004,0,7,-14,-41,-1,3,3,17
1501880306537004,-2,-2,-6,40,5,4,1,-23
1501880306538002,17,5,8,-44,4,3,6,51
1501880306538002,6,-8,-19,-28,-9,-4,-3,-16
1501880306551044,3,11,-5,-24,-5,-3,-3,-56
1501880306551044,-11,-8,-2,-1,0,-4,-3,-11
1501880306558003,-17,2,18,-9,-2,3,1,-30
1501880306558003,19,6,32,24,6,2,1,17
1501880306574005,-4,-9,-15,-94,-9,-6,-4,-10
1501880306574005,-1,-10,-21,68,5,-5,-4,10
1501880306576026,6,0,-17,-28,-11,-5,-7,-92
1501880306576026,0,6,12,5,1,3,2,2
1501880306597026,9,-1,-3,-15,-1,0,0,26
1501880306597026,-2,-3,-11,-28,-2,1,1,-2
1501880306598006,-15,1,4,3,4,0,-3,0
1501880306598006,-22,-4,30,46,-4,-2,-2,-10
1501880306610011,1,-10,-30,51,5,-2,-1,-7
1501880306610011,-2,0,-30,-96,-8,2,2,0
1501880306619007,-10,-2,13,4,-11,-6,-5,-1
1501880306619007,9,8,-11,-55,7,0,-2,-7
1501880306634045,-2,-12,-6,95,-5,-3,-3,9
1501880306634045,7,1,34,4,2,0,0,37
1501880306637009,-11,-3,-34,-18,7,1,-3,-62
1501880306637009,-9,-1,-15,6,-2,-3,-2,-10
1501880306657013,10,-2,18,-4,5,0,-1,23
1501880306657013,18,8,38,4,1,7,3,-8
1501880306658009,-16,-4,-35,-9,-5,-2,-1,5
1501880306658009,-3,0,12,107,7,-3,-3,-2
1501880306679050,5,-10,-36,-81,-15,-2,0,-14
1501880306679050,3,3,-1,33,2,1,3,16
1501880306681045,3,-2,3,-26,-1,-4,-4,2
1501880306681045,-23,-4,-20,-5,1,1,2,-3
1501880306694032,13,1,13,5,-13,-5,-3,32
1501880306694032,6,3,-8,-2,5,0,0,-8
1501880306696014,10,0,-7,-14,-3,2,0,26
1501880306696014,-26,-1,3,10,-4,-3,-4,-33
1501880306716013,-7,-4,-9,-5,0,0,-1,3
1501880306716013,-7,-3,-12,29,-2,-3,-4,-7
1501880306717023,8,3,26,91,7,-1,-2,26
1501880306717023,26,0,5,-90,-18,1,-1,-25
1501880306738017,5,-2,-28,47,-1,-2,4,-51
1501880306738017,-9,2,-11,-34,-2,-3,-2,29
1501880306739015,-10,-6,1,-18,1,5,3,-24
1501880306739015,12,-4,35,36,7,1,1,35
1501880306753057,-33,-4,-37,-12,-5,-5,-11,-30
1501880306753057,7,3,12,77,6,-3,-2,2
1501880306754036,-16,0,-3,-70,-32,-3,-2,-7
1501880306754036,-14,-4,-24,0,0,-1,-1,-14
1501880306784075,5,8,48,-34,-3,0,2,16
1501880306784075,-4,-4,10,20,0,-4,-4,-8
1501880306785018,6,7,-7,32,13,4,2,9
1501880306785018,-7,-13,-36,-37,-9,1,1,-5
1501880306798017,3,-3,-2,-10,-5,-7,-9,-55
1501880306798017,-28,5,4,37,4,0,2,-9
1501880306799018,29,-4,-18,-92,-19,-7,-6,-1
1501880306799018,0,2,32,11,-2,-2,-1,-1
1501880306815026,14,9,38,26,15,7,6,51
1501880306815026,-2,-17,-12,1,0,-6,-7,-20
1501880306816019,-28,0,-13,-6,4,3,1,-5
1501880306816019,7,2,10,-7,-5,-3,-4,9
1501880306836023,-27,0,12,-42,1,4,4,17
1501880306836023,10,11,47,76,11,2,0,-6
1501880306837020,-5,-6,-13,-29,-16,-6,-1,28
1501880306837020,-21,-2,29,-4,0,-7,-8,-66
1501880306858043,-11,-15,-75,-41,-5,-1,-1,13
1501880306858043,5,-1,-20,-38,-6,2,0,-6
1501880306859024,12,1,50,58,13,1,-1,-4
1501880306859024,4,4,-15,-24,4,2,3,13
1501880306874032,27,0,-9,3,-13,-3,-3,0
1501880306874032,-3,1,-29,-15,1,-1,-2,-4
1501880306874032,21,-2,29,20,3,-1,0,4
1501880306874032,-25,2,-1,3,7,2,2,12
1501880306896024,-10,-1,29,45,8,1,2,-10
1501880306896024,-1,-6,-26,-35,-15,-7,-4,-2
1501880306897027,-25,9,2,25,8,0,1,3
1501880306897027,1,-6,11,-12,-4,1,-2,-28
1501880306918044,1,-2,-13,46,1,-3,-2,3
1501880306918044,-11,1,17,-41,-2,0,0,-9
1501880306919025,-13,2,12,8,5,0,-1,-32
1501880306919025,21,-7,-66,51,2,-2,-1,24
1501880306934065,-6,6,32,-63,-7,0,-2,-8
1501880306934065,12,1,-9,37,1,1,1,1
1501880306949030,2,-3,-1,2,2,-2,-3,5
1501880306949030,-8,-1,-26,-66,-11,-2,-2,14
1501880306957027,-4,3,5,-6,5,1,0,-4
1501880306957027,5,-1,-11,-12,4,3,2,9
1501880306958030,-6,-1,16,-9,-3,-2,-5,-16
1501880306958030,-3,-9,-50,-7,-11,-5,-4,17
1501880306978050,6,-1,-3,3,2,-3,-2,16
1501880306978050,-8,-7,-1,-44,-8,-4,-1,-10
1501880306979028,4,2,4,13,6,4,4,1
1501880306979028,-6,-8,-3,33,6,-2,-1,-4
1501880306995029,4,-2,0,7,-11,-4,-4,18
1501880306995029,3,5,18,2,-3,2,-2,1
1501880306996032,0,-8,-46,-24,-2,0,1,8
1501880306996032,6,8,24,4,0,1,-1,5
1501880307016062,-3,2,-1,-1,5,-3,-2,-3
1501880307016062,-4,-7,-1,-7,-2,-2,-2,-2
1501880307017037,8,1,-2,10,-6,-1,-3,2
1501880307017037,-2,4,26,14,5,2,2,1
1501880307038037,-5,-2,-4,5,5,3,0,-1
1501880307038037,5,0,3,-33,-5,-1,-1,2
1501880307039037,1,0,8,34,4,1,3,0
1501880307039037,-3,-3,-2,5,0,-1,-3,0
1501880307053036,0,1,5,-8,-4,-2,-1,-2
1501880307053036,1,1,1,-3,2,1,0,1
1501880307054032,4,-2,-15,-11,0,-4,-3,1
1501880307054032,-1,0,3,7,-3,-1,-1,-1
1501880307076061,-2,-4,11,-1,-3,0,1,0
1501880307076061,-1,0,-8,8,1,1,-3,0
1501880307077034,-4,0,-7,-17,-3,0,0,-9
1501880307077034,-3,2,9,28,1,0,0,-20
1501880307098052,6,1,21,16,1,-2,0,8
1501880307098052,-1,-3,-19,-21,-4,-2,0,-1
1501880307099036,6,-1,5,13,0,0,2,6
1501880307099036,-1,-2,-3,-31,-6,-4,-2,2
1501880307113050,-5,1,-1,-2,0,2,-2,-9
1501880307113050,0,-2,-10,18,4,0,1,3
1501880307121037,0,2,13,-37,-11,-1,-3,0
1501880307121037,0,-1,-1,27,-1,-2,0,5
1501880307137038,-1,2,-4,-4,1,-1,-2,-3
1501880307137038,0,2,21,-8,-2,-2,1,0
1501880307138037,-3,-2,-13,39,6,-1,0,-2
1501880307138037,-1,1,22,17,1,-3,-1,1
1501880307158041,1,-3,4,4,-3,-2,-2,6
1501880307158041,-1,-3,-14,-6,-5,-1,-1,-4
1501880307159038,1,-3,-7,-5,3,0,0,2
1501880307159038,-1,0,-1,-23,-5,-4,-3,5
1501880307173084,0,-1,-6,2,2,-1,0,-1
1501880307173084,-1,2,7,-12,0,3,2,2
1501880307174039,-2,-3,4,2,0,-2,-3,-4
1501880307174039,1,-5,-22,3,0,1,0,6
1501880307196041,-4,1,0,-35,-2,0,-1,4
1501880307196041,0,0,1,46,-1,-2,-1,-16
1501880307197041,1,-2,4,-26,-9,0,-1,1
1501880307197041,0,0,-2,8,-3,-5,0,-1
1501880307218055,-1,-2,-15,-20,-5,-2,-1,2
1501880307218055,-4,2,-2,5,2,1,0,-5
1501880307219042,-1,-4,-6,7,2,0,-1,0
1501880307219042,0,-1,-1,-23,-1,1,-2,2
1501880307234044,-3,0,2,9,-3,0,0,-10
1501880307234044,1,-1,-3,3,1,-1,-4,8
1501880307235044,0,0,-4,-1,1,-4,1,-5
1501880307235044,0,-1,-2,-14,0,-1,0,-2
1501880307256044,-2,-3,4,17,3,0,0,-3
1501880307256044,-1,-2,-9,-28,-5,-1,-2,0
1501880307257045,1,-2,5,20,-5,-5,-3,3
1501880307257045,-1,-1,-4,-6,2,2,2,-4
1501880307278047,0,0,5,20,3,1,1,-3
1501880307278047,0,-1,-1,-19,-4,-3,-2,4
1501880307279045,-2,-1,-3,-5,-2,-2,-2,-5
1501880307279045,-1,0,0,2,-3,-3,-3,0
1501880307293049,-1,1,-4,-10,-3,-2,-1,-1
1501880307293049,-3,-4,0,3,-3,1,1,0
1501880307294048,-1,1,0,6,2,1,0,1
1501880307294048,-1,-1,0,2,-1,1,-1,-2
