timestamp,emg1,emg2,emg3,emg4,emg5,emg6,emg7,emg8
1501880955085350,2,-5,-4,26,0,-7,-2,-15
1501880955100353,-12,-2,-9,-64,-22,-10,-21,11
1501880955100353,-2,2,34,58,23,2,-21,-6
1501880955101352,13,10,49,24,8,12,68,-5
1501880955101352,20,7,-26,35,1,5,5,7
1501880955124362,55,1,19,-55,-8,-10,-54,2
1501880955124362,18,-10,-42,-11,-35,-7,52,3
1501880955125353,-11,18,7,-128,-11,1,9,2
1501880955125353,-11,-1,6,-3,7,-6,-36,2
1501880955136353,10,-2,-16,22,-8,-1,1,-13
1501880955136353,-34,-8,31,10,2,1,4,-13
1501880955145355,52,2,-22,-17,18,6,19,6
1501880955145355,-39,-17,-9,48,-15,-7,-24,-12
1501880955160356,-11,3,-32,-62,-5,-4,14,-21
1501880955160356,-9,6,-11,-43,-16,-2,9,12
1501880955161355,-31,-8,23,-23,4,-1,-38,-20
1501880955161355,14,-4,-14,0,7,0,-11,-11
1501880955182363,25,0,5,59,6,8,29,41
1501880955182363,-34,-8,-5,29,6,0,-7,-4
1501880955184357,-15,7,26,62,3,-3,-3,-14
1501880955184357,8,4,-3,9,13,-1,-36,18
1501880955197357,-20,-13,1,5,-11,4,27,12
1501880955197357,-11,5,14,32,1,-6,14,-15
1501880955203358,-22,-4,-21,-80,-17,-1,-10,17
1501880955203358,20,-11,-24,-54,-5,-5,-13,9
1501880955220360,-29,-1,32,53,6,-2,-17,-14
1501880955220360,-38,9,-5,-28,6,0,-11,1
1501880955222361,-9,-8,4,97,0,-3,-4,-19
1501880955222361,5,-9,-31,-61,-23,-4,21,16
1501880955243368,-36,-4,23,69,13,0,-13,-2
1501880955243368,11,-10,-48,-68,-19,-5,-10,-13
1501880955244360,-16,-3,-1,-54,-10,-6,-12,17
1501880955244360,65,2,8,-11,8,1,-3,-21
1501880955257366,8,3,13,37,2,-2,15,16
1501880955257366,19,5,11,-1,8,6,-15,7
1501880955263362,-25,-4,-22,-49,-5,-2,9,8
1501880955263362,-16,4,42,72,3,3,22,-40
1501880955280364,11,-4,-54,-128,-18,-6,-18,-14
1501880955280364,17,-1,38,114,12,-2,15,2
1501880955281362,-5,-11,-54,-83,-12,-4,-17,-16
1501880955281362,-8,2,22,-8,-9,-6,-13,-17
1501880955302368,30,13,0,116,22,0,9,17
1501880955302368,-42,-9,-13,-34,-4,0,2,-2
1501880955304366,-9,-1,-2,-28,6,-1,-5,-6
1501880955304366,-4,3,-8,59,12,3,-1,6
1501880955317366,-30,-8,0,-37,-7,1,19,-9
1501880955317366,78,4,-20,-48,-2,5,21,1
1501880955323366,12,3,5,82,9,-3,-5,23
1501880955323366,-50,2,31,28,-5,-2,-28,-43
1501880955340369,22,-2,-18,37,2,-1,5,12
1501880955340369,-13,2,7,-94,0,-1,2,-14
1501880955342369,-9,-7,11,127,0,-4,14,-10
1501880955342369,76,9,12,38,2,-4,-16,22
1501880955362368,-14,-6,-1,-22,-12,-2,-11,0
1501880955362368,-40,-4,12,-3,2,6,5,-51
1501880955364367,-2,-6,10,-1,5,4,10,-2
1501880955364367,-14,1,3,-25,-2,-4,1,19
1501880955376373,30,5,25,-3,9,4,-8,7
1501880955376373,19,-4,-22,-3,-13,-5,12,48
1501880955385368,-20,4,7,64,7,4,-4,-58
1501880955385368,2,-6,-25,-72,-13,-3,5,41
1501880955400370,10,4,11,-72,-8,1,5,-9
1501880955400370,-13,0,8,7,-5,-8,-26,-2
1501880955401372,-8,0,21,-46,-3,3,26,5
1501880955401372,7,0,1,-11,-2,2,9,30
1501880955422386,-4,-3,-43,-19,1,-2,-17,-15
1501880955422386,5,1,9,121,10,-2,14,12
1501880955424370,5,0,5,-58,-11,-2,-6,14
1501880955424370,32,-5,1,-22,-11,-4,-6,31
1501880955436385,-2,-3,7,47,0,-6,1,12
1501880955436385,-29,-5,-55,-15,6,4,4,-12
1501880955445372,21,2,53,-28,0,-1,-10,-9
1501880955445372,-33,-2,-48,-32,-2,3,14,-2
1501880955460372,-12,-12,20,98,2,-7,-32,-20
1501880955460372,35,-5,23,36,-9,-1,35,-7
1501880955461373,19,11,-13,-14,7,2,-2,15
1501880955461373,-9,2,12,8,7,4,5,-46
1501880955482390,-75,-4,-24,-93,-18,-4,1,23
1501880955482390,-1,-1,21,4,8,0,-17,-41
1501880955484381,17,-3,-23,-11,-6,-2,-14,18
1501880955484381,-31,-4,0,40,4,-2,11,-34
1501880955496379,50,1,-12,42,10,1,-1,19
1501880955496379,-7,-7,-2,-99,-9,0,4,18
1501880955511376,-18,0,4,34,-1,-1,-4,-29
1501880955511376,-1,2,-2,-2,6,0,-3,6
1501880955520379,2,6,23,6,-7,-2,1,2
1501880955520379,2,-2,-11,-6,5,-1,-23,8
1501880955521376,14,-4,-46,-41,-4,-3,9,-2
1501880955521376,8,-6,-14,-22,-10,-2,2,8
1501880955542412,-10,-8,-4,31,9,5,5,-1
1501880955542412,-3,0,-4,36,-1,0,-6,18
1501880955544381,-17,-2,10,-13,-3,0,-3,-15
1501880955544381,-20,-6,7,42,-3,-2,0,-19
1501880955556396,22,4,-11,-104,-1,1,7,30
1501880955556396,16,0,31,12,-8,-5,-13,28
1501880955565382,12,5,-33,-12,2,1,10,8
1501880955565382,-32,3,2,-30,9,3,-5,-6
1501880955580410,40,-2,-1,20,-5,-4,-16,28
1501880955580410,-33,-5,-15,14,-4,2,18,-28
1501880955581386,-44,2,31,-14,0,0,-1,-26
1501880955581386,-9,0,-41,10,-2,-2,-4,-48
1501880955602403,-15,4,2,13,7,3,6,-12
1501880955602403,25,4,-21,-40,-3,-2,-8,14
1501880955604381,28,-7,24,20,-3,-4,-5,50
1501880955604381,7,-1,9,34,3,-2,9,-7
1501880955616410,-24,0,-3,1,-1,0,-3,-2
1501880955616410,4,-2,-19,-34,-4,0,-5,-9
1501880955625383,10,1,-20,64,8,2,-5,56
1501880955625383,-27,-4,32,-45,-6,-1,-6,-55
1501880955640397,17,2,-5,41,10,2,6,-25
1501880955640397,3,0,12,-15,-6,-3,-6,19
1501880955641398,0,-2,-19,-76,-7,-3,-7,-44
1501880955641398,11,-9,-26,31,3,-3,-4,18
1501880955662408,15,9,35,31,0,2,4,-1
1501880955662408,-23,-10,-57,-28,-5,-1,-6,-31
1501880955664385,-21,-3,37,65,-5,-8,-5,4
1501880955664385,33,2,4,-28,-1,-1,-14,38
1501880955676387,-28,3,10,6,3,1,15,-58
1501880955676387,-29,-2,13,29,-1,-1,-6,-1
1501880955685386,46,3,-18,16,2,0,2,64
1501880955685386,-40,-1,-1,-74,-15,-7,-17,-40
1501880955700394,28,-7,-18,-26,0,3,16,21
1501880955700394,-6,7,46,38,3,-4,-3,-15
1501880955701387,7,-9,-5,-19,-3,-1,13,2
1501880955701387,-6,4,8,59,-5,-1,-4,10
1501880955722429,-13,4,17,32,-3,-7,-15,-11
1501880955722429,27,-5,-40,0,5,2,10,-30
1501880955724409,20,3,12,20,8,4,4,-29
1501880955724409,-5,-1,-12,-5,-7,-2,1,24
1501880955736448,-1,-6,15,-100,-10,-4,-2,18
1501880955736448,18,-4,-12,63,-12,-8,-4,-3
1501880955745390,-45,-2,-6,-33,3,0,-4,-1
1501880955745390,26,-8,9,31,3,2,7,56
1501880955760391,-32,-2,-43,2,-3,0,-8,1
1501880955760391,-2,13,55,37,6,3,-4,25
1501880955761391,-7,-12,-35,-23,-5,-3,1,-21
1501880955761391,-7,-1,0,-16,1,-1,6,7
1501880955782444,-10,-10,-35,-20,-8,-4,-11,-4
1501880955782444,20,3,16,-33,3,0,4,13
1501880955784397,-15,5,16,85,3,2,2,-11
1501880955784397,82,3,3,-16,5,3,3,90
1501880955805428,-4,2,-1,-28,2,1,1,-22
1501880955805428,-39,-7,-8,5,1,0,-15,-10
1501880955806398,19,4,3,6,2,2,16,-4
1501880955806398,-25,-4,2,-27,-4,1,16,-13
1501880955820415,7,2,31,89,-2,-4,-6,-4
1501880955820415,-1,-13,-28,-47,-1,-2,3,10
1501880955821393,-2,0,10,3,3,-1,-11,-3
1501880955821393,-6,-3,-37,11,-8,-3,-2,-1
1501880955842423,-5,6,12,40,13,5,4,19
1501880955842423,4,-1,-2,-17,1,-4,0,-19
1501880955844415,-11,-3,-18,22,-12,-2,-2,-2
1501880955844415,4,6,1,79,15,2,-2,-10
1501880955865402,-6,-6,-23,-98,-32,-11,-16,-20
1501880955865402,15,4,38,81,6,3,7,37
1501880955866399,-33,-11,-17,-74,-5,-2,-4,-32
1501880955866399,0,-4,15,13,-3,-4,-4,-10
1501880955880398,-34,-5,-5,11,2,4,-3,-7
1501880955880398,-6,1,-16,-40,-5,-3,-11,4
1501880955881397,8,2,12,22,0,-2,-3,-2
1501880955881397,-23,5,12,-17,8,1,-4,-12
1501880955902401,66,-10,-23,-65,-17,-7,0,1
1501880955902401,-14,3,-3,-1,-3,2,2,-34
1501880955904401,-24,-1,9,-12,0,-2,-5,-8
1501880955904401,14,1,3,-20,-3,-2,-2,-7
1501880955925413,6,-4,28,98,11,0,-4,-26
1501880955925413,-2,-2,-20,-50,-8,-2,3,9
1501880955926401,86,7,8,10,9,1,-5,14
1501880955926401,-40,-4,6,-51,-26,-6,-7,-32
1501880955940403,3,3,25,35,15,3,5,5
1501880955940403,-21,2,-4,-10,-4,-3,4,-25
1501880955941406,17,-1,-13,-23,-4,-2,-4,1
1501880955941406,6,-5,4,0,-2,-1,-2,-5
1501880955962402,-1,5,26,-20,-1,-1,4,-2
1501880955962402,-17,-2,-31,3,0,-1,-6,6
1501880955964404,4,-5,-7,-7,-2,-3,0,33
1501880955964404,-42,-1,-9,10,2,0,-5,-33
1501880955985403,1,0,-32,-10,-5,-1,-2,13
1501880955985403,16,4,42,31,9,2,1,2
1501880955986403,-41,-8,-41,-64,-12,-2,0,-3
1501880955986403,1,-7,-9,21,-6,-3,1,6
1501880955999404,11,-1,-16,-14,-5,-5,-2,9
1501880955999404,-14,3,48,9,-6,-3,-6,-47
1501880956006411,-5,-2,11,13,1,0,2,0
1501880956006411,5,5,16,13,8,0,-5,2
1501880956022405,-17,-3,-17,-2,-5,-4,-1,-6
1501880956022405,32,3,3,-7,7,6,5,50
1501880956024407,3,-4,16,48,-4,0,-4,-2
1501880956024407,23,-3,-31,-75,-6,-4,-10,8
1501880956045408,-10,0,-12,-54,-7,-2,10,-5
1501880956045408,26,-4,-14,-13,-3,0,1,2
1501880956046407,-6,3,13,-1,1,-2,-10,14
1501880956046407,-3,3,8,22,7,3,4,-40
1501880956059411,-5,-1,27,73,9,-1,-4,1
1501880956059411,-4,1,16,12,-4,-5,0,7
1501880956066412,11,-2,1,-15,0,-2,-2,12
1501880956066412,6,-3,2,51,5,1,-1,-7
1501880956082424,-25,9,-4,-36,2,6,9,-3
1501880956082424,-24,-12,0,10,-5,-7,-8,-20
1501880956084411,-10,6,28,71,-3,0,2,-17
1501880956084411,-15,-11,-28,-50,-6,-4,-4,-3
1501880956105412,8,-4,-32,26,3,-3,-5,-8
1501880956105412,8,-1,-21,-9,0,3,1,13
1501880956106416,-8,6,3,-6,12,2,4,-5
1501880956106416,-26,-5,22,15,-10,-4,0,41
1501880956119427,8,-1,14,-6,5,2,5,-18
1501880956119427,10,-2,-4,-46,-17,-5,-6,22
1501880956126415,-27,-5,-11,-48,-4,-2,7,-13
1501880956126415,19,1,-30,-25,3,4,4,12
1501880956143414,7,0,20,31,3,0,2,33
1501880956143414,3,-2,-26,-5,4,0,-7,-32
1501880956156415,31,7,35,17,-3,4,15,5
1501880956156415,-50,-8,-40,-38,-10,-7,0,-15
1501880956165414,19,-2,-6,-33,-4,0,-6,2
1501880956165414,13,11,2,16,6,1,11,37
1501880956166414,-18,-18,-3,-52,-13,-8,-17,11
1501880956166414,26,9,19,43,15,6,10,-18
1501880956179416,-26,0,-10,-18,0,-2,-12,-9
1501880956179416,-4,-7,11,51,1,3,1,23
1501880956186417,9,1,-2,17,0,-4,-12,-6
1501880956186417,13,4,18,-6,-6,1,10,26
1501880956202417,0,-6,-24,-14,-4,-4,-6,-2
1501880956202417,10,7,20,42,9,2,-1,-6
1501880956204416,-18,2,0,-19,-6,-3,-4,-8
1501880956204416,-40,-8,-35,-27,-9,-4,-2,-11
1501880956225449,1,5,-5,-37,0,2,3,-18
1501880956225449,-5,-6,-20,4,-2,-3,1,6
1501880956226418,9,0,-5,23,2,2,0,-20
1501880956226418,2,6,17,-23,0,-1,-11,-9
1501880956239419,4,-9,10,58,-9,-5,4,25
1501880956239419,-16,3,-1,6,-3,0,-6,-57
1501880956246424,-13,-2,4,50,-1,0,10,18
1501880956246424,46,8,27,-69,-7,-1,-2,15
1501880956262420,14,-8,-43,-19,-4,-3,-2,20
1501880956262420,-3,-10,6,34,4,3,-5,9
1501880956264420,-10,-2,-40,-56,-13,-3,-3,-11
1501880956264420,1,0,17,20,4,-3,-7,18
1501880956285435,29,4,6,29,6,5,4,-9
1501880956285435,-79,3,5,-27,1,3,6,-41
1501880956286422,54,-11,-16,-47,-11,-7,-4,80
1501880956286422,-17,-4,-7,16,6,2,0,-15
1501880956298423,-14,1,0,-3,-3,-1,-6,-20
1501880956298423,20,-2,-7,25,3,-1,-1,4
1501880956307422,-10,9,31,-15,9,5,3,-4
1501880956307422,-3,-9,-32,10,0,-5,2,-12
1501880956322425,21,2,8,42,-3,-3,-5,55
1501880956322425,6,1,-3,-55,-2,2,5,8
1501880956324431,13,-2,-14,38,8,4,-1,-5
1501880956324431,-3,-4,16,-21,-6,-3,-4,-4
1501880956345428,-13,2,-25,-64,5,5,0,-12
1501880956345428,67,-2,13,58,-9,-9,-2,57
1501880956346425,-25,8,20,-27,7,1,-2,-20
1501880956346425,-21,1,14,-19,7,4,1,-30
1501880956358426,-15,-9,-14,76,1,1,9,-10
1501880956358426,6,-10,12,-2,-11,-8,-12,-2
1501880956367426,-3,-7,-29,0,0,0,9,-11
1501880956367426,10,8,29,-7,3,-1,-4,-4
1501880956382441,28,2,-27,-19,0,4,0,8
1501880956382441,-60,1,-22,-20,5,-2,3,-39
1501880956384427,-18,-1,1,49,-2,-2,-5,-13
1501880956384427,-19,-3,14,52,-3,-1,-1,15
1501880956405441,-2,-4,-18,15,2,-2,-6,-13
1501880956405441,21,-5,-5,-17,0,3,-1,3
1501880956406431,7,-2,-1,-3,0,-1,5,7
1501880956406431,-15,2,3,12,-2,-1,-1,2
1501880956418443,-24,4,33,-8,4,-1,-5,-16
1501880956418443,7,-6,-35,-23,-8,-3,6,25
1501880956427431,-34,-6,-3,52,-2,-7,-8,-30
1501880956427431,23,0,1,4,-8,-5,-8,-42
1501880956442449,3,2,-3,-50,-5,-6,5,16
1501880956442449,-5,3,23,-21,1,2,-6,-6
1501880956444430,-10,-1,-7,-13,3,3,1,-21
1501880956444430,6,-8,-12,85,4,-4,-4,8
1501880956465431,7,-6,-17,-81,-22,-6,0,-10
1501880956465431,-24,0,-3,-12,-1,-3,-5,-10
1501880956466431,0,0,-3,-10,-5,-2,4,18
1501880956466431,11,0,1,-12,6,6,0,-41
1501880956478433,-4,0,57,45,6,-4,-6,-14
1501880956478433,6,1,-15,55,2,1,6,0
1501880956487432,6,1,7,-31,-4,-1,-3,-8
1501880956487432,-1,-2,-25,-14,-3,1,4,36
1501880956502434,-19,-6,-8,-24,-6,0,-17,-32
1501880956502434,42,5,0,-11,8,3,17,11
1501880956504435,21,3,8,26,-7,-1,-1,3
1501880956504435,-44,3,4,-87,-3,0,3,-1
1501880956525449,25,-5,-21,64,-2,-3,-2,28
1501880956525449,-45,-5,6,-12,4,-1,-8,-14
1501880956526435,4,3,8,-9,6,1,1,-6
1501880956526435,25,-4,-17,17,-4,-1,3,45
1501880956538435,-40,3,31,13,3,0,-1,-41
1501880956538435,26,-13,-23,-25,-5,-6,-2,14
1501880956547436,-12,-9,-21,9,-3,-7,-7,5
1501880956547436,5,4,17,17,-1,1,4,5
1501880956562438,-62,-7,-4,30,-1,-1,1,9
1501880956562438,11,0,-17,-26,-9,-4,-8,15
1501880956564437,3,-1,-14,11,5,4,2,-10
1501880956564437,12,8,23,22,11,1,-2,0
1501880956585438,3,-4,-8,-61,-4,1,-5,-2
1501880956585438,5,4,12,-21,-8,-2,2,17
1501880956586439,-13,-4,0,-14,-3,0,-5,-19
1501880956586439,5,7,4,0,-1,-1,1,-1
1501880956598438,1,3,29,26,-1,0,2,-7
1501880956598438,-10,-1,-4,-3,0,-2,-8,-15
1501880956613441,9,0,-15,-3,1,0,3,13
1501880956613441,-8,-7,-7,9,-6,-5,-2,4
1501880956622466,30,-4,-33,-13,2,0,1,18
1501880956622466,-8,8,28,41,2,3,-1,19
1501880956624442,10,5,-9,-23,-3,-1,2,-11
1501880956624442,22,-14,-31,23,1,0,3,30
1501880956645441,-14,-1,2,-22,0,-5,-10,-57
1501880956645441,-3,9,6,25,-6,1,10,-13
1501880956646443,-2,1,35,13,-1,-2,-2,22
1501880956646443,-13,-14,-41,-28,-4,-4,-6,-32
1501880956658443,18,5,16,18,8,3,7,18
1501880956658443,23,-6,-30,-4,0,-3,-3,-9
1501880956667445,-14,-9,-5,11,3,-1,-6,3
1501880956667445,-2,1,-22,-25,-7,-2,-2,20
1501880956682458,27,-3,16,4,-4,-3,1,8
1501880956682458,23,3,25,21,1,-3,-2,10
1501880956684445,-43,-1,12,12,7,4,3,-40
1501880956684445,1,-5,-26,30,-7,0,-2,-6
1501880956705449,-3,3,25,-3,0,-3,-1,-2
1501880956705449,5,-1,-20,-33,-11,-2,0,-5
1501880956706446,14,-4,22,18,6,-1,-7,-10
1501880956706446,29,9,-14,48,19,5,7,33
1501880956718461,-25,-7,-14,-83,-23,-1,1,-24
1501880956718461,-12,-1,10,-3,4,0,4,-18
1501880956727448,4,2,-18,-20,-2,1,-1,25
1501880956727448,-7,2,34,21,2,1,-2,-21
1501880956742457,-8,-4,-4,30,-2,-4,-5,25
1501880956742457,65,-3,-6,0,2,0,-1,63
1501880956744450,-18,5,-15,-21,-10,0,5,-22
1501880956744450,-6,3,-1,-3,3,-3,-7,-22
1501880956765448,-23,6,8,-3,4,5,5,12
1501880956765448,-35,-7,-6,-13,-4,-4,-10,-18
1501880956766450,21,-3,-11,8,0,-1,3,2
1501880956766450,13,2,44,-9,2,2,-1,11
1501880956787465,-34,0,-19,15,-1,-1,1,-21
1501880956787465,-9,-7,-1,38,11,2,2,10
1501880956789451,3,4,22,60,-3,-2,-4,-24
1501880956789451,-14,3,-29,-90,-14,-4,-3,-23
1501880956802455,20,-9,-16,-2,3,0,1,15
1501880956802455,-26,1,-1,-33,-6,-1,-3,-20
1501880956804453,16,-7,-7,30,-2,-1,2,23
1501880956804453,-33,-4,30,22,-4,-4,-4,-12
1501880956825452,18,7,-17,23,-6,-6,-5,-2
1501880956825452,-6,-1,-19,-5,3,4,6,11
1501880956826453,4,2,25,-64,0,-2,-3,-27
1501880956826453,-24,3,14,7,-5,0,1,-48
1501880956847454,31,-1,-8,22,3,2,8,21
1501880956847454,-50,2,10,-33,-3,-4,-4,-40
1501880956849457,-1,-1,-15,-37,-6,-1,-2,16
1501880956849457,0,-8,-24,-20,-2,-3,-6,-36
1501880956862455,25,-1,10,-20,3,3,2,47
1501880956862455,2,5,-2,-4,4,4,4,-26
1501880956864456,19,7,14,25,4,0,2,35
1501880956864456,-18,-16,-23,3,-7,-7,-9,-17
1501880956885456,4,4,11,20,5,1,3,-4
1501880956885456,5,-7,10,81,-2,-4,-3,29
1501880956886457,3,4,-3,-37,-9,-2,-5,-9
1501880956886457,-8,-3,-2,15,1,1,3,30
1501880956907456,8,3,-16,-14,2,-3,1,0
1501880956907456,12,10,29,-51,-4,-1,0,8
1501880956909458,0,-11,-3,95,11,1,-6,34
1501880956909458,6,2,22,-67,-17,-7,-5,-33
1501880956922465,-48,-8,-7,39,3,2,-2,-46
1501880956922465,10,-4,-35,8,-7,-4,5,20
1501880956928459,0,-2,6,-35,4,0,5,36
1501880956928459,11,6,2,-17,-1,1,-1,-9
1501880956945459,28,-1,7,-55,-5,-4,-6,-12
1501880956945459,-18,1,4,42,8,2,-6,-27
1501880956946459,-6,-7,-29,-1,1,1,3,8
1501880956946459,-3,-3,2,5,-5,-3,-2,24
1501880956967461,-13,3,3,38,0,-2,0,-1
1501880956967461,12,-2,2,-88,-12,-5,-8,-5
1501880956969462,-14,-3,-7,23,-2,-2,-1,-42
1501880956969462,9,-3,19,18,4,1,4,25
1501880956981463,15,0,9,15,-7,-2,-3,10
1501880956981463,20,0,-14,-98,-5,-4,-12,48
1501880956988462,-11,3,15,-11,-2,-1,13,-24
1501880956988462,-14,-4,-19,-4,-3,-3,-4,-2
1501880957005465,2,-7,25,24,-3,-2,2,29
1501880957005465,25,1,9,56,6,2,-1,15
1501880957006464,3,8,-13,-6,0,-4,-3,-16
1501880957006464,19,0,28,-5,-3,0,-2,25
1501880957027468,-10,3,-11,-22,3,0,0,-3
1501880957027468,3,2,10,27,1,1,3,2
1501880957029464,-20,-2,10,-50,-6,-2,-5,0
1501880957029464,30,4,-9,46,8,6,8,7
1501880957041465,13,-3,-1,7,-1,-3,-2,26
1501880957041465,-43,-9,-12,25,-8,-3,-2,-49
1501880957048468,9,5,-5,-14,4,2,-5,-2
1501880957048468,3,-2,23,66,2,-5,3,17
1501880957065466,-13,-6,-5,-34,3,0,0,-11
1501880957065466,-37,-9,-30,12,-3,-3,-3,-6
1501880957066466,28,6,11,4,6,2,-3,-8
1501880957066466,-43,-1,3,-36,-8,-3,0,-26
1501880957087483,-12,-5,-10,19,4,1,0,-11
1501880957087483,36,0,6,13,-2,-1,2,8
1501880957089469,-26,-14,-7,-37,-4,-4,-2,-5
1501880957089469,17,5,-13,18,5,2,1,16
1501880957101470,4,3,20,1,-10,-4,-5,-13
1501880957101470,33,1,16,43,3,0,-3,-28
1501880957108470,-19,-7,-71,-21,-7,-2,1,-15
1501880957108470,11,0,24,10,6,0,-6,4
1501880957125479,12,-1,-6,-56,-16,-4,0,5
1501880957125479,6,1,8,-8,0,1,1,17
1501880957126471,-6,3,10,-12,1,1,1,3
1501880957126471,-3,-1,-7,15,4,2,1,-5
1501880957147472,-17,-6,-18,8,-2,-1,-2,-36
1501880957147472,-57,-1,-20,-4,5,1,-1,-4
1501880957149472,42,5,6,-11,-7,-2,-5,-4
1501880957149472,-19,1,14,47,10,5,4,-24
1501880957161472,-8,2,-5,-45,-7,-4,-4,8
1501880957161472,7,-8,-8,-45,0,-1,-3,-2
1501880957168474,-1,-2,5,41,-2,-2,2,16
1501880957168474,16,4,-12,-83,-3,1,-2,12
1501880957185473,17,4,27,61,8,4,-1,-6
1501880957185473,2,-3,1,99,4,-4,-7,-15
1501880957186474,13,-6,3,-54,-10,-5,0,55
1501880957186474,12,-3,-6,1,2,-1,-3,11
1501880957207474,-29,-5,-10,-38,-1,0,2,-6
1501880957207474,-21,6,25,-14,-5,-2,-2,-13
1501880957209475,17,1,-10,75,2,0,-1,10
1501880957209475,6,-3,3,-21,-7,-2,-3,18
1501880957222478,-19,-2,-4,12,4,0,-1,-16
1501880957222478,13,-1,3,-20,-12,-4,-2,-7
1501880957230481,-27,-2,5,9,4,-1,-3,22
1501880957230481,8,0,10,16,-2,0,3,2
1501880957245479,-9,-3,-9,-63,-4,-1,-1,-20
1501880957245479,7,1,3,-35,1,-2,0,0
1501880957246477,-2,-4,-16,-14,-1,0,0,-4
1501880957246477,-39,-4,9,21,-8,-6,2,-10
1501880957267479,22,0,-12,26,5,2,2,18
1501880957267479,-26,-6,-7,-4,-1,0,4,7
1501880957269481,-24,1,17,-20,-6,-3,-6,-49
1501880957269481,53,6,-8,-7,4,-1,3,24
1501880957281479,-30,1,3,16,-2,-1,-5,-46
1501880957281479,-31,-10,-19,9,-3,-1,-1,-18
1501880957290480,18,7,39,82,16,6,0,-12
1501880957290480,19,-5,-48,-101,-23,-4,-1,0
1501880957305483,-9,-4,-15,-51,-4,-5,-8,23
1501880957305483,-16,6,10,29,5,1,0,5
1501880957306482,-4,-3,-29,7,-9,-5,-3,-5
1501880957306482,-17,-2,-10,35,7,0,-5,19
1501880957327489,20,1,1,33,8,5,6,14
1501880957327489,-1,0,-3,-81,-7,-1,-2,1
1501880957329485,-18,-6,12,-13,-3,0,0,-31
1501880957329485,6,-10,-10,10,5,-1,-2,3
1501880957341505,10,9,9,28,-2,-2,-3,5
1501880957341505,23,5,24,1,3,3,5,31
1501880957350485,-66,-17,-41,-73,-15,-6,-10,-77
1501880957350485,-24,0,-5,-3,6,1,0,-29
1501880957365488,10,-12,-23,28,-6,-4,-4,20
1501880957365488,15,6,5,15,7,2,4,-4
1501880957366485,50,7,1,-8,-1,1,-2,30
1501880957366485,-48,-7,35,-33,-8,-2,4,-3
1501880957387499,-8,-5,-4,-24,-3,-1,-3,-29
1501880957387499,8,-4,-24,-12,-1,-1,10,-4
1501880957389491,17,1,19,43,4,-1,-2,67
1501880957389491,11,6,-6,13,1,1,-2,-19
1501880957401486,15,12,20,28,7,4,6,16
1501880957401486,-17,-5,14,-36,-3,-2,-3,-34
1501880957410487,44,-3,-18,77,2,-3,-2,30
1501880957410487,14,6,5,39,-4,-3,-2,12
1501880957425487,-8,4,0,-103,-14,-4,-4,-1
1501880957425487,-10,-5,-6,31,3,-1,-5,-10
1501880957426488,0,-3,12,-21,-4,-1,2,-6
1501880957426488,5,-2,-4,24,-2,-2,-1,2
1501880957447489,-5,1,-16,-28,0,0,-3,-32
1501880957447489,0,-2,10,5,-2,-1,-2,-10
1501880957449492,19,-1,-10,23,-1,-1,6,61
1501880957449492,-12,0,-19,-24,-2,-2,-5,-37
1501880957461510,-18,7,26,62,9,3,6,4
1501880957461510,26,-8,-8,7,-7,-5,-3,19
1501880957470502,-38,-1,0,2,9,1,1,-38
1501880957470502,6,-1,-29,-31,-3,0,-3,-13
1501880957485532,-14,2,32,22,3,-2,-5,-7
1501880957485532,16,-4,-23,36,-6,1,4,-20
1501880957486510,-10,3,-9,17,1,1,2,-22
1501880957486510,-10,-2,2,-28,7,1,0,9
1501880957507493,-8,1,18,10,0,0,-1,-11
1501880957507493,11,2,-8,13,-2,-1,2,37
1501880957509494,-24,-9,-1,-33,-9,-4,-2,-17
1501880957509494,3,-1,-15,36,8,0,6,-2
1501880957521525,15,1,20,-7,4,2,-1,22
1501880957521525,-3,-2,-16,-35,-4,-2,-6,7
1501880957530495,4,4,4,17,2,0,-2,-31
1501880957530495,6,-7,0,-18,-5,-5,-7,7
1501880957545503,-7,0,-28,22,5,4,7,2
1501880957545503,34,7,0,15,8,2,-4,49
1501880957547510,-42,-7,-28,-68,-17,-5,-1,-24
1501880957547510,27,2,15,15,-3,-4,-5,-51
1501880957568499,-9,-7,16,-11,-9,-3,-4,-3
1501880957568499,14,1,3,-5,6,1,2,22
1501880957570507,12,3,-2,5,2,1,-3,-8
1501880957570507,11,5,14,17,2,2,-1,28
1501880957581537,25,-3,-29,18,-1,0,7,15
1501880957581537,-17,-2,5,-24,-3,-4,-4,-16
1501880957590498,6,1,35,-14,-6,-3,-3,11
1501880957590498,-3,1,4,30,3,0,0,17
1501880957604500,11,-12,-34,6,2,1,0,4
1501880957604500,-26,-3,-6,13,-2,-1,5,-26
1501880957611499,0,-2,-9,-53,-2,0,-1,28
1501880957611499,-4,3,33,3,-3,2,5,-41
1501880957634502,-3,-1,-10,5,10,2,-3,-3
1501880957634502,-9,-5,12,-8,-14,-4,-4,-11
1501880957636500,10,0,0,17,8,0,0,0
1501880957636500,-16,-3,-17,-49,-4,0,-5,23
1501880957650504,24,2,3,88,-10,-8,1,-1
1501880957650504,-12,7,5,-18,11,4,5,-24
1501880957651500,14,-5,17,7,-4,-3,-2,15
1501880957651500,-19,-2,24,32,2,0,-1,-13
1501880957664501,7,-6,-31,-70,-8,-3,-7,-17
1501880957664501,-12,-8,2,55,2,-4,-6,-13
1501880957666501,12,6,4,4,-1,-1,-2,-3
1501880957666501,-45,-16,-45,-57,-4,-3,-1,-21
1501880957687516,-26,1,8,-30,3,-2,0,10
1501880957687516,33,5,-24,-5,-6,-3,-1,61
1501880957689510,-23,0,32,12,10,4,2,-32
1501880957689510,14,2,4,42,-3,-2,0,5
1501880957709507,7,1,4,27,-1,-2,-3,52
1501880957709507,1,-12,6,30,-5,-2,9,0
1501880957711504,-21,-1,-19,-27,-2,0,-5,-11
1501880957711504,29,1,-6,-41,-2,0,-3,29
1501880957725507,14,10,34,65,9,0,6,1
1501880957725507,-21,-2,-12,-56,-2,-2,-4,21
1501880957726518,14,-9,-9,0,-3,-5,-1,-21
1501880957726518,-3,-3,-21,23,-2,0,0,-1
1501880957747506,14,0,23,35,2,-1,-3,-8
1501880957747506,-14,-1,-20,-23,-4,-3,-2,-11
1501880957749506,3,4,15,10,3,3,-3,1
1501880957749506,-13,-8,-19,-37,-6,-4,2,-5
1501880957769508,-7,-1,-3,34,4,0,0,-18
1501880957769508,7,-2,-7,-57,-6,-2,-5,-30
1501880957771509,-34,2,15,32,3,0,0,15
1501880957771509,49,-1,-15,-2,-3,-4,-3,10
1501880957784523,-18,-8,3,-61,-8,-1,-1,-3
1501880957784523,32,-3,4,29,-2,-2,-4,22
1501880957791535,7,8,-1,-14,0,-2,-2,-38
1501880957791535,-25,1,3,41,7,6,5,19
1501880957807511,21,-6,-14,-53,-11,-10,-10,-9
1501880957807511,-31,-3,-9,30,3,4,-6,22
1501880957809510,23,1,0,21,-2,-3,4,15
1501880957809510,-9,9,14,14,4,1,-4,-9
1501880957829512,-46,-16,-1,-28,-6,-1,0,-22
1501880957829512,6,5,-3,6,1,-3,0,-15
1501880957831511,7,-6,2,46,2,1,-3,9
1501880957831511,-17,4,-6,-12,-7,-5,0,-12
1501880957844514,-4,-4,8,-50,-4,-3,-4,4
1501880957844514,-5,-2,-12,19,-1,1,-2,-25
1501880957851512,-27,9,14,-55,2,0,4,-17
1501880957851512,-17,-15,-6,-10,-12,-6,-7,-37
1501880957867513,13,3,-25,-52,-8,-1,-1,6
1501880957867513,-11,0,6,-15,3,1,-2,-7
1501880957869514,10,4,-1,56,5,0,-3,-9
1501880957869514,-28,-7,20,16,-7,-1,2,29
1501880957889519,18,1,-9,-3,-1,-1,-4,31
1501880957889519,-3,2,6,-12,2,2,10,-52
1501880957892526,19,-1,-14,4,2,-4,-2,27
1501880957892526,21,3,32,10,5,2,-6,3
1501880957904518,-20,-7,-24,-4,1,0,-3,-12
1501880957904518,-9,-3,-13,-63,-7,-5,-4,15
1501880957911516,21,1,3,11,-4,-2,-7,-29
1501880957911516,12,0,15,-6,6,1,7,33
1501880957927518,-12,1,-29,8,3,3,4,-13
1501880957927518,9,6,38,44,1,0,-2,-26
1501880957929517,-27,-8,13,26,-7,-6,-2,2
1501880957929517,-5,4,-25,-22,2,2,-3,-7
1501880957950519,10,-1,17,-13,-3,-1,1,8
1501880957950519,15,5,-2,-22,7,0,1,8
1501880957956526,-9,-9,-43,-38,-6,1,7,18
1501880957956526,8,-1,10,-16,-8,-2,0,9
1501880957964518,-21,-3,-10,5,-8,-4,-4,-20
1501880957964518,-3,-4,-6,17,4,1,-3,2
1501880957971522,-18,-4,20,19,-3,-3,-1,-14
1501880957971522,10,-4,-39,23,6,-1,-2,-8
1501880957987523,5,4,7,-30,-2,0,0,2
1501880957987523,-6,-1,0,6,5,1,-2,41
1501880957989521,-1,-2,1,13,-5,2,3,-13
1501880957989521,7,7,20,46,1,0,2,28
1501880958009522,-8,-6,-24,-44,-14,-5,0,-5
1501880958009522,13,0,-12,31,-1,-2,-2,-1
1501880958011521,-23,-1,21,-77,-7,-2,-2,3
1501880958011521,17,-3,-9,-90,-6,-2,-7,-11
1501880958024523,-45,-3,0,49,0,-2,13,3
1501880958024523,3,4,8,43,3,1,0,-3
1501880958031526,8,-3,-24,-42,-1,2,0,13
1501880958031526,17,7,25,26,0,-7,-5,-12
1501880958047524,6,-8,-5,2,3,-1,-4,1
1501880958047524,-13,-10,-29,-31,-11,-4,-1,21
1501880958049526,-29,4,2,18,9,3,-4,-30
1501880958049526,23,-2,1,-16,-9,0,3,13
1501880958070527,17,6,10,51,11,2,-1,2
1501880958070527,-4,1,12,-44,-10,0,1,-8
1501880958071528,21,-9,-17,54,3,-3,-3,24
1501880958071528,-31,2,20,19,-1,0,2,-15
1501880958084540,0,-2,-12,-23,-1,-2,-2,-15
1501880958084540,-23,0,17,-1,0,-1,-2,-20
1501880958091526,18,-4,-18,4,-4,-5,-3,22
1501880958091526,-4,0,-11,2,3,1,5,-11
1501880958107529,14,-1,19,33,3,-1,-2,7
1501880958107529,-18,4,8,-9,3,2,-3,-7
1501880958109528,-14,-6,-11,38,-1,-2,-1,-6
1501880958109528,-14,-2,9,-82,-7,0,-1,-19
1501880958130529,12,-1,-31,53,-3,-1,-3,25
1501880958130529,-2,-6,2,2,-2,-7,-4,-49
1501880958131528,0,9,16,-24,7,5,4,-11
1501880958131528,-16,-9,-28,29,-1,-5,-5,-3
1501880958144532,-2,5,17,-14,0,3,1,0
1501880958144532,2,0,12,-12,-3,-1,-2,-3
1501880958151530,18,-2,-14,6,-3,-1,1,19
1501880958151530,-2,4,8,-7,1,-3,0,7
1501880958167531,15,1,0,13,7,0,0,14
1501880958167531,-8,-8,7,1,-11,-1,2,-2
1501880958169533,0,-4,24,-25,2,-1,-3,8
1501880958169533,-20,-10,-57,3,-5,1,0,-18
1501880958190536,-6,0,-8,-10,-1,-3,-1,-2
1501880958190536,2,5,63,21,4,-1,-2,0
1501880958191546,-15,-6,-71,-73,-8,1,2,10
1501880958191546,8,-3,20,68,8,-4,-3,-19
1501880958203534,-17,3,11,-14,-4,-1,-3,-16
1501880958203534,20,6,-8,9,4,2,2,11
1501880958212535,-26,-2,6,-34,-3,0,-2,1
1501880958212535,-3,2,24,57,8,0,-2,-11
1501880958227534,4,0,-17,-76,-12,-3,-2,-5
1501880958227534,8,-2,-14,27,-6,-4,-2,4
1501880958229537,-40,1,15,10,-3,-4,-5,-45
1501880958229537,-4,-5,-8,8,1,1,5,-3
1501880958249536,14,-4,18,17,1,-2,-5,-24
1501880958249536,-6,1,-19,-25,2,2,1,2
1501880958251536,41,0,-3,18,-2,-4,0,7
1501880958251536,11,3,25,-19,0,-3,-5,23
1501880958263536,-22,-8,-50,-33,-9,-3,-2,1
1501880958263536,-3,-9,-36,0,-3,-3,-3,3
1501880958272538,18,14,19,22,2,0,0,-7
1501880958272538,2,-5,8,7,1,5,-1,5
1501880958287538,-6,-5,32,-19,-2,-3,-1,1
1501880958287538,-26,-3,-34,0,-1,-1,2,-45
1501880958289538,8,2,23,15,3,1,1,14
1501880958289538,-24,2,-2,-19,-2,-2,0,-11
1501880958309539,16,3,3,39,8,4,3,40
1501880958309539,-7,-1,2,-10,-1,-1,0,-28
1501880958311539,7,-5,10,35,-7,-5,-3,4
1501880958311539,-22,-1,-21,-47,-3,3,0,11
1501880958323544,13,2,22,38,1,-2,1,-8
1501880958323544,-8,-9,-26,-79,-10,-5,-7,14
1501880958332540,10,1,11,44,1,-3,3,24
1501880958332540,26,1,-9,-16,2,-1,-1,11
1501880958346541,-7,1,14,61,2,0,0,-2
1501880958346541,6,5,10,-41,4,4,3,15
1501880958355544,1,-8,3,57,-6,-6,-7,8
1501880958355544,-6,-2,-25,-13,-8,-4,-1,-3
1501880958370543,0,5,41,39,12,2,2,-2
1501880958370543,15,-4,-35,-50,2,0,0,1
1501880958371546,-13,-8,-10,-29,-12,-7,-5,9
1501880958371546,2,5,11,24,6,-1,-2,-3
1501880958383556,5,6,11,1,-2,3,-1,-7
1501880958383556,-15,-3,-7,-19,-7,-4,-3,15
1501880958392547,-25,-6,22,55,-6,-5,-5,-6
1501880958392547,-1,-7,-9,11,-2,-1,-2,14
1501880958407546,-8,1,6,-9,-2,-1,-2,-48
1501880958407546,-42,2,12,63,10,4,2,1
1501880958409546,1,-5,-34,-103,-20,-6,-5,0
1501880958409546,29,-3,0,7,-2,-2,1,1
1501880958429547,-5,-4,-6,-14,-4,-2,-4,13
1501880958429547,25,8,37,67,11,2,3,-7
1501880958431546,8,-9,-46,-61,-1,2,1,-12
1501880958431546,-4,5,22,-10,-6,-4,-3,1
1501880958443548,14,-8,-33,-38,-4,1,-2,2
1501880958443548,11,3,17,16,2,-4,0,12
1501880958452547,10,3,1,10,4,3,-1,4
1501880958452547,13,7,14,-4,4,0,0,6
1501880958467549,-18,-11,-28,22,-11,-5,-3,-7
1501880958467549,-14,-4,21,28,-2,-6,-9,-47
1501880958469549,15,13,-27,-22,8,6,12,-1
1501880958469549,-13,-9,-9,-13,-3,0,-1,0
1501880958489550,-9,6,30,5,4,-1,0,-30
1501880958489550,13,-10,-61,-66,-8,1,-1,20
1501880958491557,-7,-3,38,31,-2,-5,-2,-14
1501880958491557,-4,-3,-15,10,-2,0,-1,-15
1501880958503550,1,5,4,-3,4,-1,-3,16
1501880958503550,1,-1,13,-11,-7,-2,2,3
1501880958512551,4,5,8,-6,7,5,3,-5
1501880958512551,0,1,0,36,-1,0,4,19
1501880958527553,7,-14,-29,-50,-10,-6,-9,-18
1501880958527553,29,2,-17,9,-5,-5,2,14
1501880958529553,1,4,-8,10,10,6,-1,0
1501880958529553,-17,-5,15,9,-14,-9,-4,-9
1501880958549554,-6,4,-3,-10,0,5,1,5
1501880958549554,17,4,13,-10,7,3,0,14
1501880958551553,6,-3,-18,51,8,3,7,6
1501880958551553,9,-9,-37,-16,-8,-1,-6,-5
1501880958563557,14,5,-7,-37,0,-3,5,3
1501880958563557,-40,-2,32,25,-2,-2,-2,-15
1501880958572558,-18,-1,17,-50,3,2,-1,-7
1501880958572558,2,2,28,-12,-5,-3,-3,-10
1501880958587571,-8,0,-10,57,2,2,-1,2
1501880958587571,18,-1,-10,-25,-7,-1,-1,-15
1501880958589559,15,1,8,22,7,-2,-5,16
1501880958589559,-25,0,-15,-10,0,-2,0,-12
1501880958609557,3,4,17,-3,-3,-1,1,-3
1501880958609557,5,-10,-35,2,-5,-1,-2,8
1501880958611558,-7,-1,8,-13,-3,1,-2,-16
1501880958611558,1,-3,-3,-8,5,0,-4,12
1501880958623562,24,5,1,44,5,-2,-2,17
1501880958623562,-22,-4,0,-14,-8,2,3,-17
1501880958632557,30,-3,0,-31,-7,-6,-5,25
1501880958632557,-8,2,-5,-27,-6,2,7,-1
1501880958647558,-1,-4,21,-12,0,-5,-5,-9
1501880958647558,-46,-1,-7,52,10,4,0,-37
1501880958649560,44,3,-6,-42,-7,-6,-2,21
1501880958649560,-2,6,4,38,7,3,3,12
1501880958669560,-28,-3,-10,24,-3,-1,-2,-53
1501880958669560,15,-6,-9,-1,0,-5,-3,5
1501880958671561,-19,1,13,-30,-10,-2,-2,-8
1501880958671561,-6,-5,-20,16,3,0,-2,-13
1501880958692563,0,-2,-8,-16,1,3,4,11
1501880958692563,16,11,25,46,8,0,-1,24
1501880958694561,-20,-3,2,-10,-3,-3,-2,-19
1501880958694561,5,-3,-39,-48,-1,2,0,12
1501880958707563,18,3,14,12,8,3,3,33
1501880958707563,24,-2,-16,56,-4,-1,1,33
1501880958713564,9,-3,6,61,7,1,-2,-18
1501880958713564,-3,3,-2,-16,-8,-3,2,3
1501880958729565,23,-3,-15,-41,-6,-1,-1,7
1501880958729565,9,-1,17,11,6,-1,-2,-20
1501880958731563,4,-2,0,12,2,3,-3,5
1501880958731563,-31,-5,0,19,7,-2,2,0
1501880958752565,9,-4,-1,-8,2,2,7,-21
1501880958752565,-24,4,28,-16,-7,-2,-1,1
1501880958754565,-15,4,-1,12,7,2,0,-18
1501880958754565,6,0,25,-14,-3,-2,-7,-3
1501880958767566,-3,-3,-13,-8,-8,-2,2,21
1501880958767566,-8,-4,4,23,3,1,-3,-16
1501880958769566,-24,-3,1,-46,1,-2,-1,-8
1501880958769566,13,1,-7,-21,-7,-2,0,5
1501880958789569,-15,-2,12,45,-1,0,0,22
1501880958789569,-1,5,-18,10,-2,0,-4,-38
1501880958791583,6,-9,18,50,-3,-4,-2,2
1501880958791583,25,2,6,21,1,0,-3,9
1501880958812570,-34,-5,-4,-62,-3,-2,-4,-47
1501880958812570,19,0,-6,79,10,-1,2,45
1501880958814568,-15,-5,-27,-60,-14,-4,-10,-7
1501880958814568,-4,4,18,-28,6,5,7,-9
1501880958826570,14,-4,9,60,-10,-9,-5,-10
1501880958826570,-10,-7,-64,-107,-10,-1,0,14
1501880958833584,1,2,-1,16,4,1,2,-1
1501880958833584,-1,0,0,6,5,3,-4,-7
1501880958849572,32,4,-1,-18,0,-1,-2,29
1501880958849572,-9,-3,21,-11,-3,-3,-1,6
1501880958851570,2,0,-9,16,0,-2,3,-4
1501880958851570,-12,-6,-4,-26,-7,-3,-2,-4
1501880958872580,16,-1,12,20,-2,-5,-5,8
1501880958872580,25,0,-10,8,-1,-4,-9,-34
1501880958874573,-9,2,15,-34,-10,1,3,2
1501880958874573,40,-2,0,40,13,1,2,8
1501880958886573,-16,-4,29,-32,-15,-6,-5,2
1501880958886573,-10,-6,-29,-26,-4,-2,1,6
1501880958893574,18,10,8,15,9,4,0,-6
1501880958893574,-16,-9,-25,-22,-5,-4,-8,-15
1501880958909575,-7,-1,3,0,-1,0,2,25
1501880958909575,12,11,19,-9,5,6,-3,-11
1501880958911574,-21,-6,15,45,-5,-8,-1,8
1501880958911574,-4,-7,-6,-10,-7,-1,-2,-2
1501880958932576,-14,4,-35,-17,7,3,0,-17
1501880958932576,-2,-3,18,1,-3,0,0,-6
1501880958934574,16,-4,-24,-34,-9,-5,-1,17
1501880958934574,-30,4,23,28,-5,-4,-5,-24
1501880958946579,-8,-2,-26,3,5,3,2,-14
1501880958946579,-5,-5,-2,-60,-8,-3,-1,6
1501880958953579,-10,0,-18,-17,3,0,-2,4
1501880958953579,-5,-4,6,56,-6,-5,-7,-16
1501880958969578,-7,0,-9,1,2,1,2,14
1501880958969578,-17,-5,12,3,1,-4,-3,4
1501880958971583,1,5,-19,-18,7,5,5,-12
1501880958971583,-14,-2,0,-51,-17,-1,3,35
1501880958992579,40,4,1,23,4,-1,-2,35
1501880958992579,-34,-10,5,-62,-11,-3,-3,-37
1501880958994580,-4,-5,0,14,-3,-2,-1,-21
1501880958994580,4,8,-3,6,12,4,3,-9
1501880959006581,-8,4,8,16,-5,-4,-2,7
1501880959006581,-15,-2,41,21,3,2,2,-2
1501880959013581,7,0,-2,43,6,0,-1,23
1501880959013581,3,-13,-59,-86,-11,-3,-7,9
1501880959029581,39,5,21,-22,2,2,4,53
1501880959029581,-16,-3,6,87,-2,-4,-4,-11
1501880959031583,-2,-7,-21,-22,-7,0,-3,-9
1501880959031583,-13,8,28,35,7,-3,1,3
1501880959052583,-7,-1,15,25,10,4,-1,-21
1501880959052583,27,-1,-36,-20,-14,-5,-4,27
1501880959054583,-7,-2,9,-1,2,2,0,29
1501880959054583,18,-1,-6,13,1,-1,-4,-9
1501880959075600,-9,-5,2,-27,-1,0,0,-7
1501880959075600,22,9,13,92,17,6,14,45
1501880959076584,-26,-1,8,9,-3,-2,-3,-24
1501880959076584,27,1,1,-1,8,2,0,10
1501880959089585,-45,-13,-38,-33,-13,-4,-5,-45
1501880959089585,6,3,-5,-7,-1,-3,2,9
1501880959091599,19,1,-13,-9,-1,3,0,11
1501880959091599,-8,3,35,28,5,0,1,-10
1501880959112588,10,0,-14,3,4,2,3,4
1501880959112588,-19,-3,2,-33,-7,-5,-8,-26
1501880959118609,-4,7,28,1,-1,-3,0,5
1501880959118609,-14,-2,-24,33,-2,0,-5,-65
1501880959126588,-37,-3,35,1,-3,-2,-3,-22
1501880959126588,23,1,-22,7,5,3,2,-2
1501880959133614,-10,-5,-2,-58,-6,-4,-4,-14
1501880959133614,10,-4,-17,-3,-8,-4,1,18
1501880959149588,-19,1,19,-4,-3,-4,-2,-4
1501880959149588,-12,-3,-8,1,2,1,0,7
1501880959151588,-1,4,17,67,9,5,-1,-32
1501880959151588,-8,-1,8,-57,-8,-3,-1,23
1501880959172603,-16,-3,6,-23,-2,0,-3,-31
1501880959172603,-1,7,14,14,4,1,0,12
1501880959174589,8,1,-5,9,1,1,3,14
1501880959174589,-57,-5,-3,-34,-11,-4,-4,-28
1501880959186592,29,0,-20,17,-2,-4,-6,-10
1501880959186592,-5,-3,19,3,3,2,2,2
1501880959195591,-7,-7,5,10,-10,-6,-4,4
1501880959195591,-36,-2,-5,0,9,1,-3,-13
1501880959209592,12,6,25,28,5,4,2,10
1501880959209592,-3,-4,-39,-2,-2,-2,-2,-8
1501880959211592,4,-8,-20,-42,-9,-3,-2,2
1501880959211592,28,0,6,6,1,0,3,27
1501880959232652,-5,-1,-11,-20,0,1,-1,0
1501880959232652,16,0,21,23,-3,0,1,11
1501880959234607,4,2,-6,-16,0,0,1,12
1501880959234607,24,1,20,26,1,1,0,9
1501880959246611,-6,-5,-24,6,3,0,2,-4
1501880959246611,-3,-3,-6,9,-4,-2,-3,-2
1501880959255594,-4,3,18,-41,1,1,-1,-5
1501880959255594,6,-2,-6,4,-1,0,0,47
1501880959270610,0,-2,-5,-22,-5,-1,-2,-20
1501880959270610,-8,-2,16,-5,2,-2,-2,-17
1501880959271595,-13,-4,-31,57,-10,-7,-5,-19
1501880959271595,17,0,16,-22,4,-1,-1,8
1501880959292632,-1,0,-10,-27,-4,0,1,18
1501880959292632,-25,2,14,0,0,-2,-2,3
1501880959294596,2,-1,-5,17,4,1,2,14
1501880959294596,5,-5,-16,-13,-11,-4,-4,-37
1501880959306598,-4,0,5,27,2,-2,0,7
1501880959306598,10,0,16,-63,-7,-2,-2,-10
1501880959315612,1,-1,-7,12,6,0,1,9
1501880959315612,8,7,6,18,4,1,0,-3
1501880959329621,-7,-3,-15,-24,-8,-3,-2,-6
1501880959329621,11,-1,1,21,0,-2,-2,2
1501880959331599,5,1,11,-44,4,0,0,0
1501880959331599,5,-10,-25,-64,-11,-4,-2,1
1501880959352616,28,8,18,-9,8,2,3,26
1501880959352616,-28,-6,-16,23,-10,-6,-2,0
1501880959354610,3,0,-10,-51,-8,-1,0,-11
1501880959354610,-14,-4,27,39,5,0,-3,-26
1501880959366600,4,-3,-26,36,-3,-1,0,14
1501880959366600,3,0,15,-18,1,1,-1,4
1501880959375606,6,0,6,14,-3,1,1,19
1501880959375606,20,-4,-52,-5,-5,0,1,40
1501880959389602,-4,-7,-6,11,1,-1,-3,-11
1501880959389602,13,7,19,-9,7,3,0,0
1501880959391606,-14,-13,-44,40,-9,-5,-2,-15
1501880959391606,-5,3,36,49,7,-2,-2,0
1501880959412604,-9,0,33,-64,2,2,-1,10
1501880959412604,0,-22,-97,-72,-24,-11,-11,-4
1501880959413607,-1,10,13,-83,-3,-3,3,-8
1501880959413607,-12,4,4,27,2,3,2,4
1501880959426605,-22,2,32,49,4,-1,-1,-18
1501880959426605,13,1,0,-74,-1,2,1,-8
1501880959441606,29,0,-7,28,2,0,-1,32
1501880959441606,-15,-3,40,28,0,-3,-1,-5
1501880959449624,0,4,-62,-53,-3,2,2,-10
1501880959449624,4,4,21,9,8,2,-1,-16
1501880959451614,-3,-11,-9,36,1,-2,-3,-4
1501880959451614,3,13,5,-7,-1,0,2,20
1501880959472613,-31,-11,9,17,-2,-3,-3,-39
1501880959472613,-3,-10,-2,10,-2,1,-1,2
1501880959474607,8,-3,-14,-37,-4,-2,-5,10
1501880959474607,-3,-1,0,18,7,1,-1,-19
1501880959486615,17,-1,-15,46,-7,-3,1,12
1501880959486615,13,7,12,25,4,4,3,-4
1501880959495630,44,10,23,62,8,0,2,75
1501880959495630,-4,-3,-36,-59,-6,-2,-2,0
1501880959509616,6,-1,21,0,-16,-6,-1,11
1501880959509616,18,-5,-37,26,0,-2,2,40
1501880959511609,-21,4,33,22,4,1,-3,-36
1501880959511609,12,-3,-14,-48,3,-2,2,-2
1501880959532621,0,0,9,50,3,0,-5,-2
1501880959532621,7,3,-10,-23,-4,-1,2,-8
1501880959533630,-17,1,-3,-20,-5,0,-5,13
1501880959533630,-3,-9,-3,-20,-12,-5,3,2
1501880959546629,-18,-2,14,8,8,-2,-1,11
1501880959546629,2,2,29,67,-9,-4,0,-6
1501880959555620,-7,-2,-27,-32,1,-1,-3,-48
1501880959555620,9,0,7,24,2,3,0,-17
1501880959570616,45,-3,-13,-27,-1,-2,-4,45
1501880959570616,6,1,7,11,5,0,0,3
1501880959571612,-18,-2,15,60,2,1,0,-36
1501880959571612,25,-6,-23,-46,-10,-6,-6,12
1501880959592619,-11,4,0,7,1,2,5,-30
1501880959592619,-54,6,26,-56,5,2,0,-11
1501880959594615,-12,-7,-20,46,-11,-4,-1,-7
1501880959594615,24,3,32,28,1,3,0,21
1501880959614619,-24,-6,-21,-38,-5,-2,-4,-8
1501880959614619,5,0,17,40,6,1,0,0
1501880959616616,-18,-7,-25,-80,4,-4,0,-11
1501880959616616,-6,0,6,66,-5,1,-2,-2
1501880959629616,-15,-3,-42,26,2,-5,-3,-26
1501880959629616,4,2,-6,5,6,0,-1,-11
1501880959631618,-3,3,28,-30,-5,3,3,26
1501880959631618,-19,-6,-21,24,6,-3,-5,-32
1501880959652650,26,2,11,5,-6,1,0,26
1501880959652650,-10,-3,1,0,4,-1,-1,-4
1501880959653620,20,1,16,35,10,2,0,33
1501880959653620,15,2,-14,-40,2,0,3,8
1501880959674618,-36,-7,7,30,2,2,2,-12
1501880959674618,2,-2,-7,-19,-10,-5,-4,3
1501880959676619,30,-1,21,5,1,2,-2,18
1501880959676619,6,-2,3,1,-2,0,9,65
1501880959689620,-14,8,13,-2,11,2,-2,-41
1501880959689620,-17,-6,-8,-9,-11,-7,-5,33
1501880959691629,-23,-2,11,-47,-11,-3,-4,-39
1501880959691629,-6,0,-22,25,9,4,0,-2
1501880959712623,13,-3,-19,-36,-4,-3,-2,12
1501880959712623,5,7,25,26,4,4,1,-6
1501880959714621,-3,-11,2,47,-4,-7,-2,-13
1501880959714621,-15,-2,-16,-74,-13,-3,-4,-25
1501880959734622,0,-2,13,-17,-5,-2,-1,6
1501880959734622,1,-1,-17,-37,-3,-2,-2,-12
1501880959736623,-3,-2,-7,1,7,2,3,-1
1501880959736623,14,9,52,48,9,3,1,-12
1501880959749625,-13,-7,-41,-70,-20,-7,-4,-11
1501880959749625,48,-8,12,-17,-11,-7,-1,64
1501880959756624,-52,2,-15,12,0,-5,-4,-65
1501880959756624,-13,-3,31,38,7,4,2,-12
1501880959772626,22,0,-14,-48,-10,-3,-4,5
1501880959772626,-1,-1,-4,54,5,2,0,2
1501880959773625,5,-2,-17,-47,-4,0,1,2
1501880959773625,-23,-2,-4,33,-5,-7,-6,-18
1501880959794662,1,-1,12,15,3,1,1,6
1501880959794662,-4,4,-9,-2,3,1,1,-11
1501880959796626,18,4,17,17,5,3,0,19
1501880959796626,-1,-7,-38,-50,-8,-5,-2,38
1501880959809647,-7,-1,8,-6,0,-1,3,-11
1501880959809647,7,-1,8,3,-1,-3,-3,1
1501880959816630,17,5,-10,21,6,3,1,35
1501880959816630,-21,-1,5,4,-1,-3,-3,-11
1501880959832659,-1,2,0,57,10,0,-2,13
1501880959832659,-19,-2,-1,-43,-7,-2,-3,-24
1501880959833630,0,-7,-14,-10,-4,-1,1,-7
1501880959833630,5,4,27,-23,-3,-1,0,0
1501880959854630,2,-8,-5,-9,-3,-1,-1,4
1501880959854630,-11,3,5,-11,8,2,-1,-18
1501880959856630,3,-3,-4,23,3,-1,1,6
1501880959856630,-2,-10,-30,19,-17,-8,-5,-32
1501880959869636,5,9,31,17,5,0,-1,9
1501880959869636,14,-3,-46,8,5,2,-2,-23
1501880959876631,-11,2,33,-11,-3,-4,2,-21
1501880959876631,0,-1,-7,55,5,3,1,16
1501880959891645,21,-7,-25,-63,-8,-3,-1,-4
1501880959891645,2,-3,22,31,0,-2,0,1
1501880959892640,5,0,-6,-7,-4,-1,-4,7
1501880959892640,-2,5,15,2,9,2,1,-12
1501880959922635,0,-5,-14,-6,-4,0,0,9
1501880959922635,-10,-1,15,61,-3,-1,0,3
1501880959923633,8,-3,-33,-17,-5,0,-2,-10
1501880959923633,40,-1,-1,-3,-2,-3,-1,35
1501880959928637,-33,1,3,-28,1,-2,-2,-23
1501880959928637,8,-3,12,-15,0,-1,2,7
1501880959936633,-4,4,-8,-4,3,1,-1,11
1501880959936633,7,-6,-3,-25,-8,-2,-1,2
1501880959951654,1,-1,-13,15,5,1,-2,-53
1501880959951654,-9,-7,-5,11,-4,0,0,-8
1501880959952635,-5,0,35,26,-1,-3,-3,-1
1501880959952635,-7,3,-4,-24,4,2,0,-14
1501880959974637,1,1,15,24,3,0,0,15
1501880959974637,-4,1,-15,-9,-6,-4,-1,-9
1501880959975645,0,1,-12,-13,2,0,2,0
1501880959975645,-13,-9,-19,-4,-4,-3,-6,-18
1501880959988637,3,-1,7,9,-2,-4,-22,5
1501880959988637,6,1,-11,-13,2,5,34,7
1501880959996641,1,-2,3,-1,-1,-1,0,11
1501880959996641,-6,4,8,7,3,1,-7,-7
1501880960011641,-1,3,14,4,5,-2,7,9
1501880960011641,-7,-8,-30,6,-13,-7,-31,-35
1501880960012639,-1,-3,-8,-58,-10,-1,23,6
1501880960012639,-8,1,1,2,2,1,12,-5
1501880960033640,9,4,9,3,3,2,-2,3
1501880960033640,5,-1,15,3,5,-1,-14,3
1501880960041668,1,-4,-11,2,-6,-4,-9,12
1501880960041668,2,0,-5,-19,0,-3,-11,-10
1501880960048642,-21,-1,-3,42,1,0,7,-27
1501880960048642,3,4,12,-32,0,0,3,16
1501880960056641,-6,-7,-32,-9,-4,-3,-9,-24
1501880960056641,26,0,6,44,5,1,0,31
1501880960071643,-47,0,8,44,10,5,-1,-60
1501880960071643,33,8,15,-26,3,2,12,27
1501880960072643,-21,-11,-31,-38,-14,-2,1,-36
1501880960072643,20,1,2,-1,-8,-4,-10,80
1501880960094650,-4,7,10,-6,-1,1,20,-33
1501880960094650,-1,-11,-32,13,-5,-3,-5,4
1501880960094650,-14,3,45,43,1,-1,-8,-22
1501880960094650,-12,2,0,-25,5,2,5,-24
1501880960108645,27,2,-11,-8,-6,-1,-6,51
1501880960108645,4,-4,-5,83,9,1,-4,2
1501880960116644,-3,-4,-16,-33,-1,-4,1,43
1501880960116644,-21,-3,-5,-11,-13,-4,-3,-52
1501880960131650,8,-5,-3,-8,-2,-4,-12,26
1501880960131650,-16,1,13,-22,2,5,10,-25
1501880960132649,5,0,11,46,10,-2,-7,31
1501880960132649,-1,1,6,-6,-5,1,2,-42
1501880960154647,2,-2,-13,4,-2,1,7,5
1501880960154647,-8,5,13,11,-1,-2,-3,8
1501880960154647,30,-3,-27,-29,-5,-2,-9,1
1501880960154647,-11,-8,-18,8,5,0,-6,-13
1501880960168649,-8,0,32,4,-5,-3,-6,-8
1501880960168649,-24,2,-12,-47,-5,-1,9,-27
1501880960176649,23,-4,-1,5,-2,0,-5,16
1501880960176649,49,-2,-2,-3,6,1,8,19
1501880960191672,-40,-7,0,-14,-4,-3,-12,-60
1501880960191672,-10,1,-3,16,1,-2,-4,-5
1501880960199651,-12,3,8,10,2,-1,-1,-16
1501880960199651,0,3,14,-20,1,0,1,7
1501880960214650,22,-4,-18,-20,-12,-5,-1,37
1501880960214650,-4,-3,-12,-16,2,-2,-4,5
1501880960214650,-4,4,22,19,9,-1,-2,-12
1501880960214650,-17,-2,0,14,-3,-4,-8,-12
1501880960229652,13,-1,-14,0,-14,-4,13,29
1501880960229652,-6,-5,-14,-46,-23,9,0,-2
1501880960236666,1,5,29,10,1,-1,2,-2
1501880960236666,-12,-1,-7,7,4,-1,1,3
1501880960251652,4,-3,-10,4,5,-8,-5,10
1501880960251652,6,-3,1,-19,1,2,-3,6
1501880960252652,-1,3,0,7,4,2,1,-6
1501880960252652,-12,-1,3,8,42,-5,1,-5
1501880960274666,8,-5,-10,2,-42,3,-1,9
1501880960274666,-2,0,3,-7,-1,-11,-4,-3
1501880960275667,-5,-1,7,26,-2,-5,-3,-5
1501880960275667,-12,-2,-10,-11,-1,9,0,-7
1501880960288656,10,0,9,-1,13,-5,-3,13
1501880960288656,-2,-3,0,8,9,19,4,6
1501880960295669,-2,2,-5,-12,11,-13,-2,-7
1501880960295669,-3,-3,3,25,2,13,3,1
1501880960311657,4,-1,-1,-15,-19,0,2,6
1501880960311657,-2,3,5,2,40,-5,-3,-1
1501880960319687,-2,-3,-3,9,-14,-1,-3,-6
1501880960319687,-6,2,0,-2,-11,-9,-4,-7
1501880960334671,3,-2,3,-4,9,-4,0,6
1501880960334671,-2,-6,-4,-2,-3,-6,-5,-1
1501880960334671,-1,0,2,8,3,3,1,0
1501880960334671,0,5,-1,-8,-16,-3,0,1
1501880960356673,-1,-11,-4,-7,2,2,-3,1
1501880960356673,8,16,4,6,-10,-10,-3,3
1501880960357659,-4,-9,-3,-3,-16,1,1,-2
1501880960357659,-6,-7,-3,-10,7,-3,-1,-4
1501880960371669,-1,-12,-5,4,8,0,-1,0
1501880960371669,-2,-7,-2,-4,-2,-1,-5,-2
1501880960372665,1,11,-1,-5,-3,0,-2,-2
1501880960372665,0,5,1,7,-5,0,-2,1
1501880960395665,-1,-1,4,14,10,-3,-1,1
1501880960395665,-1,2,-4,-2,-17,0,3,1
1501880960396661,-2,-1,3,-1,6,1,0,-3
1501880960396661,0,-5,-7,-18,-21,8,1,1
1501880960416663,2,6,-14,-10,27,2,0,2
1501880960416663,-6,-18,7,-18,-28,-8,-5,-5
1501880960417663,-1,3,-6,8,18,5,2,-1
1501880960417663,0,9,19,1,-3,-5,-5,-2
1501880960432672,4,10,14,25,8,-5,-3,1
1501880960432672,-6,-19,16,0,-5,-3,-2,-4
1501880960439664,-5,-16,-25,-15,-29,3,1,0
1501880960439664,2,16,-12,-7,8,-18,-5,-3
1501880960454665,0,-6,3,-46,-7,22,6,0
1501880960454665,-7,-13,33,10,3,-6,-2,-3
1501880960454665,-2,-5,3,19,6,-3,-1,-2
1501880960454665,0,-2,-36,-21,9,10,6,0
1501880960476666,0,13,7,-2,-12,-10,-3,-1
1501880960476666,3,8,-17,-6,1,4,0,1
1501880960477667,-1,-3,17,0,-12,-4,-2,-5
1501880960477667,1,-1,-13,2,-1,-5,-1,0
1501880960491694,-2,-3,-5,13,4,-4,0,-3
1501880960491694,-2,-1,-6,-12,-7,2,-4,1
1501880960492667,1,13,2,-16,-2,-1,-2,1
1501880960492667,-6,-14,13,3,5,1,1,-2
1501880960514672,-3,-9,-8,20,16,-3,-2,-2
1501880960514672,-1,2,-12,-17,-27,0,1,-1
1501880960514672,-1,5,0,-2,6,-1,-2,-1
1501880960514672,-2,-6,-1,-2,-9,-2,-1,-1
1501880960536710,-1,-5,-3,-7,-9,-2,-1,-1
1501880960536710,1,12,-6,12,10,-3,-3,-2
1501880960537670,4,3,0,-3,2,-1,0,0
1501880960537670,1,4,14,3,-12,0,-1,-1
1501880960551674,-4,-9,-2,1,0,-2,-2,-2
1501880960551674,-1,1,11,5,9,-1,1,0
1501880960552674,-2,-10,-37,-4,-2,2,-1,0
1501880960552674,0,0,14,6,-2,-3,-2,-1
