timestamp,emg1,emg2,emg3,emg4,emg5,emg6,emg7,emg8
1501882053486119,4,3,-58,-69,-6,1,-1,-44
1501882053486119,74,8,87,90,2,0,5,47
1501882053488121,25,-7,0,36,-4,-4,-1,49
1501882053488121,4,-5,10,76,25,4,-13,74
1501882053509120,58,-7,9,-90,-16,-9,2,20
1501882053509120,-11,1,-18,67,-4,6,1,1
1501882053510129,-69,-5,31,45,1,-8,-4,-28
1501882053510129,68,6,-20,-125,-22,2,-5,5
1501882053531124,17,9,21,62,21,6,9,37
1501882053531124,-47,-14,-49,-109,-3,-2,-12,-37
1501882053533122,22,-7,24,57,-11,-4,13,9
1501882053533122,-58,-4,-46,19,2,-5,-11,-4
1501882053546123,24,15,34,82,17,0,-4,-59
1501882053546123,-31,-24,-41,-2,-22,-12,-8,-17
1501882053548124,-50,10,-4,-82,8,17,12,-25
1501882053548124,-11,-8,24,-2,6,-6,-18,-55
1501882053569125,-13,3,5,66,-3,-6,-7,7
1501882053569125,46,16,14,1,-1,7,11,15
1501882053570124,-16,-6,-2,7,3,-5,-10,-28
1501882053570124,-81,2,15,19,0,-2,0,16
1501882053591127,-24,-15,-22,-3,-9,2,7,-2
1501882053591127,52,6,23,-21,17,7,11,22
1501882053593126,1,6,41,85,10,-4,-11,4
1501882053593126,-38,-1,-19,-85,-40,-5,-6,32
1501882053605134,-32,5,5,7,-2,-3,0,-43
1501882053605134,10,-7,-12,7,8,-1,-7,6
1501882053614126,11,-2,-16,28,6,-1,7,18
1501882053614126,66,1,25,105,14,1,0,19
1501882053629128,-23,-7,-31,-87,5,6,4,40
1501882053629128,18,3,11,-45,-24,-7,-10,-12
1501882053630127,42,4,12,11,-6,-1,2,36
1501882053630127,-72,-1,-21,48,16,3,-4,-128
1501882053651142,30,4,25,88,1,-3,-2,27
1501882053651142,-4,-5,-29,11,-10,-4,-2,-13
1501882053653130,-69,-8,-18,-8,1,-7,0,25
1501882053653130,52,12,43,-42,13,10,10,87
1501882053674132,-13,-20,-30,-77,-11,-12,-12,-29
1501882053674132,32,7,-40,-42,-1,-1,-2,-15
1501882053675132,7,2,28,-8,2,3,5,-16
1501882053675132,-5,-3,2,26,1,-2,-11,-14
1501882053689139,-7,-13,-7,-13,11,2,3,12
1501882053689139,74,-1,-12,22,-4,1,5,108
1501882053690131,-13,7,-6,-91,-1,2,3,-39
1501882053690131,41,5,9,97,13,5,0,-1
1501882053712133,45,7,2,-48,-5,-2,1,56
1501882053712133,-57,-11,-4,-22,-7,-3,-6,-69
1501882053713134,11,6,15,91,20,8,-3,19
1501882053713134,25,-4,-4,-19,-18,-8,-2,-11
1501882053726135,-42,-5,-25,40,-1,-2,-7,-4
1501882053726135,-6,13,39,-15,-7,-2,-1,12
1501882053732134,23,6,-9,17,4,3,2,-15
1501882053732134,2,-14,-30,-92,-10,-7,-8,-61
1501882053749149,5,-1,8,-68,-6,-1,-7,-62
1501882053749149,-6,5,-18,-12,4,0,2,-5
1501882053750135,-17,-24,-82,-119,-42,-16,-15,15
1501882053750135,-28,6,11,-10,5,2,1,-19
1501882053771138,-13,-5,-22,42,3,-1,2,-5
1501882053771138,-38,-1,41,0,13,5,0,-36
1501882053773136,20,3,8,11,1,3,8,28
1501882053773136,63,3,-26,48,11,0,-5,13
1501882053786135,46,7,15,-22,-15,-4,3,90
1501882053786135,-54,0,10,100,4,0,-2,-31
1501882053792143,-58,-15,-56,-128,-27,-6,-1,6
1501882053792143,36,-1,20,34,5,1,0,27
1501882053809162,11,2,-13,-3,8,2,1,20
1501882053809162,-46,4,11,24,8,5,4,-44
1501882053810137,-30,0,16,18,-2,-6,4,3
1501882053810137,-10,5,20,11,-5,-1,-1,-22
1501882053831162,0,-7,-82,-124,-30,1,-3,23
1501882053831162,3,6,37,100,18,3,-4,-55
1501882053833167,41,-12,-12,1,5,-7,4,9
1501882053833167,-60,8,25,50,1,2,-5,-27
1501882053845142,0,6,37,91,12,0,-3,-63
1501882053845142,32,-14,-51,-56,-10,-9,-4,41
1501882053852179,47,4,67,107,6,4,-1,38
1501882053852179,17,4,-12,-6,-11,-5,2,74
1501882053869183,-57,-15,-1,26,-4,-6,-11,-38
1501882053869183,33,-2,-20,-56,7,2,8,8
1501882053870141,19,6,41,43,10,2,0,22
1501882053870141,20,3,-7,-67,-5,1,3,63
1501882053891148,-9,2,-12,-51,3,-1,-9,-78
1501882053891148,-14,-9,38,59,-11,-5,-2,16
1501882053893143,9,13,-24,6,3,2,1,4
1501882053893143,6,-6,18,-10,-2,-5,-2,-10
1501882053906144,25,-5,-33,57,7,1,-1,78
1501882053906144,34,7,5,5,-5,1,6,-81
1501882053912146,-17,-6,-18,-38,-17,-6,-9,-32
1501882053912146,-9,1,3,116,7,-7,-3,9
1501882053929156,-13,-3,4,-89,1,13,2,7
1501882053929156,-63,-7,-13,-20,-7,-6,0,-11
1501882053930146,83,-4,37,82,12,-5,-6,31
1501882053930146,-66,0,-9,-11,-2,3,3,-28
1501882053951186,-32,-6,8,41,12,1,4,-21
1501882053951186,29,7,5,-96,-6,-1,-8,6
1501882053953166,-30,-10,-81,-55,-10,-5,-2,-23
1501882053953166,-6,0,29,73,1,-7,-10,-109
1501882053965147,-7,-5,-24,-71,-14,-2,2,25
1501882053965147,-26,2,-23,69,17,2,0,35
1501882053981149,-25,3,25,-5,0,2,-2,21
1501882053981149,54,3,-19,-124,-15,1,4,39
1501882053989169,-16,2,25,49,3,-5,-1,5
1501882053989169,39,0,10,-27,-1,3,5,23
1501882053990148,-40,8,28,70,21,12,8,22
1501882053990148,-16,-14,-28,-7,-8,-2,0,24
1501882054011152,1,-6,5,33,-16,-10,-9,0
1501882054011152,-6,9,17,-27,-3,-3,-4,-27
1501882054013155,-6,1,1,45,5,0,0,-29
1501882054013155,84,-7,15,-6,6,1,5,75
1501882054025179,-8,14,8,11,6,6,8,-17
1501882054025179,-7,-4,9,32,-3,0,-3,13
1501882054034152,14,-7,-55,-128,-8,0,0,48
1501882054034152,-24,-6,-6,-15,4,0,-3,-36
1501882054049217,37,3,13,74,10,-2,4,16
1501882054049217,6,3,3,-107,-12,-2,-2,34
1501882054050157,35,3,1,23,2,-1,3,36
1501882054050157,-65,-12,-25,-73,2,2,-5,-30
1501882054071173,21,-1,14,61,7,1,0,33
1501882054071173,-28,3,15,85,2,4,0,-65
1501882054073155,-51,0,13,-23,-13,-9,-6,-55
1501882054073155,1,-7,-35,4,6,5,2,15
1501882054094156,55,-3,1,21,3,0,3,28
1501882054094156,33,5,-1,57,3,-2,2,33
1501882054095155,15,4,25,-36,-4,1,-2,13
1501882054095155,-7,-3,-38,-35,-3,-1,-1,-30
1501882054116159,-14,7,17,6,-4,-2,1,-15
1501882054116159,33,0,-23,-33,6,4,1,23
1501882054118156,-9,-21,-36,-96,-15,-6,-9,8
1501882054118156,6,4,39,58,7,1,5,12
1501882054131181,13,6,-12,-53,-10,2,2,43
1501882054131181,-50,-10,-1,20,-3,-6,1,-54
1501882054133163,-7,-1,-4,-50,-15,-1,-3,-12
1501882054133163,6,5,5,14,-3,4,8,24
1501882054145169,-24,-4,-9,-39,-10,-6,-12,-18
1501882054145169,43,2,-3,17,11,1,3,70
1501882054154159,2,7,27,44,8,6,0,-38
1501882054154159,-21,-1,-13,79,-4,-6,3,11
1501882054169160,10,4,-15,-83,-3,0,0,-37
1501882054169160,-9,4,19,1,-5,-3,-7,-10
1501882054170160,-4,9,5,-6,7,3,4,11
1501882054170160,-12,-14,-40,-46,-12,-12,-11,-43
1501882054191163,8,2,21,38,12,7,4,-6
1501882054191163,-40,-9,-15,66,9,2,0,7
1501882054193161,-50,-8,-27,-76,-13,-4,-2,-51
1501882054193161,3,5,3,55,-9,-1,-2,-15
1501882054205167,-16,4,23,8,-1,-6,-3,-18
1501882054205167,15,0,6,-36,-8,-4,0,-3
1501882054214162,-15,0,-12,67,5,0,-5,-69
1501882054214162,4,2,17,13,6,0,3,56
1501882054229163,-22,-14,-21,-31,-11,-4,-9,-90
1501882054229163,14,-1,-10,-98,-13,-2,-5,65
1501882054230163,20,5,-2,103,14,5,0,3
1501882054230163,44,14,-11,-75,4,2,4,36
1501882054259166,-34,-1,47,65,-13,-8,-9,-76
1501882054259166,-19,4,1,-46,4,3,4,10
1501882054260164,-8,6,21,8,3,-2,1,-3
1501882054260164,-36,-12,10,-20,-3,2,-8,-66
1501882054265167,29,5,-9,41,4,2,6,86
1501882054265167,7,-8,-6,-23,-4,-6,-3,-39
1501882054274166,15,3,8,19,-2,-1,-3,-13
1501882054274166,6,3,-6,8,10,1,1,7
1501882054289167,-4,-5,1,-96,-14,-3,2,7
1501882054289167,-3,-5,-23,96,-5,-2,-3,4
1501882054290170,-8,4,38,55,9,0,-2,25
1501882054290170,39,-2,8,-125,-10,-4,-2,-12
1501882054311189,-19,-4,-34,-4,4,2,1,15
1501882054311189,-7,4,15,40,16,2,-3,-17
1501882054317189,11,-5,-15,15,-22,-8,-7,17
1501882054317189,-39,-7,18,36,-6,-7,-11,-35
1501882054325173,13,-2,14,-47,-6,-4,-8,-59
1501882054325173,2,-3,-58,-19,-7,-2,1,3
1501882054334178,1,-11,4,10,8,-1,-1,7
1501882054334178,20,1,-23,60,0,-4,-5,-15
1501882054349190,-7,-6,8,-55,-13,-6,-3,18
1501882054349190,12,8,30,25,9,3,3,13
1501882054350169,14,-7,1,28,14,6,9,6
1501882054350169,-15,-12,-51,-37,-26,-7,-4,-25
1501882054371213,28,7,3,76,11,0,-1,32
1501882054371213,-23,-13,-27,-59,-8,-2,-1,-12
1501882054373173,3,-1,-13,-27,-3,-7,0,47
1501882054373173,30,-1,29,-52,4,3,-4,-47
1501882054393172,-2,0,-10,35,4,1,3,7
1501882054393172,-18,-5,3,-29,-7,-7,-7,1
1501882054400211,27,-2,-8,-5,1,-3,-2,16
1501882054400211,-1,13,36,111,17,0,2,35
1501882054409173,-12,-12,-63,-128,-20,-1,-1,1
1501882054409173,29,-2,-1,65,10,6,6,64
1501882054410173,-16,-7,4,18,4,-6,-5,-7
1501882054410173,35,18,26,-41,-2,0,5,39
1501882054439185,-49,-9,-22,-4,-9,-7,-6,-51
1501882054439185,-11,5,14,-17,1,4,3,10
1501882054440178,-48,-21,-34,-26,-4,-2,-6,-42
1501882054440178,1,5,31,46,8,5,5,90
1501882054454175,21,8,30,91,10,1,1,-1
1501882054454175,0,-8,-46,-6,-10,-6,-7,-15
1501882054456188,-19,4,8,-13,3,1,5,44
1501882054456188,32,-6,-6,21,3,3,-1,-6
1501882054469179,-14,-2,12,-28,-17,-3,2,9
1501882054469179,26,-8,-2,14,-5,-9,-7,-2
1501882054470178,11,3,7,-15,-2,3,4,46
1501882054470178,-42,-4,-40,11,-4,-1,-2,-41
1501882054491182,40,1,1,87,20,3,-1,-14
1501882054491182,7,-2,18,-66,-20,-4,-4,-17
1501882054493179,-14,3,20,6,-12,-5,-6,-29
1501882054493179,-8,-7,-20,-9,5,2,8,71
1501882054514198,-4,5,27,-1,-2,2,2,7
1501882054514198,2,-2,-16,-13,0,3,5,-8
1501882054515181,9,3,-4,12,3,-2,-7,-50
1501882054515181,-21,0,-1,-42,-9,-6,-2,21
1501882054529202,18,-2,-5,-64,1,2,1,16
1501882054529202,-18,4,-3,42,0,-2,-5,-9
1501882054530180,-1,-2,5,-46,-6,-9,-1,2
1501882054530180,-3,-6,6,82,4,3,-3,-40
1501882054551241,-10,5,-3,-13,12,5,6,11
1501882054551241,-3,0,26,4,0,0,-3,-20
1501882054553183,-14,-2,3,-38,2,0,0,-49
1501882054553183,-31,-2,2,18,1,-1,-6,-79
1501882054574182,-2,-6,1,-42,-6,-7,-6,18
1501882054574182,-8,3,15,-4,3,0,-3,-41
1501882054575182,33,8,-6,-6,-8,2,3,2
1501882054575182,-7,-9,-27,-64,-11,-6,-1,26
1501882054588191,24,3,3,46,9,2,1,59
1501882054588191,-25,-1,16,-10,6,-2,-3,-84
1501882054595205,12,-1,-32,22,-7,0,-1,10
1501882054595205,16,-3,5,-31,-5,-3,-9,-15
1501882054611184,22,7,-8,22,0,-1,-3,-11
1501882054611184,-1,-9,3,49,5,-3,2,65
1501882054613204,5,9,17,2,-8,2,-3,-64
1501882054613204,-4,0,0,3,3,1,3,-25
1501882054634189,-24,-7,3,18,4,0,2,30
1501882054634189,10,-2,-19,1,0,3,1,3
1501882054635189,-6,1,8,62,2,-3,3,14
1501882054635189,-6,-5,8,-19,2,-2,2,92
1501882054648216,-56,4,2,-21,0,-2,-1,-37
1501882054648216,26,11,37,59,18,9,5,30
1501882054655257,-14,-9,-27,-28,-9,-6,-6,7
1501882054655257,16,0,-2,-13,-18,-6,1,25
1501882054671225,14,-9,-28,-22,3,4,4,11
1501882054671225,-37,7,12,-52,2,2,1,-15
1501882054673191,-6,-7,-13,49,4,-4,-5,7
1501882054673191,-17,2,22,-2,2,-2,-5,-50
1501882054694196,16,0,1,-19,-6,-4,-4,1
1501882054694196,25,-2,-12,62,3,-4,0,-6
1501882054695189,9,0,-13,-75,-25,3,4,24
1501882054695189,35,4,20,3,3,1,-1,-16
1501882054708211,-26,-2,-37,34,0,-2,3,5
1501882054708211,-37,0,11,2,-4,-2,-5,-22
1501882054715191,-3,-2,-16,-51,12,2,-4,-13
1501882054715191,-5,2,23,42,-5,-3,-1,31
1501882054732217,-19,2,-9,25,-3,1,1,-31
1501882054732217,-16,-3,-7,28,-5,-5,-6,-1
1501882054737201,-29,1,-15,-86,5,5,5,13
1501882054737201,44,-7,-8,-80,-24,-6,-3,28
1501882054754230,12,-1,16,21,1,-3,-3,-7
1501882054754230,10,2,-10,-13,-9,-2,1,14
1501882054755199,-19,-5,9,33,9,1,0,9
1501882054755199,12,9,8,10,9,5,-2,-30
1501882054768228,-34,-1,-19,33,0,-5,-2,-19
1501882054768228,25,3,19,-80,-1,-2,-2,20
1501882054775215,9,-1,12,44,0,1,1,9
1501882054775215,-42,-6,-18,62,-2,-5,-5,-61
1501882054791197,-14,-4,1,-21,-7,0,-1,21
1501882054791197,35,6,25,45,9,3,1,28
1501882054793196,-3,-1,-12,21,6,1,0,-6
1501882054793196,-5,-4,-25,-81,-8,-1,1,10
1501882054814201,-31,-1,1,15,0,-2,-7,-78
1501882054814201,-12,-2,7,53,5,1,0,37
1501882054815196,44,0,-9,-51,-21,-6,-1,24
1501882054815196,-24,-4,-1,47,2,-1,1,-13
1501882054828198,35,-1,13,9,5,4,1,23
1501882054828198,16,-1,-8,-26,-12,-4,-1,20
1501882054836206,3,-9,-25,-61,2,1,-1,15
1501882054836206,-22,8,14,68,11,1,1,14
1501882054851241,3,-14,-25,-49,-9,-9,-8,-68
1501882054851241,-17,0,7,22,1,0,3,35
1501882054853202,-10,7,5,36,7,-1,2,7
1501882054853202,4,-5,3,-60,3,5,1,-12
1501882054874220,40,-4,-21,-45,-9,-1,0,29
1501882054874220,-22,-8,-16,-2,0,-2,-4,0
1501882054876204,5,1,26,25,1,-2,-5,-20
1501882054876204,55,8,18,-29,3,1,-2,48
1501882054887226,9,-8,-29,8,-6,-6,-3,-36
1501882054887226,15,-6,-22,-20,-2,-2,1,-10
1501882054896201,-5,2,15,31,-6,-2,-1,17
1501882054896201,-7,1,-13,-17,-6,-2,-2,-59
1501882054911206,-5,6,44,47,10,1,-8,-29
1501882054911206,-22,-15,-44,-83,-25,-11,-9,-35
1501882054913202,4,5,34,32,13,5,2,-43
1501882054913202,-27,-5,-15,42,8,1,-1,11
1501882054934242,24,15,8,-72,-17,-2,5,78
1501882054934242,-33,-14,-50,12,-13,-6,-6,-66
1501882054935204,15,2,15,15,1,0,0,-15
1501882054935204,-30,-3,-2,-21,6,4,0,-10
1501882054947204,11,-4,-36,20,-5,-2,2,27
1501882054947204,32,9,50,108,23,5,7,80
1501882054956206,21,-11,14,-25,-13,-6,-8,-19
1501882054956206,4,-5,-33,-37,-26,-12,0,4
1501882054971248,14,1,31,27,11,6,3,36
1501882054971248,16,3,-14,-44,-4,5,5,8
1501882054973207,8,0,-23,24,5,-4,0,80
1501882054973207,-17,7,48,19,12,0,-3,-31
1501882054994208,-7,-10,-23,-50,1,2,2,-10
1501882054994208,-7,-4,4,-22,-5,-1,-4,-29
1501882054995207,19,1,30,33,3,-2,-3,1
1501882054995207,3,-3,-12,51,11,1,-2,10
1501882055007218,-12,-2,-11,-74,-18,-5,-1,21
1501882055007218,3,-3,1,30,3,-1,-5,8
1501882055016208,-36,-3,-39,0,-4,2,2,-30
1501882055016208,11,-3,5,-38,-10,-6,-4,25
1501882055031240,-9,4,40,114,13,1,-1,-9
1501882055031240,14,-4,-12,-51,-1,3,2,14
1501882055033212,-20,-6,-15,-75,-10,-9,-4,-17
1501882055033212,-23,-3,19,71,11,7,5,70
1501882055061212,-3,-3,13,-29,-3,-5,-6,-9
1501882055061212,11,-1,-13,-71,-9,0,0,-10
1501882055063212,-22,-1,-13,54,-1,0,-5,-21
1501882055063212,27,-4,-6,-23,-2,0,2,0
1501882055067212,-21,-1,26,6,3,-3,-4,1
1501882055067212,2,7,0,48,6,-1,2,5
1501882055076212,-2,15,63,73,13,3,0,-16
1501882055076212,-29,-14,-70,-97,-23,-4,-1,-14
1501882055091212,-5,1,7,-22,-5,-4,-2,43
1501882055091212,-9,-2,2,-48,-1,-3,-1,-59
1501882055093216,-31,-3,-7,9,3,0,0,14
1501882055093216,27,1,4,40,12,3,-2,-41
1501882055114233,-11,-7,-27,-31,-11,-1,1,-18
1501882055114233,-5,-3,-4,30,-7,-3,-3,96
1501882055115216,1,-1,-3,-26,-1,-3,-2,-30
1501882055115216,8,0,21,10,4,0,3,2
1501882055127216,17,13,26,38,7,3,0,-21
1501882055127216,-13,-5,-40,-1,1,0,1,-16
1501882055142218,18,0,6,-26,-9,-1,0,61
1501882055142218,11,-3,15,-19,-4,-6,-4,12
1501882055151234,-12,1,13,38,5,-1,0,-8
1501882055151234,-5,-3,3,18,-11,-3,-5,-81
1501882055153217,3,-1,-13,-16,6,4,4,8
1501882055153217,5,2,-15,20,16,2,-2,-13
1501882055174219,17,5,35,62,-6,-5,-1,9
1501882055174219,-4,3,-10,-15,5,3,4,7
1501882055175219,31,-1,2,-12,-6,-3,-1,1
1501882055175219,-32,1,-15,26,3,3,-1,-21
1501882055187219,24,-4,-11,-43,0,-4,-3,-17
1501882055187219,-12,0,-15,-47,-4,1,0,40
1501882055196219,-7,-10,1,-8,-12,-5,-2,-70
1501882055196219,21,11,14,22,5,3,3,18
1501882055211220,-37,-4,-17,13,5,0,-1,-3
1501882055211220,19,-5,12,-17,-3,-4,-5,17
1501882055213221,-7,0,-4,73,-6,1,3,-4
1501882055213221,-9,0,-12,-68,-4,1,-2,-16
1501882055234222,-1,-6,-10,-34,-18,-6,-7,-62
1501882055234222,-6,0,20,17,0,4,4,10
1501882055235221,11,9,6,11,4,-1,-6,-10
1501882055235221,-25,-5,-9,14,-5,-2,-2,-29
1501882055248224,3,-2,35,25,4,3,2,13
1501882055248224,4,7,2,-29,7,0,1,29
1501882055256225,16,1,39,54,-4,-5,-2,18
1501882055256225,17,-3,-52,-12,0,0,0,-34
1501882055272238,-22,7,10,-9,-4,3,1,-9
1501882055272238,11,-6,0,11,3,-3,-5,-17
1501882055273226,-16,-7,-14,-49,-6,-1,0,6
1501882055273226,26,-3,5,-45,-8,-3,-2,46
1501882055294226,6,-2,-5,102,9,-1,0,48
1501882055294226,-17,3,12,-51,2,1,-1,-30
1501882055295226,-20,-5,-5,113,12,-2,-3,-22
1501882055295226,-17,2,17,-50,-12,-3,-3,-2
1501882055307250,5,-7,-25,-48,-11,-5,-4,-81
1501882055307250,-4,1,10,-62,-7,1,-2,5
1501882055316226,-27,-6,-20,-36,7,5,-3,-24
1501882055316226,2,-11,-2,-20,-9,-9,-6,60
1501882055330227,17,0,-26,-11,-3,-1,2,-13
1501882055330227,3,4,14,10,5,3,-2,19
1501882055337229,14,0,11,-21,0,0,1,-11
1501882055337229,-26,-1,7,40,1,1,-3,-9
1501882055354232,3,-7,-29,-32,3,0,1,31
1501882055354232,-1,12,40,91,13,1,4,-12
1501882055355229,0,-16,-56,-128,-20,-4,-5,8
1501882055355229,-21,1,32,127,3,-5,0,-20
1501882055378229,25,-7,-37,-54,-5,0,-2,60
1501882055378229,-45,1,-7,39,-9,-7,-3,-88
1501882055379233,-10,0,-5,0,2,-1,0,4
1501882055379233,-2,-3,-16,-43,-4,2,3,-28
1501882055391232,-17,-4,-3,49,9,-2,-4,-5
1501882055391232,24,2,-4,-30,-3,3,4,25
1501882055393235,3,-1,13,7,-1,-2,0,2
1501882055393235,-9,1,-6,-27,-6,-3,-1,-19
1501882055414233,31,11,38,-62,-2,2,-1,-46
1501882055414233,-4,-13,-44,-58,-10,-5,-4,-2
1501882055415232,-10,-9,-5,47,8,-1,-2,-23
1501882055415232,5,2,11,55,4,5,2,-8
1501882055436274,-36,-1,-8,5,-11,-4,-4,15
1501882055436274,-49,0,12,-26,-14,-5,-2,-26
1501882055438232,30,2,-3,-81,-5,-4,-7,-17
1501882055438232,-11,4,36,12,4,1,3,1
1501882055451272,-5,-8,-42,20,15,5,3,7
1501882055451272,23,0,-18,33,-11,-6,-3,51
1501882055453254,-3,-6,-26,-77,-4,0,0,18
1501882055453254,7,-2,31,57,6,3,1,-20
1501882055474256,-31,2,-9,13,2,0,1,16
1501882055474256,30,-4,10,-4,0,0,0,-13
1501882055475235,36,17,35,47,8,2,6,77
1501882055475235,37,-3,-4,-46,-5,-1,-3,-13
1501882055496279,-24,-6,4,-18,-4,-2,-4,-5
1501882055496279,5,-7,-24,41,9,3,-1,-39
1501882055498236,-12,5,12,40,-2,0,2,-1
1501882055498236,-34,-10,-18,22,9,-1,-3,24
1501882055510257,25,2,4,51,-6,-1,1,21
1501882055510257,14,4,7,-37,-10,-6,-2,5
1501882055517238,-14,-4,12,-8,0,1,0,27
1501882055517238,12,0,-43,2,-3,-2,-1,-11
1501882055534260,-12,12,48,-13,9,2,2,9
1501882055534260,-9,-7,-10,67,9,3,0,-11
1501882055535238,-11,-5,-46,-88,-14,-4,1,-9
1501882055535238,9,-4,1,-6,-3,-1,-3,30
1501882055556243,16,-4,1,22,1,-2,-7,-2
1501882055556243,1,6,9,-22,4,-1,-1,22
1501882055558257,-14,2,5,11,9,2,0,-22
1501882055558257,34,1,-12,-50,-9,-1,-3,24
1501882055570294,-25,-5,8,-18,-7,-1,0,-18
1501882055570294,-1,5,27,65,10,3,2,4
1501882055577240,3,-14,-42,-15,-4,-1,-4,-20
1501882055577240,-22,2,-3,-30,-1,-2,-1,-16
1501882055594263,25,-3,-16,-42,-8,-2,-1,6
1501882055594263,-16,3,22,-7,6,0,-2,-55
1501882055595242,5,2,19,91,-14,-1,1,21
1501882055595242,-25,-5,-27,22,1,-3,0,43
1501882055616302,-24,0,0,37,1,1,0,-30
1501882055616302,2,-10,-1,-19,-8,-8,-4,22
1501882055618245,-6,2,5,3,4,5,-2,-4
1501882055618245,-19,0,4,-32,-1,0,1,-13
1501882055630244,20,4,8,90,3,2,1,28
1501882055630244,-13,-16,-36,-76,-12,-8,-4,27
1501882055639246,-4,6,17,13,6,-1,1,-10
1501882055639246,-16,-3,4,3,2,0,0,13
1501882055654247,8,1,-5,-51,-4,-4,-3,-37
1501882055654247,2,6,29,33,9,6,4,3
1501882055655247,18,-1,-20,7,-9,-5,-1,9
1501882055655247,41,1,11,26,-6,0,5,-19
1501882055676267,-52,-11,-40,-26,-1,-4,-5,-41
1501882055676267,-5,2,-3,2,2,1,-2,-13
1501882055678257,-14,4,26,52,8,-1,0,-8
1501882055678257,15,5,12,-26,3,4,3,3
1501882055691249,9,-1,4,-52,-11,-1,2,19
1501882055691249,25,-1,24,30,1,-1,0,36
1501882055697280,0,-3,-7,-14,1,0,-1,-76
1501882055697280,-8,1,-4,-19,0,-2,0,-18
1501882055714266,1,3,19,-1,4,4,3,-11
1501882055714266,-19,-4,-30,1,0,-5,-6,-31
1501882055715252,0,-1,17,16,8,6,1,32
1501882055715252,24,-2,-15,-25,-5,-3,-4,5
1501882055737251,5,4,18,-10,0,0,3,4
1501882055737251,-17,-5,-26,43,0,3,1,-13
1501882055742256,-13,-3,19,-58,-14,-5,-2,25
1501882055742256,7,-5,-13,1,-5,-6,-6,-56
1501882055750289,0,-1,-16,-27,0,-1,0,41
1501882055750289,-6,9,30,63,1,-1,-2,-62
1501882055757253,2,-10,-40,-22,0,1,0,17
1501882055757253,-13,2,24,-22,-5,-1,-2,19
1501882055774274,1,-4,-11,25,-1,-4,-4,2
1501882055774274,-8,-1,-5,-53,-5,0,2,14
1501882055775252,19,0,-10,-76,-1,2,1,17
1501882055775252,-30,-2,27,124,3,-3,-2,-18
1501882055796286,22,3,-5,-84,-8,-2,-2,8
1501882055796286,0,-3,-5,-76,-8,-4,-3,19
1501882055798255,10,-2,-16,32,5,-2,0,30
1501882055798255,6,3,-13,-58,-9,-2,-4,16
1501882055810255,-16,-4,25,116,17,-1,2,-2
1501882055810255,18,4,8,-20,-4,3,0,-11
1501882055817291,-19,-14,-52,-95,-16,-8,-6,-8
1501882055817291,19,-4,7,60,3,-5,-6,24
1501882055835257,-21,-5,-5,4,-3,1,-1,-15
1501882055835257,-6,1,14,2,0,-2,1,32
1501882055837257,-6,6,14,127,13,6,-1,-32
1501882055837257,-16,-3,-20,-102,-21,2,0,-4
1501882055856261,-7,-7,11,54,3,-4,-4,6
1501882055856261,18,-6,-28,-15,-11,-5,-3,30
1501882055858263,-24,4,12,37,3,3,6,-10
1501882055858263,-32,0,-9,-39,11,2,-2,-33
1501882055870315,8,1,10,0,-11,-1,-1,23
1501882055870315,20,3,-2,-9,0,-6,-6,-94
1501882055879279,28,-5,-12,-33,-3,-7,-5,2
1501882055879279,27,7,-2,-10,5,2,3,32
1501882055894260,-59,-1,12,5,12,3,-2,-50
1501882055894260,-13,-13,-40,6,-25,-4,-3,0
1501882055895260,-17,6,46,38,3,-1,-2,-12
1501882055895260,-23,-8,-33,-35,-11,-9,-3,39
1501882055916293,27,10,4,13,5,6,1,-18
1501882055916293,-3,-4,-9,-22,6,4,8,36
1501882055918301,2,4,36,51,1,0,-2,-32
1501882055918301,23,-4,-25,-44,-3,-1,0,0
1501882055939284,24,-1,-8,69,1,-5,-5,39
1501882055939284,-4,1,26,-64,1,2,1,66
1501882055940263,-3,0,-7,-47,-4,-1,1,0
1501882055940263,-1,1,35,57,5,0,0,-15
1501882055954264,17,0,-26,-16,1,2,2,7
1501882055954264,-19,-4,1,-11,-3,-1,-1,-41
1501882055955263,19,-3,-16,0,-4,-3,-2,9
1501882055955263,-54,-5,19,-11,-4,-4,-5,-28
1501882055976286,-18,-2,-35,-45,-8,-2,1,-64
1501882055976286,-30,-1,21,85,10,-2,-1,28
1501882055978264,1,-4,-16,-55,-9,-3,-2,9
1501882055978264,-6,-11,-40,-32,-8,-7,-4,-29
1501882055990266,37,1,21,8,3,4,2,110
1501882055990266,-56,-3,26,63,7,0,-3,-56
1501882055999269,-1,3,-15,-57,-9,-4,-1,2
1501882055999269,17,-4,6,18,8,-1,0,7
1501882056014267,3,5,11,-36,-5,0,2,23
1501882056014267,36,-5,-42,-21,-4,-5,-3,9
1501882056015268,-15,-8,-7,-25,0,-1,-3,-9
1501882056015268,22,6,9,46,9,7,4,8
1501882056036269,5,-6,-2,-21,-9,-5,-3,-20
1501882056036269,21,6,-1,70,6,4,2,-8
1501882056038275,-3,-4,5,21,1,-5,-3,28
1501882056038275,-19,2,12,-40,-10,2,3,-8
1501882056050271,18,-2,2,-9,3,-3,-2,-25
1501882056050271,7,2,10,20,4,1,4,44
1501882056059280,-2,5,9,16,-6,-1,-5,-47
1501882056059280,9,-6,-6,-26,-6,-5,-3,44
1501882056074271,-26,-9,-14,-19,-5,-4,-2,4
1501882056074271,24,0,3,-61,-3,3,1,16
1501882056075270,-9,6,9,34,9,-1,0,0
1501882056075270,8,1,6,58,3,-7,-6,-15
1501882056096275,-56,-4,-1,-14,4,6,-2,-34
1501882056096275,10,3,-1,5,-4,-4,0,-14
1501882056098273,1,-5,-8,43,5,3,1,10
1501882056098273,-15,1,-12,-67,-9,-2,-1,-17
1501882056110273,16,-1,2,38,1,-5,-1,60
1501882056110273,0,6,8,-7,8,4,0,-53
1501882056126273,-29,-15,-29,20,-2,-2,-1,42
1501882056126273,20,2,-4,-56,-17,-1,-2,8
1501882056134274,2,-1,-35,3,-2,-4,-5,-36
1501882056134274,-9,3,41,8,0,0,-5,-41
1501882056135284,11,3,-12,-1,0,-1,3,1
1501882056135284,-27,-5,-13,51,16,5,4,-29
1501882056156277,-7,-5,6,-13,-4,-5,-4,6
1501882056156277,14,-2,8,7,-1,-3,-2,32
1501882056158276,10,9,7,-15,-1,2,0,-4
1501882056158276,-12,-2,-11,44,1,0,1,-11
1501882056170277,8,-4,15,-18,-4,-1,0,18
1501882056170277,7,-2,-31,26,8,-3,0,98
1501882056179276,-20,-9,-5,-47,-12,-1,0,-2
1501882056179276,22,0,13,56,1,0,2,23
1501882056193277,-11,9,2,-5,-1,2,2,-33
1501882056193277,10,-11,6,13,3,-1,1,-7
1501882056201277,-8,7,5,23,5,4,-1,-48
1501882056201277,-6,-5,18,-24,-2,0,-6,11
1501882056216278,5,-12,-45,-4,-11,-6,-1,-19
1501882056216278,-11,-7,-23,13,-2,1,1,16
1501882056218280,44,7,11,32,3,0,2,70
1501882056218280,-27,-3,-9,-10,-4,-4,-4,-80
1501882056230280,17,2,31,37,13,2,1,11
1501882056230280,-18,-9,-42,-78,-17,-5,-4,-15
1501882056239280,1,-4,25,14,-6,-2,-4,11
1501882056239280,0,5,4,43,2,4,2,6
1501882056254281,-15,3,16,15,0,-2,-2,-34
1501882056254281,-9,-1,-2,-12,0,2,-1,15
1501882056255280,0,-6,-15,-46,5,-1,-2,-56
1501882056255280,13,9,36,85,-1,-2,0,32
1501882056276284,0,-1,-13,-27,-10,-5,-5,-52
1501882056276284,11,-7,-25,67,9,1,-2,1
1501882056278283,-8,8,22,-90,-4,3,5,55
1501882056278283,5,-5,-2,-99,-14,-5,-9,-32
1501882056298284,-7,2,15,31,4,3,4,6
1501882056298284,-19,0,19,-12,-5,-3,-4,-34
1501882056300285,-12,1,4,36,4,-1,-1,10
1501882056300285,12,-4,-26,-47,6,4,1,5
1501882056314286,-6,-2,-13,29,-7,-6,-4,31
1501882056314286,-5,5,32,40,-3,-1,-3,-24
1501882056315284,-28,-9,-32,-26,-6,-3,-7,-23
1501882056315284,12,5,23,28,9,3,7,8
1501882056336302,4,-9,-14,-28,9,6,-1,3
1501882056336302,18,13,-5,-26,-6,3,4,2
1501882056338287,-2,-13,0,-18,-6,-11,-5,26
1501882056338287,8,2,6,10,-7,-5,-9,-70
1501882056359287,11,0,9,-13,-2,-2,2,38
1501882056359287,11,2,-1,-12,0,1,2,6
1501882056360288,10,7,9,23,2,2,2,31
1501882056360288,1,-5,-33,-23,2,3,3,42
1501882056373293,13,2,15,17,9,1,-1,-8
1501882056373293,-12,-2,-11,-6,-3,-4,-4,-29
1501882056375287,2,-3,5,-16,-3,0,-1,-18
1501882056375287,13,-3,-9,39,-5,-13,-5,23
1501882056396304,-10,6,21,-40,-3,9,1,-6
1501882056396304,-10,-10,-36,25,4,-1,-3,11
1501882056398293,20,9,39,78,12,-1,-3,-24
1501882056398293,-21,0,-21,-21,-6,-1,3,78
1501882056419293,-1,1,13,-21,-7,-1,0,-22
1501882056419293,-3,3,24,7,-4,-2,-2,19
1501882056420290,-27,-12,-34,24,-7,-5,-2,-25
1501882056420290,0,-10,-18,25,-10,-1,-3,-10
1501882056434306,19,8,2,3,-2,-5,-1,24
1501882056434306,18,6,14,18,3,0,3,7
1501882056440292,1,3,7,-23,-3,2,3,6
1501882056440292,-28,-2,6,12,4,0,-4,-11
1501882056456293,-6,-3,-24,-11,2,2,2,18
1501882056456293,-22,-9,5,-67,-19,-10,-5,-85
1501882056458292,8,8,30,71,17,5,6,-55
1501882056458292,-3,18,37,-17,7,8,4,-24
1501882056479296,1,-23,-51,20,-10,-8,-8,-8
1501882056479296,1,0,-5,-32,0,-2,-1,14
1501882056480294,18,-4,-21,10,-2,1,4,20
1501882056480294,-10,3,34,-34,4,2,0,-13
1501882056501337,-53,-9,-33,6,-8,-9,-7,-13
1501882056501337,31,1,9,-30,0,-1,-3,16
1501882056503317,1,-4,-1,-39,-4,0,2,-8
1501882056503317,-1,0,-24,38,0,-7,-7,-46
1501882056516296,-1,3,37,15,1,6,4,14
1501882056516296,-1,-7,11,22,-1,-4,-5,23
1501882056518316,8,16,21,-83,5,6,2,-2
1501882056518316,20,-16,-74,34,-2,-7,-4,-6
1501882056539297,13,0,28,1,-6,-5,1,53
1501882056539297,-35,-2,-22,25,1,-1,-4,-79
1501882056541299,5,6,7,3,2,0,1,12
1501882056541299,4,-7,9,-33,-1,0,2,40
1501882056553304,-3,-1,-35,-27,2,-2,-1,0
1501882056553304,11,-7,13,-20,-6,0,3,25
1501882056560319,-6,-2,-3,31,-1,-2,-5,8
1501882056560319,2,2,12,-35,-4,1,3,23
1501882056576320,12,0,-15,-15,3,0,-1,-38
1501882056576320,1,7,23,35,10,2,2,13
1501882056578300,-8,-9,-18,15,-2,-1,-2,-10
1501882056578300,-6,-1,-9,-52,1,1,5,-17
1501882056599300,35,12,32,-35,-7,2,3,15
1501882056599300,1,-17,-74,1,-8,-3,-3,-4
1501882056600303,-8,-8,-19,-13,-6,-4,-1,14
1501882056600303,-15,4,23,45,7,4,-1,0
1501882056613310,-11,2,19,-33,2,1,-2,-31
1501882056613310,6,2,12,12,6,-1,5,27
1501882056620344,-2,-9,-41,109,-8,-12,-5,23
1501882056620344,-4,6,27,-44,-5,3,-3,-44
1501882056636345,0,-2,2,21,0,-6,0,11
1501882056636345,-2,-5,-15,-49,-12,2,-5,-27
1501882056638307,5,-5,-6,30,10,1,-2,11
1501882056638307,-6,1,14,-92,-11,-2,-3,-2
1501882056660305,50,1,-9,30,-7,-3,-1,65
1501882056660305,4,4,20,35,1,0,1,-4
1501882056662308,-3,3,-5,-26,-1,1,1,9
1501882056662308,-2,-9,-42,41,0,-5,-4,-4
1501882056673324,-2,3,17,5,11,6,2,17
1501882056673324,-4,0,-11,11,-10,-5,-1,2
1501882056680305,-2,-2,3,-84,-9,-1,-2,-13
1501882056680305,3,3,11,62,13,2,4,48
1501882056696345,-25,-2,5,-28,-4,-2,-2,-73
1501882056696345,-9,1,24,70,10,1,1,21
1501882056702348,-10,0,-9,-53,-9,-3,-4,-25
1501882056702348,-11,-7,-22,-36,-4,-3,-2,3
1501882056719311,-37,-1,11,55,2,1,-1,-5
1501882056719311,-14,5,5,-37,8,3,-2,-21
1501882056720329,-2,-4,-2,-48,-20,-9,-6,-19
1501882056720329,43,0,11,46,5,1,5,28
1501882056733355,24,-2,-31,-45,-5,-4,-5,59
1501882056733355,-18,-1,-9,3,0,2,-2,-54
1501882056740308,29,-3,23,25,2,-3,-2,47
1501882056740308,-19,2,1,-5,3,2,0,-33
1501882056756329,1,-5,12,76,-6,-5,1,-8
1501882056756329,1,6,-3,-46,-1,-1,1,22
1501882056758315,2,3,3,7,7,0,-1,-21
1501882056758315,10,-4,11,116,5,2,-2,4
1501882056778312,-29,6,-8,-128,-2,5,2,-25
1501882056778312,29,-7,20,101,-2,-4,-4,14
1501882056780312,-15,-8,-39,-84,-18,-6,-1,-57
1501882056780312,8,-4,-13,-17,-2,-4,-1,24
1501882056792317,13,1,-1,3,8,3,2,-10
1501882056792317,-14,-2,-6,19,-8,-4,-1,15
1501882056801313,-4,5,28,-7,5,0,-1,-1
1501882056801313,-3,3,-2,-9,-4,0,2,-8
1501882056816335,-5,-2,2,11,1,0,-5,-61
1501882056816335,8,-4,-3,-30,3,2,3,8
1501882056818335,-9,6,28,84,8,0,1,6
1501882056818335,-13,-3,-39,-104,-20,0,-3,-9
1501882056838354,6,1,34,57,7,-1,-2,-1
1501882056838354,23,1,-21,-11,-2,-3,-1,40
1501882056840316,-22,-1,1,-10,3,7,4,5
1501882056840316,-3,4,12,-2,-1,-8,-9,-71
1501882056852380,-1,-3,-31,-3,-7,-1,1,20
1501882056852380,10,-3,-7,-50,-5,-2,1,38
1501882056861320,5,-1,-5,15,5,3,0,3
1501882056861320,-7,5,33,71,12,3,2,12
1501882056876317,-19,-8,0,-28,-4,1,-1,-17
1501882056876317,3,0,7,-18,-2,-1,0,-19
1501882056878319,-25,-7,-31,3,0,2,-3,-14
1501882056878319,16,0,-8,2,4,-7,-3,6
1501882056899327,1,-4,6,-18,2,-1,-1,-3
1501882056899327,1,6,6,-15,-13,-7,-3,29
1501882056900319,12,-6,-4,-33,-7,-3,-5,27
1501882056900319,-6,-15,-24,55,-3,0,0,22
1501882056912340,28,0,0,-44,-3,1,3,64
1501882056912340,-38,8,34,-42,0,-1,-1,-61
1501882056921336,7,-4,8,29,0,-2,-3,17
1501882056921336,-15,1,-2,-23,-1,0,1,-51
1501882056936380,8,-5,-31,-18,-3,-3,0,6
1501882056936380,5,-1,0,55,8,3,-1,11
1501882056938326,3,0,-5,-10,-4,-2,-1,-3
1501882056938326,6,3,11,15,2,2,1,17
1501882056958325,-18,0,0,12,-5,-5,-5,-16
1501882056958325,-7,1,2,-2,13,5,-1,-7
1501882056960322,6,0,4,-31,-16,-3,2,-12
1501882056960322,-2,-3,14,-13,-6,-5,0,24
1501882056972324,6,7,9,43,2,0,-1,-15
1501882056972324,-55,0,15,-80,-2,0,0,-37
1501882056981362,28,-8,-9,72,12,-3,1,56
1501882056981362,-6,5,-11,-28,-9,1,-3,-71
1501882056996374,-25,-7,2,19,-8,-3,0,-6
1501882056996374,13,-3,-14,26,3,3,1,11
1501882056998355,-17,4,18,-2,5,0,-1,-41
1501882056998355,5,5,31,24,5,-1,0,29
1501882057019334,8,0,8,-14,5,6,3,50
1501882057019334,-4,-13,-57,-4,-12,-7,-6,-19
1501882057020325,1,2,-2,-15,-2,-7,-2,-1
1501882057020325,7,-5,-14,36,2,3,-2,22
1501882057032381,20,8,10,-33,7,4,5,19
1501882057032381,-2,-6,-11,23,-1,0,0,30
1501882057041327,21,2,-28,41,-2,-4,-8,7
1501882057041327,-16,-5,20,-17,-5,-1,2,16
1501882057056328,16,-1,-13,9,-2,-3,-2,-2
1501882057056328,16,5,9,-18,-3,-4,-3,-14
1501882057058328,-24,-5,12,-20,-9,-4,-3,-22
1501882057058328,-2,-4,-12,11,5,1,0,5
1501882057078353,-6,-5,-23,28,4,1,-4,-17
1501882057078353,22,-4,6,-51,-22,-8,-2,29
1501882057080329,4,2,0,10,7,5,2,53
1501882057080329,-6,1,0,-17,-5,-3,-4,-20
1501882057092331,-19,0,-1,-16,-4,-2,-1,-26
1501882057092331,19,-1,-6,53,11,2,0,19
1501882057107351,0,0,9,-9,4,8,3,-5
1501882057107351,7,-7,-9,-11,-14,-7,-7,13
1501882057116331,9,1,-17,-13,-2,-2,-1,-10
1501882057116331,-10,-3,-11,-51,-3,-1,-2,-45
1501882057118351,-5,5,2,17,2,2,0,-10
1501882057118351,-1,-5,2,-20,-1,-4,-1,3
1501882057138333,-15,3,-8,21,-5,-2,-4,-24
1501882057138333,9,1,24,18,4,2,0,22
1501882057146333,-1,-1,-22,-11,-3,-4,1,-12
1501882057146333,9,1,-10,-11,9,5,0,-27
1501882057152333,6,-1,18,38,-1,-4,-2,20
1501882057152333,-17,1,6,-20,-4,1,0,-2
1501882057169337,1,0,21,45,13,4,2,-17
1501882057169337,0,-6,-25,-22,-12,-7,-2,22
1501882057175335,-2,-5,-35,-92,-5,-2,-1,41
1501882057175335,-2,-2,18,19,-2,-2,-4,-2
1501882057182340,8,6,21,-34,4,1,1,-6
1501882057182340,5,7,5,0,-3,-4,2,11
1501882057198335,25,-4,13,81,-1,0,-4,19
1501882057198335,4,-4,3,-37,-2,0,1,-6
1501882057200336,3,-2,-33,-28,-7,-4,-3,-5
1501882057200336,-5,7,28,31,5,2,1,9
1501882057212336,2,-6,-46,-22,-4,-3,-3,-24
1501882057212336,0,-1,7,18,3,-2,-2,19
1501882057221338,-16,-6,-8,2,-4,2,-1,-50
1501882057221338,-17,3,39,70,10,3,2,3
1501882057236339,-22,0,20,9,-1,-2,-4,-43
1501882057236339,-7,-18,-47,-83,-13,-1,-5,-41
1501882057238352,-11,9,20,22,3,-3,0,4
1501882057238352,-7,-6,-13,-20,0,3,3,-5
1501882057258341,0,6,24,74,15,2,3,24
1501882057258341,-7,3,-19,-61,-10,-1,-2,-24
1501882057260340,26,-6,8,24,-2,-4,-5,1
1501882057260340,-8,1,-14,-84,-4,-1,-3,9
1501882057281344,-25,-4,0,24,-3,-3,-1,-6
1501882057281344,10,2,-4,82,7,2,5,-9
1501882057283342,-12,-5,-12,-78,-8,-3,-3,29
1501882057283342,12,2,-39,-22,-4,1,-3,-58
1501882057296341,-12,-6,13,-69,-8,-3,-3,-23
1501882057296341,-8,4,17,55,4,-2,2,31
1501882057298342,-4,-6,-12,6,-3,-2,-2,-15
1501882057298342,6,-4,-13,-11,2,4,2,18
1501882057318344,0,5,2,-8,2,5,2,-9
1501882057318344,-7,-4,4,-9,1,-5,-1,5
1501882057320343,13,5,23,49,-3,2,0,33
1501882057320343,33,0,-13,-16,-8,-6,-1,8
1501882057341343,-7,-8,-2,-53,-8,-5,-3,-5
1501882057341343,1,3,6,74,7,5,0,1
1501882057343345,-1,-2,-10,-23,-3,-3,0,-3
1501882057343345,-25,1,25,49,9,3,1,34
1501882057356354,41,3,3,-16,3,-5,-1,-14
1501882057356354,-9,-7,-7,-2,-3,-1,-5,31
1501882057358346,8,2,-20,-17,-4,0,4,-30
1501882057358346,-14,-8,-16,9,-7,-6,-5,9
1501882057378348,-1,2,-2,23,2,2,4,35
1501882057378348,13,8,15,-20,9,0,-1,-22
1501882057380349,-16,-13,-26,40,-11,-7,-6,6
1501882057380349,3,9,24,-18,5,3,1,-7
1501882057401361,-23,-13,-9,-59,-10,-7,-4,4
1501882057401361,45,8,-10,0,1,-2,-1,22
1501882057403350,-1,2,20,-29,1,4,3,9
1501882057403350,-11,-2,5,42,1,-1,-1,-28
1501882057415348,-13,-7,-31,-25,-11,-2,-2,43
1501882057415348,-51,0,11,13,-6,-3,-3,-12
1501882057422350,15,1,30,-16,3,-1,-1,-13
1501882057422350,2,-7,-26,-17,-2,-3,-2,-5
1501882057438349,30,-4,-26,15,-1,-3,-5,-5
1501882057438349,-15,0,14,18,-1,1,-1,12
1501882057440350,8,-7,-11,-32,-5,-2,0,16
1501882057440350,-13,3,7,16,1,-2,-4,-2
1501882057461352,-6,2,2,38,3,5,1,-11
1501882057461352,8,1,-16,-35,-2,-3,2,-4
1501882057463351,-11,2,12,28,9,2,-3,-7
1501882057463351,9,0,3,-32,-11,-2,-1,16
1501882057475352,-2,4,15,11,3,-1,1,-13
1501882057475352,1,-2,7,-4,6,6,5,-14
1501882057482353,-30,1,-9,69,3,2,-1,-24
1501882057482353,-5,-8,-3,-39,-4,-11,-7,8
1501882057498368,30,8,19,30,2,3,8,13
1501882057498368,-25,-8,-14,-30,-4,-5,-3,18
1501882057500362,8,1,-12,-69,-2,0,-3,-13
1501882057500362,15,-1,14,34,2,1,0,-13
1501882057521370,-34,-3,-21,-23,-12,-5,-4,-5
1501882057521370,26,1,36,19,6,4,7,5
1501882057523357,-19,1,-22,10,0,-2,-8,-35
1501882057523357,10,1,3,-16,1,0,0,22
1501882057535370,6,-4,11,20,3,2,-2,-42
1501882057535370,-18,-6,-34,-36,-9,-4,-3,-28
1501882057542357,-2,1,9,-11,0,-1,4,90
1501882057542357,-1,-2,2,-1,1,2,3,-9
1501882057558357,-11,4,17,56,11,5,3,-14
1501882057558357,71,-7,-12,-39,-14,-9,-11,-23
1501882057560357,-1,3,14,-47,-14,-7,-3,5
1501882057560357,-7,-2,-21,-13,1,4,1,1
1501882057581360,-10,-2,-4,15,2,0,0,-1
1501882057581360,-8,7,19,31,6,7,5,27
1501882057583384,-10,-15,-28,-26,-4,-8,-8,-4
1501882057583384,6,3,7,76,-4,-3,1,-26
1501882057595359,-5,-3,2,-31,-7,-5,-6,-19
1501882057595359,-12,0,-3,16,5,1,2,-11
1501882057610361,4,3,-14,37,11,6,3,12
1501882057610361,-26,-14,-15,-66,-18,-7,-6,2
1501882057618422,1,3,44,64,10,-3,-1,-3
1501882057618422,-5,-3,-11,-37,-8,-6,-3,3
1501882057620361,14,-5,-16,-8,2,6,3,-32
1501882057620361,-5,0,8,33,2,-1,1,55
1501882057641362,-7,5,14,-21,-2,-1,1,-13
1501882057641362,-2,-10,-25,12,-1,-2,-4,0
1501882057643366,-26,1,3,5,3,-2,1,4
1501882057643366,33,2,27,-3,0,-3,0,27
1501882057655373,12,-2,-17,-11,-3,-1,-1,16
1501882057655373,-20,1,-4,43,1,-1,1,-19
1501882057662366,-22,4,-5,12,4,2,1,-24
1501882057662366,-4,5,22,-5,5,0,-4,-66
1501882057678380,2,-10,-50,-58,-5,-10,-1,-7
1501882057678380,21,2,22,47,5,5,1,67
1501882057680364,-4,1,-24,-59,-6,-1,-1,-31
1501882057680364,25,0,-17,6,5,3,0,10
1501882057701428,-12,0,18,26,-8,-1,-2,-2
1501882057701428,-16,-5,-23,12,9,-3,1,-4
1501882057703404,22,-1,15,-30,-21,-2,-2,-3
1501882057703404,0,2,1,-2,6,1,-1,0
1501882057715386,-10,-7,-23,-23,0,-1,-1,17
1501882057715386,-2,3,6,10,-4,-2,-2,-6
1501882057722371,2,-5,10,13,-1,-2,0,-2
1501882057722371,6,0,4,-9,6,0,1,-2
1501882057738387,-26,-1,-17,-39,-8,-3,-2,-3
1501882057738387,17,2,9,23,-6,-3,-2,-11
1501882057740368,7,3,8,22,8,4,1,-2
1501882057740368,-2,-3,-21,-47,-14,0,0,11
1501882057761369,11,5,24,58,0,-4,-2,-9
1501882057761369,12,-8,10,28,-4,-4,0,62
1501882057763369,7,12,28,-66,-2,-1,0,-6
1501882057763369,-11,-9,-14,-1,-1,0,1,10
1501882057775391,4,-5,-6,-60,-1,0,0,-20
1501882057775391,-1,1,14,56,-4,-3,-3,11
1501882057791371,-21,-4,1,48,2,2,2,-1
1501882057791371,-2,2,0,16,3,0,0,-11
1501882057798381,14,3,10,-36,-3,1,1,18
1501882057798381,-22,-7,-17,-59,1,1,-2,-13
1501882057800372,4,-2,5,50,3,-7,-4,6
1501882057800372,8,2,7,30,-7,-1,-1,19
1501882057821432,-13,-5,-13,-6,-3,-1,-2,4
1501882057821432,15,1,-32,-104,-14,-3,-2,-19
1501882057823389,-10,-8,-10,-19,6,0,-2,8
1501882057823389,-6,1,2,85,4,-2,0,-49
1501882057835394,-37,-6,2,38,-1,-1,-4,6
1501882057835394,31,7,13,1,-2,-2,-1,-81
1501882057844374,9,-2,-4,23,-1,-5,-1,-20
1501882057844374,-8,-2,-9,-62,1,5,1,7
1501882057858378,0,-1,20,54,-1,-3,-1,12
1501882057858378,-21,2,-11,-59,0,4,1,-39
1501882057860375,-12,-17,-35,2,-9,-7,-4,13
1501882057860375,13,-1,-13,30,9,-1,0,-13
1501882057881397,2,-2,-3,40,-5,0,-1,4
1501882057881397,4,3,13,27,6,3,3,35
1501882057883382,-4,2,10,5,0,-3,-3,-27
1501882057883382,-20,3,15,-5,-1,-1,-1,20
1501882057895396,7,-6,-35,-60,0,3,1,-20
1501882057895396,-19,-2,8,36,7,-2,-2,-3
1501882057904385,7,2,18,11,1,1,1,8
1501882057904385,-14,-4,-21,-16,-5,-6,-1,-9
1501882057918444,21,8,10,11,11,7,3,0
1501882057918444,6,-8,0,25,-8,-3,-5,25
1501882057920378,32,-1,-29,-27,-10,-1,1,35
1501882057920378,38,4,-4,30,8,-3,-4,19
1501882057941383,9,-1,12,-2,2,-1,2,-14
1501882057941383,-10,-3,-16,-19,0,-1,-1,3
1501882057943387,-20,-1,9,4,0,-4,0,-4
1501882057943387,-18,-4,2,16,6,2,-1,9
1501882057963381,0,3,-6,-49,-13,0,-2,1
1501882057963381,-15,0,16,46,-5,-6,-4,5
1501882057965383,6,3,24,-35,-4,-2,0,37
1501882057965383,-11,-3,-26,-19,-3,3,-3,-7
1501882057978382,6,-4,6,43,5,-3,-2,30
1501882057978382,-19,-4,-12,-104,-7,2,0,-10
1501882057980386,0,2,-7,53,-1,-3,-1,-9
1501882057980386,-6,-2,27,30,-5,-3,-3,-4
1501882058001421,10,1,-10,-25,8,2,1,10
1501882058001421,-45,3,5,-18,-9,-3,1,-7
1501882058003397,12,-7,-2,5,4,2,-2,-6
1501882058003397,-5,-16,-41,-55,-7,-1,-1,-6
1501882058015388,-9,1,9,48,1,-3,-2,-19
1501882058015388,-1,-1,-17,1,8,1,1,0
1501882058024385,-17,0,13,-12,-7,1,1,-22
1501882058024385,-5,-1,15,-15,-15,-7,-4,5
1501882058038389,-4,1,7,-23,-2,-4,-2,-8
1501882058038389,8,-3,-15,32,5,-4,-1,-3
1501882058040386,-5,0,-12,16,4,9,2,3
1501882058040386,4,1,13,-35,-3,-2,-2,3
1501882058061387,-2,-4,-14,9,0,-3,-3,3
1501882058061387,4,0,12,-67,-13,-2,0,-7
1501882058062406,8,-1,-2,18,-1,-3,-1,5
1501882058062406,-42,5,22,33,4,3,4,-4
1501882058075388,47,1,-3,20,5,2,-1,-6
1501882058075388,15,0,-35,37,0,1,1,-7
1501882058084390,-1,6,49,-35,-5,-6,-5,2
1501882058084390,-7,-4,-6,20,3,3,-2,-33
1501882058098390,-18,5,20,-5,-7,-2,0,3
1501882058098390,-3,-2,3,65,16,3,-1,-14
1501882058100389,4,1,-23,-67,-14,1,1,2
1501882058100389,11,-3,-8,-16,-5,-4,-3,14
1501882058121410,-43,-1,9,-20,1,-2,2,-7
1501882058121410,6,-2,13,22,-4,3,-3,-6
1501882058123390,-4,-1,21,39,7,-1,-2,4
1501882058123390,-2,0,-23,-12,-3,-2,-1,3
1501882058135401,-9,-5,-23,-28,0,0,-1,-3
1501882058135401,23,4,22,33,2,-7,-4,30
1501882058144393,-47,-6,-8,14,2,3,0,-10
1501882058144393,46,1,17,6,-3,3,-2,1
1501882058158394,15,0,-10,-17,-3,-2,-2,20
1501882058158394,-7,3,7,8,5,-1,-1,-16
1501882058160392,1,-4,-4,24,-8,-3,-4,15
1501882058160392,-23,-5,-32,-55,-7,-5,-3,-49
1501882058181397,-12,0,7,-40,-12,-3,-4,1
1501882058181397,7,-3,6,-40,1,1,0,9
1501882058183395,0,-1,-1,-12,2,-4,-4,17
1501882058183395,-11,-9,-27,52,-1,-5,-2,7
1501882058203394,12,-1,-17,-6,0,-4,-2,-6
1501882058203394,-8,4,15,17,1,4,1,3
1501882058205398,3,-8,-32,25,-3,-1,1,-15
1501882058205398,3,8,24,-1,5,3,4,-7
1501882058218396,-22,-1,-2,1,7,3,0,-19
1501882058218396,37,-6,-14,-55,-21,-9,-3,33
1501882058220395,21,8,16,23,8,5,2,8
1501882058220395,-22,2,10,-12,0,-2,-3,3
1501882058241397,3,-9,-32,39,-3,-2,-1,-6
1501882058241397,-11,7,21,22,4,0,2,-6
1501882058243401,-12,-2,-10,-42,1,2,-1,-17
1501882058243401,2,-1,11,5,-6,-5,-2,13
1501882058263399,0,-3,-13,0,4,0,-4,7
1501882058263399,-3,1,3,28,1,-2,-2,7
1501882058265399,9,-4,-18,-40,-4,-3,0,-7
1501882058265399,5,5,26,50,13,4,1,9
1501882058286422,-17,-1,5,-37,-17,-4,-2,-8
1501882058286422,4,-5,-5,-20,0,-2,-2,-12
1501882058287405,18,3,17,80,9,5,3,17
1501882058287405,-17,1,8,-15,2,-3,-1,0
1501882058301414,26,2,10,34,2,3,5,10
1501882058301414,-23,1,-9,-21,-4,0,-3,-10
1501882058303401,-20,-5,24,33,2,-4,-5,-8
1501882058303401,38,-2,-16,-71,-10,-1,0,46
1501882058323402,-38,-8,5,58,7,-3,0,-53
1501882058323402,15,10,22,-39,0,0,-1,5
1501882058325402,8,-4,-11,-12,-4,-2,0,-1
1501882058325402,2,2,-12,-3,0,3,2,1
1501882058337403,-4,0,2,-11,0,0,0,0
1501882058337403,11,-3,4,13,4,0,0,-1
1501882058354407,-3,3,-11,12,1,-5,-7,-18
1501882058354407,-12,-4,-17,-23,-7,-2,3,-13
1501882058361407,19,2,20,-18,-6,-1,-2,24
1501882058361407,31,-1,-8,29,0,-1,3,56
1501882058363407,-44,-15,-45,3,4,1,-4,-57
1501882058363407,6,4,18,-13,-5,-4,-3,3
1501882058383440,23,5,-1,-29,-3,-2,-3,10
1501882058383440,-11,-9,-23,-26,-3,4,2,-5
1501882058385406,15,2,0,-6,-11,-6,0,16
1501882058385406,-10,0,9,62,11,1,-1,-7
1501882058398448,2,0,2,20,6,3,-1,-18
1501882058398448,-10,-5,-3,-56,-13,-4,-4,-11
1501882058405469,12,-1,-1,12,4,-1,-1,6
1501882058405469,1,2,20,31,10,3,0,-20
1501882058421428,8,-7,-22,-52,-21,-6,-3,18
1501882058421428,-9,-1,-10,-10,2,-1,-2,4
1501882058423408,-2,2,1,-25,-3,-2,2,1
1501882058423408,3,-4,13,-26,-4,1,0,16
1501882058443410,5,0,3,24,7,0,0,9
1501882058443410,-23,-1,10,76,8,1,2,-29
1501882058446409,7,-4,0,-46,-10,-3,-5,6
1501882058446409,23,5,-9,27,-2,-2,-2,-8
1501882058458428,-11,2,35,-76,-4,-3,1,-21
1501882058458428,4,-1,-27,29,-1,0,0,-11
1501882058465409,1,-2,-8,-20,-4,5,3,20
1501882058465409,-22,-9,-18,-42,-7,-4,-5,1
1501882058481435,1,2,5,39,3,-2,-2,21
1501882058481435,-10,-3,2,-26,-1,-4,-4,-19
1501882058483417,6,4,16,38,5,-1,-1,22
1501882058483417,-5,-2,5,12,-4,2,2,-6
1501882058503475,0,-1,-11,33,1,0,0,9
1501882058503475,-8,0,-1,-33,-2,-2,-2,1
1501882058505413,13,3,-13,6,-1,1,0,1
1501882058505413,-8,-5,5,-45,2,-1,1,23
1501882058518473,-12,0,30,87,8,-3,-5,-35
1501882058518473,-53,-10,-33,-33,-2,0,-1,5
1501882058525436,14,7,13,-32,3,0,1,-30
1501882058525436,4,-5,-15,33,-2,-3,-2,21
1501882058541416,-6,5,7,4,-2,-2,-3,-77
1501882058541416,3,-7,-4,39,2,1,0,-2
1501882058543417,-10,0,-16,-66,1,1,1,7
1501882058543417,-1,-3,30,30,-12,-9,-4,9
1501882058563436,5,-1,-28,-8,2,4,2,12
1501882058563436,0,-5,-6,-25,-1,-3,-3,-18
1501882058565416,-2,5,6,55,6,0,-2,-15
1501882058565416,15,0,-19,-109,-12,-8,1,7
1501882058578418,-11,-3,-12,20,-3,2,-2,21
1501882058578418,19,0,-25,-14,2,-1,0,0
1501882058585420,-9,-4,14,26,-8,-2,-3,24
1501882058585420,7,7,10,13,7,5,0,-10
1501882058601488,-4,-4,4,-11,-1,-1,1,17
1501882058601488,-13,0,-22,-19,-4,-3,-1,-12
1501882058602438,-15,-6,24,52,-1,-2,0,-5
1501882058602438,12,0,-11,-19,-2,2,-3,-1
1501882058623422,6,-4,-18,-30,-4,-2,-3,-48
1501882058623422,-13,8,50,53,8,1,0,14
1501882058625422,21,-9,-41,-36,-6,-5,-4,6
1501882058625422,-13,-2,-17,-6,-5,0,2,10
1501882058639419,-23,-5,6,32,3,-1,-1,29
1501882058639419,15,1,-12,-44,-5,1,1,-7
1501882058646422,-14,0,46,91,5,-2,-1,-16
1501882058646422,-2,-2,6,4,8,2,-2,7
1501882058661423,10,-7,-60,-44,-11,-5,-3,23
1501882058661423,-25,0,48,42,3,-1,1,12
1501882058663422,27,3,-27,-36,2,3,3,56
1501882058663422,25,0,-6,51,7,0,-4,-49
1501882058683423,15,0,0,-82,-8,0,1,34
1501882058683423,-18,1,-1,40,-1,-1,2,-10
1501882058685451,7,-2,-24,-57,-7,-3,-1,0
1501882058685451,3,-2,17,112,6,-1,0,-11
1501882058697453,7,8,15,-71,3,-1,0,2
1501882058697453,23,-6,-11,-27,-11,-4,-4,17
1501882058706425,-16,6,9,-16,1,1,3,-45
1501882058706425,-4,-4,-5,-52,1,2,-1,-2
1501882058721426,-9,-1,-3,70,1,-3,-1,0
1501882058721426,11,-3,-3,-42,-14,-3,-4,11
1501882058723425,4,3,6,48,2,0,1,28
1501882058723425,-19,-12,1,74,2,0,0,-37
1501882058743431,-5,1,3,-55,-9,-2,-2,-20
1501882058743431,5,-1,23,22,3,-1,-2,10
1501882058746427,22,0,-21,-24,-4,-2,-1,-3
1501882058746427,-25,8,23,4,1,5,2,8
1501882058757427,16,-8,7,0,-2,-6,-1,24
1501882058757427,-32,2,-16,20,8,-1,-7,-53
1501882058774428,-9,-4,25,-51,-12,-3,1,-16
1501882058774428,3,-1,-10,27,4,-5,-2,14
1501882058781435,2,-4,-13,-26,-11,1,2,56
1501882058781435,-1,-3,-16,-22,-2,-1,-4,-23
1501882058783449,-9,2,9,25,1,-3,1,-34
1501882058783449,6,1,-27,-28,2,2,0,-6
1501882058804465,-6,-5,32,88,5,-2,-1,22
1501882058804465,10,0,-13,-17,-6,1,3,8
1501882058806434,2,-1,-9,-13,4,1,-2,6
1501882058806434,-46,-6,-3,9,-19,-7,-3,-2
1501882058817468,10,13,14,19,8,1,-1,-33
1501882058817468,50,-4,-3,-5,-1,-2,1,33
1501882058826431,-22,-3,6,26,5,1,-1,-27
1501882058826431,-5,4,-8,-47,-5,1,0,12
1501882058841433,0,-7,-15,7,3,1,-2,-3
1501882058841433,-6,2,28,81,4,2,5,37
1501882058843434,-13,-1,-15,-104,-11,-3,-5,-69
1501882058843434,-12,1,9,17,7,-2,1,1
1501882058863433,66,10,16,-23,2,2,5,30
1501882058863433,-6,-2,-13,9,-2,-3,-1,-30
1501882058865435,-35,-10,-4,-9,-3,-1,-3,25
1501882058865435,-2,9,3,-22,-8,1,-1,-8
1501882058877442,-17,-4,17,14,7,-6,-2,-49
1501882058877442,9,-6,-17,-2,-3,1,-3,25
1501882058886435,40,2,11,35,0,-1,-1,20
1501882058886435,-5,-7,-14,-28,-5,-6,-5,-15
1501882058901485,-20,-6,-29,-23,1,3,0,-25
1501882058901485,-6,6,23,73,8,-1,1,-11
1501882058903446,-15,-4,-22,-23,-3,-4,-4,-5
1501882058903446,31,5,9,-32,0,2,-2,9
1501882058923454,-16,-3,-22,17,1,0,2,-2
1501882058923454,-3,-3,13,-21,6,3,0,-13
1501882058925436,-1,2,-11,13,-9,-1,0,7
1501882058925436,3,0,7,-4,0,-2,-1,12
1501882058937442,-6,-7,-29,-32,3,3,-3,11
1501882058937442,-34,-7,-14,40,-20,-7,1,9
1501882058946438,7,0,12,-48,-4,-1,1,6
1501882058946438,-6,7,4,1,4,0,-1,-16
1501882058961460,-7,1,25,1,-6,-6,-4,8
1501882058961460,-31,-7,-11,-1,4,3,-3,-13
1501882058962460,33,-2,6,-11,4,-1,-2,11
1501882058962460,-7,-4,-20,39,-7,-2,-1,-5
1501882058983469,4,4,38,55,1,-2,-1,6
1501882058983469,9,5,-16,-59,-3,-2,0,-8
1501882058985447,-9,-5,4,36,2,0,-2,6
1501882058985447,-3,1,5,36,12,3,-2,-10
1501882058997468,-7,1,-4,-92,-12,-1,-1,-14
1501882058997468,25,-1,-13,26,5,1,-2,-2
1501882059006443,-40,-1,4,-22,3,0,-3,-35
1501882059006443,29,-10,0,-8,-5,-2,1,0
1501882059021478,0,4,19,62,5,1,-1,15
1501882059021478,-6,2,8,-24,-5,-5,-1,-19
1501882059022464,4,-1,-23,20,5,1,1,16
1501882059022464,1,1,23,-16,0,2,2,9
1501882059043447,-9,-4,-18,-2,1,-2,-1,-2
1501882059043447,20,-2,6,-24,-3,0,-2,21
1501882059046444,-6,-2,-4,33,1,-3,-2,2
1501882059046444,-17,-5,-7,-26,-3,-1,3,4
1501882059057460,16,-1,2,55,0,-3,-3,-16
1501882059057460,6,2,-19,-61,-2,-2,0,3
1501882059072450,-9,0,17,23,-4,-3,-1,4
1501882059072450,-1,-6,-12,18,2,-4,-4,-9
1501882059082447,-11,-2,-11,-56,-5,4,0,5
1501882059082447,-4,1,11,-18,3,1,0,-4
1501882059087450,7,-4,1,36,-3,-1,-1,1
1501882059087450,1,1,-9,-51,-4,-1,0,1
1501882059102447,6,0,-9,7,2,-2,-1,13
1501882059102447,6,0,28,41,-1,-5,-2,-25
1501882059111449,1,6,-22,-16,1,0,-1,16
1501882059111449,-2,-12,-35,11,-9,-7,-5,-10
1501882059126449,-5,-6,14,-5,-3,0,-1,-7
1501882059126449,6,4,8,-7,1,1,-1,4
1501882059128449,11,-7,-15,-4,-3,-1,0,9
1501882059128449,-18,0,-5,4,5,3,0,-8
1501882059141451,-5,-1,-10,-13,-4,-3,-3,-6
1501882059141451,-27,0,3,3,-1,0,-1,-34
1501882059143451,7,5,21,31,5,0,-4,10
1501882059143451,-21,1,5,-36,2,1,0,-1
1501882059163453,15,-5,-12,20,-8,-8,3,-5
1501882059163453,21,4,7,14,5,5,2,17
1501882059165450,-4,1,15,-7,3,3,5,35
1501882059165450,49,4,-31,29,1,-3,-7,-4
1501882059186472,-70,-16,-19,23,-8,-6,-8,-15
1501882059186472,8,-1,17,-18,-2,-1,3,3
1501882059188452,12,-1,3,-26,-3,-5,-5,23
1501882059188452,7,1,3,-11,3,4,4,2
1501882059201453,-8,1,-15,14,3,0,0,-3
1501882059201453,10,-1,-18,-14,-4,-1,-1,-11
1501882059202455,-34,2,15,38,3,0,0,-6
1501882059202455,10,1,24,8,-4,-4,0,-44
1501882059223457,-4,5,-21,-47,1,2,0,-18
1501882059223457,0,-5,5,28,8,-1,-1,30
1501882059225455,7,-4,0,73,-5,-3,0,-9
1501882059225455,-19,-7,7,11,-5,-3,-2,8
1501882059246458,68,8,18,-2,2,6,9,39
1501882059246458,-22,-6,-15,11,9,1,1,-32
1501882059248459,4,4,-2,-56,-13,2,4,24
1501882059248459,-11,-4,-2,7,-7,-10,-3,1
1501882059261456,-3,-3,20,5,1,1,-5,-1
1501882059261456,1,6,13,-16,2,5,6,35
1501882059262457,23,-3,-41,27,4,-1,-4,36
1501882059262457,-3,4,-18,-64,-1,4,4,78
1501882059283458,-7,1,17,60,-3,-10,-10,-89
1501882059283458,-54,-12,-42,-28,-7,-4,-3,-27
1501882059285458,0,2,16,-26,1,1,0,-30
1501882059285458,-5,5,3,-4,8,4,2,9
1501882059306459,8,-4,-4,5,-10,-2,-4,-15
1501882059306459,14,-2,2,-28,-12,-6,-5,4
1501882059307462,-20,-6,10,-13,2,-1,0,-25
1501882059307462,-11,6,0,22,3,-1,-2,-62
1501882059320475,-8,3,11,-29,-4,-2,-1,-1
1501882059320475,8,-1,0,6,1,1,-2,-17
1501882059327461,7,-9,-15,7,-2,-2,0,25
1501882059327461,-21,-8,-2,-15,-2,-7,-5,-36
1501882059343461,28,-1,-14,47,1,4,3,48
1501882059343461,-5,-2,-4,-86,-23,-3,-4,22
1501882059346462,-26,1,-27,-31,0,-1,0,-32
1501882059346462,11,-1,18,13,-2,-1,-3,12
1501882059366462,-3,0,-10,-44,2,-1,1,44
1501882059366462,-13,-1,33,39,3,-4,-1,-2
1501882059368463,34,4,-8,-14,-5,-3,-3,-6
1501882059368463,-7,-1,-15,-32,-2,1,-2,-66
1501882059380464,-26,-1,12,58,13,6,4,-20
1501882059380464,45,0,-4,8,-10,-4,-1,57
1501882059387466,-3,-1,8,-57,-7,-3,-3,1
1501882059387466,1,4,20,51,9,-1,-1,37
1501882059403520,-3,-5,-6,-7,-2,-4,-2,4
1501882059403520,-16,-4,-14,17,6,1,2,-20
1501882059405466,7,-2,6,13,3,3,1,16
1501882059405466,10,1,-11,-4,-7,3,0,29
1501882059425471,-6,-3,12,0,-1,-2,0,-15
1501882059425471,4,6,-18,12,1,-4,-4,-7
1501882059434471,-10,-6,8,7,1,6,-1,-15
1501882059434471,17,4,18,6,5,3,4,78
1501882059440468,-30,-2,-22,-48,-7,-1,-1,-4
1501882059440468,3,-3,-20,-15,-5,-4,-1,1
1501882059449474,0,0,10,39,3,-2,-3,-43
1501882059449474,25,-7,-7,11,-5,-4,0,40
1501882059463472,-2,5,-6,-26,8,5,2,-14
1501882059463472,2,-1,9,15,0,-4,-5,-2
1501882059465489,-7,1,3,8,-1,-5,1,8
1501882059465489,13,-5,-7,-24,-7,-2,-3,7
1501882059486528,6,1,3,8,1,1,-4,19
1501882059486528,-11,0,-3,-24,-1,1,2,-17
1501882059487474,-2,0,0,57,8,3,0,-14
1501882059487474,-19,-2,-1,-21,-16,-6,-5,-19
1501882059500532,4,0,-8,-40,-6,-2,-2,5
1501882059500532,5,2,5,17,4,1,-1,62
1501882059507471,-8,-5,-6,-44,-4,-1,1,-11
1501882059507471,-4,-3,4,46,1,-1,-3,-20
1501882059523494,-3,0,6,24,1,-2,-2,1
1501882059523494,5,1,3,10,0,-2,-2,-4
1501882059525473,-9,-4,-13,-15,-5,-8,-2,-9
1501882059525473,0,-4,-4,-5,-1,5,0,-6
1501882059546474,4,-1,-4,-12,-4,-5,-2,6
1501882059546474,-6,1,2,7,2,-1,-1,-15
1501882059548480,6,0,-6,-10,-3,5,0,6
1501882059548480,-2,-1,1,1,2,0,2,-14
1501882059559493,-1,-2,4,-11,-2,-3,-2,0
1501882059559493,2,-1,1,23,0,5,1,-20
1501882059568537,-2,2,8,15,1,-4,-4,-3
1501882059568537,-5,-3,-5,-12,-1,-2,0,-2
1501882059583530,0,1,0,-7,0,-1,0,-7
1501882059583530,-1,-2,1,-4,-2,-3,-1,-12
1501882059583530,12,1,-2,-1,-2,0,-1,22
1501882059583530,-11,-4,-7,31,0,-4,-5,-26
1501882059605535,1,1,10,-39,-4,4,0,-41
1501882059605535,6,-3,-7,14,2,0,-1,5
1501882059606478,-6,-4,3,-9,0,-2,0,-4
1501882059606478,5,2,-12,-36,-4,-5,-1,5
1501882059620480,-16,-1,9,77,9,3,0,10
1501882059620480,-13,-6,3,7,-7,-5,-3,13
1501882059628526,25,10,24,0,0,3,-4,-51
1501882059628526,-1,-7,-25,-12,1,-5,3,14
1501882059643483,-2,1,-1,-23,0,6,3,4
1501882059643483,8,-3,1,11,3,-4,-1,40
1501882059643483,-22,0,8,6,1,-5,-2,-25
1501882059643483,18,-9,-57,-25,-7,-1,-7,23
1501882059665481,-5,7,22,-7,-1,-3,-3,-47
1501882059665481,4,-8,-18,5,-4,-1,-4,-30
1501882059666480,0,-1,2,-8,-4,-4,0,12
1501882059666480,1,7,27,7,3,1,2,6
1501882059688538,5,-2,-26,-11,-1,-1,1,9
1501882059688538,21,5,-3,-27,3,0,-2,7
1501882059689484,-14,-2,6,65,-1,-3,-1,42
1501882059689484,-17,-2,1,-10,4,8,2,-27
1501882059703543,34,-1,9,5,-3,-3,0,79
1501882059703543,-13,-9,-28,-61,-16,-7,-4,-40
1501882059703543,1,-4,-16,-15,0,2,0,14
1501882059703543,19,2,-1,28,3,-6,-2,12
1501882059725484,-12,1,17,24,0,1,1,-17
1501882059725484,18,2,-15,48,2,3,0,-22
1501882059726489,-42,-12,-34,-65,-3,0,-5,-17
1501882059726489,21,3,51,53,-1,1,6,28
1501882059749536,-9,-3,-1,8,-2,-5,-8,-41
1501882059749536,-33,-2,-20,-36,9,2,-1,-46
1501882059750484,-3,-3,6,88,-10,-9,-3,72
1501882059750484,4,4,17,-50,-10,-3,1,-28
1501882059763486,-21,-6,-21,-9,1,0,-2,-59
1501882059763486,-2,4,0,5,5,3,1,8
1501882059763486,-7,-12,-39,-20,0,-2,-2,13
1501882059763486,5,-1,-9,-32,-6,3,-3,18
1501882059786509,-11,5,25,52,1,-2,0,-41
1501882059786509,-17,-5,-8,-14,-3,-1,2,9
1501882059786509,6,2,-1,-8,-2,2,1,-13
1501882059786509,4,2,26,19,2,-5,-6,-87
1501882059808513,17,-2,-22,-27,0,-1,0,36
1501882059808513,-7,3,23,-10,1,0,-6,31
1501882059809490,-20,10,29,46,6,3,4,-27
1501882059809490,-27,-15,-45,-43,-10,-5,-6,-54
