timestamp,emg1,emg2,emg3,emg4,emg5,emg6,emg7,emg8
1501880920044743,-26,-15,-31,-34,-3,-11,-27,-14
1501880920044743,30,-3,-11,-21,-22,7,51,-17
1501880920051744,2,0,-26,-27,11,1,-1,7
1501880920051744,15,19,36,-24,-2,6,28,2
1501880920067745,-2,-2,11,-12,-1,3,-9,-9
1501880920067745,-89,-14,-11,-57,9,-9,-29,3
1501880920069744,78,-2,5,-55,-17,1,-12,-11
1501880920069744,23,-10,-21,108,4,-6,27,52
1501880920090745,-84,0,20,-128,-25,-7,8,-29
1501880920090745,37,8,6,127,12,-2,-3,-14
1501880920091747,35,2,-43,-81,-5,0,-13,-5
1501880920091747,-3,-12,-29,-68,-6,-6,-23,15
1501880920104752,22,3,58,127,14,-1,5,-2
1501880920104752,4,-5,5,-73,-19,-3,8,21
1501880920111747,-26,14,-5,97,17,9,-7,20
1501880920111747,12,-20,-22,-114,-17,-4,-13,-10
1501880920127753,76,0,-13,14,5,-2,-13,-9
1501880920127753,-118,10,-20,-68,1,-2,22,16
1501880920129748,32,-21,-3,111,1,-3,-12,-3
1501880920129748,-16,8,-29,-104,-7,4,8,-26
1501880920150749,-23,-13,-4,103,3,-7,-11,-16
1501880920150749,51,23,34,-53,1,8,10,25
1501880920151751,-9,-17,-25,-34,-17,-7,-3,-20
1501880920151751,-36,1,15,43,10,0,-5,-8
1501880920163750,-34,7,-3,-122,-5,6,-3,9
1501880920163750,7,0,70,116,23,2,-3,5
1501880920172755,-24,-24,-70,6,-9,-9,6,-6
1501880920172755,-3,-6,47,56,-18,-7,-10,4
1501880920187751,12,12,33,40,14,7,21,2
1501880920187751,-13,7,-67,-23,11,2,-18,-3
1501880920189750,45,11,45,48,-4,-3,-3,1
1501880920189750,-82,-3,6,-11,4,-2,-27,-10
1501880920210754,-22,5,6,-34,7,14,49,2
1501880920210754,24,-8,-9,48,-8,-8,-15,-11
1501880920211754,32,2,-11,-11,2,3,8,85
1501880920211754,-39,-4,-16,-37,-9,-7,-6,-50
1501880920223753,24,2,38,6,-11,-5,2,21
1501880920223753,33,6,54,36,22,4,-29,-10
1501880920232752,-75,-1,-23,-77,-15,3,68,-17
1501880920232752,15,4,-38,9,3,5,2,5
1501880920249755,-8,-6,-21,29,-6,-8,-15,-14
1501880920249755,-10,-22,-30,7,-10,-3,5,1
1501880920250753,16,5,31,82,3,-6,-27,-14
1501880920250753,32,-1,21,26,10,1,3,14
1501880920270760,-13,-6,-42,-27,-8,-1,1,-13
1501880920270760,6,10,7,43,2,3,7,49
1501880920271757,-36,13,55,-39,9,6,-8,-6
1501880920271757,30,-14,-55,-10,-18,-9,-5,-11
1501880920284770,17,5,25,-14,6,1,-5,51
1501880920284770,13,-10,-12,9,-23,-10,-10,-30
1501880920292757,19,6,24,11,1,-4,-1,-24
1501880920292757,-4,1,37,-8,10,4,2,-19
1501880920307758,14,9,-4,-6,3,0,-8,11
1501880920307758,-35,-1,7,-54,-9,2,12,-9
1501880920309757,-30,-4,-44,12,-3,-6,-41,-15
1501880920309757,60,3,10,68,5,3,44,43
1501880920329759,8,-2,-29,-87,-21,-2,11,2
1501880920329759,-81,-4,0,-3,3,-2,1,-25
1501880920336774,17,0,20,12,4,0,-16,-23
1501880920336774,-29,-4,-17,13,-14,-3,-11,5
1501880920343774,44,-7,-29,13,9,2,2,15
1501880920343774,-30,14,38,89,17,6,5,13
1501880920352760,34,-5,-5,-82,-23,-6,6,40
1501880920352760,-17,-3,-49,-56,-6,-2,-10,-37
1501880920368770,-4,-21,-23,19,-3,-2,1,-17
1501880920368770,6,-2,-12,-11,-9,-5,-10,-17
1501880920369762,11,2,26,63,10,2,4,11
1501880920369762,47,14,7,-47,-1,1,0,14
1501880920390761,-10,-1,-6,20,-5,-3,-13,-40
1501880920390761,27,7,26,23,5,3,3,7
1501880920391762,-19,-5,-14,-27,1,-2,0,-6
1501880920391762,19,6,32,7,4,5,0,-13
1501880920403763,-39,-12,-18,10,1,-3,-6,8
1501880920403763,13,-6,-24,-8,-5,-3,0,0
1501880920412764,2,9,17,-8,-4,-1,4,-7
1501880920412764,-88,0,1,-85,1,2,-5,-2
1501880920427766,44,10,50,96,2,-1,0,15
1501880920427766,-37,1,-46,-108,-14,0,4,-10
1501880920429765,14,-16,-12,31,0,3,-2,0
1501880920429765,-23,5,39,127,16,-4,-6,-13
1501880920450767,-16,-12,-51,-91,-30,-5,-3,-11
1501880920450767,78,0,17,44,-1,-6,-3,2
1501880920451765,-95,-12,-38,-20,-1,1,0,-20
1501880920451765,4,6,-22,-56,2,5,0,1
1501880920463766,12,1,25,63,8,-3,-6,1
1501880920463766,19,-3,3,1,4,0,0,6
1501880920472766,34,11,20,-10,-4,-2,1,3
1501880920472766,-33,-22,-43,2,3,0,1,5
1501880920487769,73,9,39,41,12,2,-2,-18
1501880920487769,-31,-18,-26,-107,-30,-8,-6,-18
1501880920489769,9,14,38,55,12,1,1,-7
1501880920489769,3,-2,-21,15,4,2,2,44
1501880920510773,-37,4,-18,-22,4,2,2,36
1501880920510773,13,2,21,54,9,0,-1,23
1501880920512770,9,1,-12,-57,-2,0,0,-16
1501880920512770,-16,2,49,68,-1,-3,-7,9
1501880920523819,-78,-12,-82,-92,-16,-6,-5,-38
1501880920523819,23,-9,-34,8,0,-1,-1,-2
1501880920532771,-25,-6,-20,15,-3,-3,-3,4
1501880920532771,-2,0,-33,-88,-7,3,0,-25
1501880920547775,22,5,58,96,11,-4,-1,3
1501880920547775,-21,-2,14,16,-6,-5,-3,-23
1501880920549775,25,2,2,35,-11,-1,-1,3
1501880920549775,7,-8,-12,-5,0,1,-1,-26
1501880920570774,23,12,21,35,8,3,4,15
1501880920570774,-20,-18,-60,-15,-4,-3,-1,-18
1501880920571774,10,3,23,47,13,-1,0,42
1501880920571774,8,-8,-3,-63,-21,-9,-4,-40
1501880920583817,-47,4,-14,-25,-1,2,-2,-28
1501880920583817,5,0,51,100,13,-1,-3,0
1501880920592774,36,-3,-8,-106,-11,1,-3,-2
1501880920592774,23,7,22,50,2,4,7,10
1501880920607774,7,4,40,-8,11,0,2,10
1501880920607774,-48,-8,-54,17,-4,2,-1,-22
1501880920609775,-46,-11,-8,-45,-8,-5,-3,12
1501880920609775,37,3,22,95,7,-2,-7,19
1501880920630809,20,0,-17,-99,-3,0,0,2
1501880920630809,61,15,54,3,1,4,11,41
1501880920631779,-17,1,-30,11,1,2,-2,-26
1501880920631779,-3,-6,0,-41,-7,-5,-2,-2
1501880920643781,-16,-9,-22,-12,-11,-3,0,1
1501880920643781,7,2,3,19,3,-2,-4,6
1501880920652780,3,1,-11,31,8,-2,0,-8
1501880920652780,-4,3,-33,-51,-13,-1,-1,-4
1501880920667807,-53,-12,10,92,2,-1,0,-12
1501880920667807,74,3,11,13,-3,-6,-10,14
1501880920669787,-89,3,-10,-26,-1,0,2,-25
1501880920669787,-6,-5,2,0,5,2,0,20
1501880920690780,-14,-6,2,-34,0,-1,-6,-16
1501880920690780,-53,-5,-7,-26,-3,3,5,-25
1501880920691779,50,5,13,26,6,3,-1,-15
1501880920691779,-8,6,16,-20,-15,-8,-5,-1
1501880920703784,19,6,-5,4,-3,-1,1,16
1501880920703784,14,2,34,53,3,-1,-1,-1
1501880920712781,-35,-14,-12,-8,0,-1,-1,-14
1501880920712781,0,5,15,51,8,5,4,13
1501880920727781,24,-5,-15,-23,-12,-6,-4,0
1501880920727781,-11,7,10,62,13,4,3,5
1501880920729803,6,-9,8,-62,-2,-5,-1,23
1501880920729803,15,2,3,33,-1,0,-2,-5
1501880920750783,-4,6,19,50,18,4,5,9
1501880920750783,-32,-2,-8,-51,-4,-1,-1,-4
1501880920751785,36,0,-1,5,-7,-3,-3,-1
1501880920751785,-11,-6,-41,16,5,3,2,8
1501880920772785,5,-2,12,-118,-10,-4,-2,-23
1501880920772785,9,6,20,78,14,4,4,11
1501880920774784,39,5,20,-5,-14,-5,1,94
1501880920774784,-11,-7,-44,-73,-9,-7,-10,9
1501880920787798,-30,-8,3,60,-3,-1,3,0
1501880920787798,-5,-2,-22,-34,-3,2,-1,-18
1501880920789809,-39,-7,7,-22,-8,-6,-3,-23
1501880920789809,21,2,7,20,4,-3,-3,20
1501880920810808,3,-6,-13,-60,-2,-1,3,-1
1501880920810808,-31,-2,-8,-52,-5,-2,-5,17
1501880920811787,63,6,2,-2,9,2,1,16
1501880920811787,-25,-2,22,36,-4,-1,1,-23
1501880920832803,12,-10,-49,-17,-5,-4,-6,-19
1501880920832803,46,1,17,20,-1,-3,-1,-3
1501880920838790,-21,3,-4,3,0,-1,0,-5
1501880920838790,-2,0,38,62,13,7,4,0
1501880920847792,-31,-7,-19,-81,-10,0,-2,6
1501880920847792,22,8,23,51,-7,-6,-3,4
1501880920849790,7,-11,-15,31,2,-2,-5,-31
1501880920849790,-8,-9,-9,-32,0,1,2,-7
1501880920870794,16,4,-8,45,-3,-2,-1,7
1501880920870794,-29,-2,-22,-128,-7,-1,-1,28
1501880920871791,-10,10,26,12,4,3,1,-45
1501880920871791,1,7,68,57,15,0,2,42
1501880920892792,10,-12,-78,-40,-16,-9,-7,-8
1501880920892792,22,2,-26,5,1,-1,1,-4
1501880920894794,-21,-7,-6,-94,-9,-1,1,0
1501880920894794,-49,-3,9,45,-1,0,-5,-25
1501880920906794,27,9,46,77,13,4,4,24
1501880920906794,-13,-5,-11,-2,-4,-2,-2,8
1501880920913797,20,4,-8,12,3,2,1,11
1501880920913797,65,2,-18,-4,5,1,3,-13
1501880920930797,11,2,5,-31,-9,-1,-6,-1
1501880920930797,-23,-8,8,3,4,0,-1,-23
1501880920931793,20,2,15,46,3,2,1,11
1501880920931793,-12,9,-15,-20,-4,-2,1,58
1501880920952798,9,-6,4,43,1,0,-3,-64
1501880920952798,-14,2,10,-20,0,0,-2,11
1501880920954800,-6,-5,-23,-1,-8,-2,-7,-59
1501880920954800,-10,13,28,2,2,-1,1,-18
1501880920966797,-6,-13,-54,-93,-2,-1,-2,-6
1501880920966797,-10,-2,-9,8,-12,-4,-2,3
1501880920973805,-9,-2,29,52,4,-1,2,-1
1501880920973805,34,3,-13,-33,0,-3,-3,-1
1501880920990804,-71,-5,37,18,4,3,4,0
1501880920990804,33,-6,-12,25,3,-3,-6,-2
1501880920991798,-17,4,7,32,-3,1,3,15
1501880920991798,-17,-16,-34,-16,-5,-4,-3,42
1501880921012800,20,6,4,22,-1,-3,-4,14
1501880921012800,-9,2,9,12,7,3,4,-66
1501880921014800,20,-1,-27,-43,-11,-2,-4,13
1501880921014800,-9,-6,3,14,-4,-1,-2,-21
1501880921026801,63,5,15,58,7,-1,-2,34
1501880921026801,-32,1,0,-46,-5,0,-1,44
1501880921033800,3,-5,-2,19,8,-3,-3,-18
1501880921033800,-27,0,-5,-56,-11,-3,-4,-5
1501880921050801,3,10,-4,-8,8,4,5,19
1501880921050801,46,0,29,28,11,-3,-5,-2
1501880921051801,-54,-33,-37,-1,-13,-8,-5,16
1501880921051801,20,1,1,4,-4,-2,0,-16
1501880921072806,16,14,26,-20,2,3,1,38
1501880921072806,-18,2,-19,-6,4,7,4,-8
1501880921074803,-3,1,-6,-38,-4,-2,-1,8
1501880921074803,8,-1,18,15,-4,-4,-6,-24
1501880921086817,-23,0,-7,-21,-1,1,2,1
1501880921086817,17,-8,-4,12,-9,-5,-5,-29
1501880921095806,23,4,18,69,8,1,0,8
1501880921095806,0,-3,-1,-66,-2,1,3,-13
1501880921109804,2,1,11,36,-3,-3,-6,-11
1501880921109804,-15,-7,-23,-30,-8,-2,0,15
1501880921116806,7,10,18,5,4,2,2,-69
1501880921116806,-1,-4,-20,3,2,-1,-1,-21
1501880921132821,-31,-11,23,106,13,1,0,43
1501880921132821,17,6,-20,-111,-9,-2,0,-25
1501880921134807,2,-7,-41,-18,2,-3,0,6
1501880921134807,-29,4,6,2,-4,0,-1,-2
1501880921146808,52,-4,-5,-81,-13,0,-2,-6
1501880921146808,-27,-5,2,62,7,-1,-3,13
1501880921153809,17,7,36,27,-2,1,3,15
1501880921153809,-5,0,-21,-15,-1,-1,-3,2
1501880921170810,-15,2,16,14,10,0,2,-17
1501880921170810,-6,-1,-5,45,4,-1,0,1
1501880921171809,2,0,-13,-98,-8,2,-1,5
1501880921171809,18,-3,-9,24,2,1,3,27
1501880921192812,-9,-1,17,57,-2,-2,-4,-4
1501880921192812,5,-1,-19,-64,-10,-2,-2,-6
1501880921194810,-18,8,33,66,8,1,-1,-29
1501880921194810,13,-17,-64,-13,-11,-6,-5,5
1501880921206810,-20,-3,-10,-30,-5,-3,0,4
1501880921206810,2,4,5,4,9,4,3,-19
1501880921213811,-8,-1,-1,9,-4,1,-1,31
1501880921213811,-5,4,19,0,-2,-1,-3,-80
1501880921230819,-9,-6,-36,32,-3,-2,0,-20
1501880921230819,-2,-5,10,5,-8,-3,-1,-12
1501880921231813,7,-5,-16,-50,-2,0,-1,29
1501880921231813,-4,8,25,18,6,1,0,-53
1501880921252812,8,3,14,32,1,0,0,-3
1501880921252812,13,6,22,30,-3,-1,1,20
1501880921254815,8,1,-6,-28,2,-2,-5,10
1501880921254815,-10,-9,-16,12,-4,-4,-1,11
1501880921266814,-17,-6,1,-16,-6,-5,-4,6
1501880921266814,5,1,-2,-16,-1,-2,-2,-19
1501880921275815,-3,1,4,6,2,2,1,-8
1501880921275815,39,4,2,28,5,4,3,20
1501880921290819,-50,-5,-23,-64,-12,-3,-4,-22
1501880921290819,23,2,-1,-66,-2,-1,0,69
1501880921291816,-26,-6,-25,32,-3,-2,0,-45
1501880921291816,-21,-3,13,-1,3,0,0,10
1501880921312817,27,0,-11,0,-2,-2,-5,-25
1501880921312817,-17,-2,2,-9,6,-1,-1,-5
1501880921314817,-15,-8,16,0,-4,-2,-3,22
1501880921314817,2,6,-1,-42,-12,-4,-2,21
1501880921326819,83,7,-3,-16,3,0,1,14
1501880921326819,-28,-12,-5,11,-2,-2,-1,5
1501880921335819,18,-1,-23,-30,-6,-6,-4,9
1501880921335819,23,-2,15,30,3,0,-2,14
1501880921350817,-67,-11,8,-15,2,5,5,10
1501880921350817,7,-1,-15,109,1,-3,-5,-2
1501880921351818,3,0,-15,-45,-11,-2,0,-3
1501880921351818,3,3,36,0,-1,-3,-1,13
1501880921372840,14,-1,11,-70,-8,-4,-3,-25
1501880921372840,-3,-2,2,23,7,3,1,-42
1501880921374821,-21,-3,-17,19,4,1,2,36
1501880921374821,2,-8,-15,-57,-6,-5,-6,-5
1501880921386859,-4,12,36,83,8,4,2,-7
1501880921386859,-35,-14,-46,-31,-4,-2,0,-6
1501880921395822,13,-5,-7,-25,-5,-1,-4,-16
1501880921395822,17,4,12,53,5,2,6,46
1501880921410840,-6,-5,-14,0,-1,-8,-4,3
1501880921410840,-3,-3,0,-33,-14,-2,-4,22
1501880921411823,-18,5,0,24,6,3,0,-23
1501880921411823,-19,-1,9,27,1,0,-1,-2
1501880921432864,-9,-2,5,13,-1,1,4,45
1501880921432864,16,9,29,-5,8,3,1,-40
1501880921434843,8,-6,2,28,-7,-4,-3,-1
1501880921434843,-11,-5,-13,1,-5,-2,-1,-20
1501880921446824,-16,3,-8,51,8,4,3,20
1501880921446824,-5,3,3,-56,-2,1,-4,-66
1501880921455846,21,-1,24,-4,0,-6,-1,60
1501880921455846,-14,0,7,17,7,0,-5,-35
1501880921470872,2,-7,-23,-15,-8,-4,-2,-20
1501880921470872,1,4,-9,4,1,1,3,42
1501880921471826,-12,-2,10,-3,2,-1,1,-18
1501880921471826,5,-9,-29,-1,-6,0,2,13
1501880921492846,4,8,14,37,12,0,-3,-14
1501880921492846,14,-8,0,-67,-14,-4,-2,14
1501880921494847,-7,7,7,-7,0,-1,0,-30
1501880921494847,-1,-1,-9,-24,-3,-3,0,17
1501880921506848,6,3,30,-9,-2,1,-2,-4
1501880921506848,-16,-10,-11,35,-5,-2,0,9
1501880921515832,15,-2,0,-23,-4,0,0,-3
1501880921515832,-5,-3,-19,-2,4,1,-1,-1
1501880921530842,0,9,17,-28,4,0,0,2
1501880921530842,8,2,-7,78,3,-3,-1,0
1501880921531830,-4,-6,16,-4,8,3,4,8
1501880921531830,-28,-5,2,-2,-12,-7,-6,-67
1501880921553832,20,-1,1,3,-5,-1,-1,-22
1501880921553832,6,2,-4,-17,0,-4,-4,-43
1501880921554831,0,-1,-13,16,1,3,-1,-17
1501880921554831,34,9,12,-2,6,3,4,31
1501880921575834,-19,-11,-30,-54,-9,-3,-3,-13
1501880921575834,8,1,10,10,6,1,3,43
1501880921576832,16,6,12,28,7,-1,-2,13
1501880921576832,-14,-7,-20,29,-2,-2,0,-3
1501880921590870,13,-4,-7,-32,-13,-2,-2,3
1501880921590870,47,6,-8,-22,-3,1,2,38
1501880921591833,-36,-5,9,9,2,0,-3,29
1501880921591833,-16,2,11,9,-1,2,-1,-16
1501880921612834,-15,-8,-40,-11,2,-3,-4,-6
1501880921612834,0,2,24,12,1,1,3,22
1501880921614834,2,3,-30,-45,-9,-2,-1,-21
1501880921614834,-18,-7,-11,61,8,-2,-2,11
1501880921626836,16,0,5,-57,-12,-2,-2,-4
1501880921626836,-12,-4,4,59,-6,-7,-6,-13
1501880921635855,3,-6,-7,2,-1,0,0,7
1501880921635855,-14,3,7,-2,7,2,3,6
1501880921650835,17,3,-26,-56,-8,0,-5,-86
1501880921650835,-10,-4,-12,17,-2,-1,3,2
1501880921651835,9,12,41,72,10,5,4,4
1501880921651835,21,-11,-17,-99,-15,-6,-6,-4
1501880921672842,-4,1,-3,13,-3,0,1,30
1501880921672842,14,-7,-22,-14,-3,-4,-3,29
1501880921674837,-22,0,15,-10,-2,-2,0,-36
1501880921674837,10,3,5,3,6,5,5,-8
1501880921686900,1,0,-1,9,4,-1,-2,9
1501880921686900,-13,1,8,18,-2,1,1,-5
1501880921695838,-5,-3,-19,-18,-1,-4,-5,7
1501880921695838,-7,5,4,-9,-4,-4,-4,-45
1501880921710848,-5,-2,10,29,-1,-1,2,14
1501880921710848,-17,4,3,-23,-1,0,-1,-30
1501880921711840,21,0,9,-3,3,3,2,8
1501880921711840,-22,-4,-28,-1,0,0,-1,5
1501880921732880,-14,5,23,50,6,0,2,-63
1501880921732880,-3,-4,5,-97,-13,-5,-1,7
1501880921734869,8,2,-16,27,-2,-4,-5,-4
1501880921734869,-1,-10,-16,-52,-4,2,0,16
1501880921754844,17,7,48,112,11,3,5,69
1501880921754844,20,-5,-18,7,-6,-4,-4,1
1501880921756843,-13,2,13,-2,-2,-2,1,-16
1501880921756843,17,1,12,-8,-1,-1,0,5
1501880921770843,-4,-1,11,-21,6,1,1,32
1501880921770843,-26,3,-1,79,11,2,0,-20
1501880921771843,-11,-12,-23,-105,-27,-8,-5,-3
1501880921771843,30,10,26,65,10,2,0,11
1501880921792887,-29,-6,2,12,0,-2,-1,12
1501880921792887,7,-3,-19,-32,-1,-1,-4,-10
1501880921794871,-24,-6,-14,29,-2,-2,-1,-4
1501880921794871,14,7,18,10,2,0,-1,-27
1501880921815854,2,-4,9,-9,-4,-3,-2,3
1501880921815854,-5,1,-12,16,6,1,3,-3
1501880921816852,6,-4,-21,-17,6,0,0,20
1501880921816852,-14,0,-2,-63,-11,-4,-3,-41
1501880921830847,19,6,16,62,7,2,-1,19
1501880921830847,-13,-14,-54,8,-6,-6,-5,-31
1501880921831848,1,8,4,-7,8,5,4,-40
1501880921831848,-29,-12,-13,-1,-11,-5,-1,63
1501880921852848,15,0,-14,-5,3,2,2,11
1501880921852848,-19,7,28,-27,-3,3,-1,-39
1501880921854848,18,-4,-1,45,5,-2,-2,86
1501880921854848,0,2,8,-22,1,-3,3,-17
1501880921875860,9,-5,-21,5,-11,-4,-2,-25
1501880921875860,15,6,30,12,0,-1,0,18
1501880921876859,3,-1,15,30,0,-2,2,9
1501880921876859,2,-10,-8,2,-1,0,-1,-2
1501880921889863,-29,1,-11,-53,-2,-4,-2,35
1501880921889863,14,1,5,61,7,3,4,-14
1501880921896853,4,1,30,-37,-18,-4,-4,-20
1501880921896853,0,-5,-38,18,-2,-2,-5,-29
1501880921912853,-25,-6,6,11,0,-1,0,-16
1501880921912853,12,6,9,-7,4,0,0,34
1501880921914852,-13,-6,-6,15,-7,-6,-4,-26
1501880921914852,-26,3,7,51,4,2,0,-4
1501880921935852,16,1,-21,-83,-11,-1,0,44
1501880921935852,-13,0,12,2,2,-1,-1,-17
1501880921937857,-9,-2,-36,-43,1,2,0,-37
1501880921937857,32,0,15,33,-2,-2,1,57
1501880921949855,7,-2,13,68,10,1,-2,-31
1501880921949855,-22,-4,0,-48,-23,-4,-1,-8
1501880921956854,37,2,6,-8,-1,-2,-3,12
1501880921956854,12,5,-23,0,4,1,3,30
1501880921972856,-7,-12,9,-39,0,2,4,32
1501880921972856,-20,-2,2,16,2,-4,-7,-34
1501880921974857,19,11,-16,12,13,6,3,-16
1501880921974857,-52,-18,7,38,-8,-8,-8,-14
1501880921994863,-11,4,-10,-92,-11,-4,-1,-7
1501880921994863,23,1,-3,0,4,-1,2,47
1501880922001860,-18,-9,5,6,-6,-3,-1,0
1501880922001860,19,10,14,11,5,1,0,-3
1501880922009857,-15,-5,-21,-2,-4,-2,-4,-18
1501880922009857,-4,-12,-5,-3,-1,-4,-3,-29
1501880922016859,1,0,4,21,-5,-3,-1,-10
1501880922016859,24,0,11,-60,-1,0,1,54
1501880922032872,-14,-8,-33,70,-4,-4,-5,-37
1501880922032872,1,4,15,-50,0,1,1,10
1501880922034859,-5,-2,-24,-12,2,2,-1,8
1501880922034859,1,1,-3,-10,0,0,-2,-18
1501880922055862,7,-2,11,-27,1,-1,-1,-5
1501880922055862,-5,-1,8,48,1,-1,0,4
1501880922056862,-14,-3,-6,48,8,-1,-1,19
1501880922056862,0,-7,-36,-14,-6,-2,-4,-21
1501880922069875,13,5,0,-70,-17,-5,-6,-69
1501880922069875,-30,-3,2,15,-1,0,-3,9
1501880922076864,7,-8,-9,-14,-6,-1,0,-9
1501880922076864,5,11,35,70,5,1,-1,-17
1501880922092862,-1,-9,-24,-39,-3,-6,-6,2
1501880922092862,2,-8,-30,-36,-7,-5,-5,0
1501880922094863,-8,7,6,-11,3,-1,-2,-13
1501880922094863,-25,-11,26,8,1,-1,1,-15
1501880922114864,11,6,-49,27,5,3,7,59
1501880922114864,7,-3,7,9,0,-2,-7,-72
1501880922116865,-24,-11,-37,-66,-20,-9,-6,-7
1501880922116865,23,5,5,-21,2,0,4,12
1501880922129865,-17,1,34,19,4,-3,-4,-14
1501880922129865,-7,-3,-26,-16,-2,0,0,23
1501880922136879,4,3,10,34,4,1,-1,-20
1501880922136879,-1,5,0,-27,-5,-3,-2,-22
1501880922152868,-9,-9,7,9,-2,0,0,1
1501880922152868,8,0,26,-21,8,2,2,28
1501880922154867,-9,1,8,50,-1,-2,-5,-25
1501880922154867,4,0,26,-29,-8,-4,-1,17
1501880922174868,5,5,-3,61,9,2,0,-9
1501880922174868,19,0,-8,-92,-11,-4,0,25
1501880922181882,1,-2,-8,-13,3,-1,1,14
1501880922181882,0,1,-16,-1,7,3,3,-10
1501880922189878,2,-1,4,9,-4,-3,-1,28
1501880922189878,-15,1,20,53,-2,-4,-4,-8
1501880922196868,22,3,17,72,6,1,2,24
1501880922196868,-22,2,-8,-83,-6,0,-3,-55
1501880922212872,-6,-4,-1,-18,0,1,0,-43
1501880922212872,-9,4,10,27,1,1,1,-4
1501880922214870,19,-3,2,-28,0,-4,-3,14
1501880922214870,4,-3,-18,44,3,0,1,26
1501880922234886,-3,2,23,48,6,2,1,-4
1501880922234886,-34,-4,-34,-86,-12,-1,-5,-16
1501880922237871,-9,-4,27,18,5,-2,0,5
1501880922237871,19,3,-8,13,1,0,0,1
1501880922248873,-3,-2,-24,-14,-8,-5,-4,-22
1501880922248873,4,-6,-15,27,6,2,1,8
1501880922257872,-15,1,24,-24,-2,1,0,2
1501880922257872,-4,-1,-1,3,2,1,1,52
1501880922272877,-6,3,3,7,6,-1,-6,-41
1501880922272877,14,1,-9,41,0,-2,3,-1
1501880922274877,-9,-3,1,-54,-6,-1,-1,-25
1501880922274877,-1,-1,38,84,-5,-2,-1,-3
1501880922295873,1,-4,-9,-51,-4,-1,0,1
1501880922295873,7,-3,-8,9,7,1,1,10
1501880922296873,-1,1,-2,27,1,-3,-2,0
1501880922296873,-12,1,-4,-40,3,1,1,4
1501880922308874,-13,-3,-20,0,-7,-5,-1,7
1501880922308874,13,5,39,61,2,-1,-2,-4
1501880922317882,-11,-6,-19,-9,-1,-2,-2,10
1501880922317882,5,-4,1,-33,-6,-3,-7,-9
1501880922332889,16,4,-13,-18,2,4,3,17
1501880922332889,-5,2,15,6,0,2,2,1
1501880922334877,-2,-4,-24,14,-5,-1,-1,-1
1501880922334877,-10,1,10,-31,2,-1,-1,-3
1501880922354877,9,-7,-13,50,-1,-2,-5,-32
1501880922354877,12,-7,-4,-97,-26,-8,-4,20
1501880922356877,-18,5,0,22,6,5,3,-2
1501880922356877,-1,-4,-28,-45,-5,-4,-2,-27
1501880922368895,4,1,42,-6,1,0,1,31
1501880922368895,-7,4,0,17,3,0,0,-4
1501880922377878,9,4,11,3,1,1,-1,-2
1501880922377878,-24,-9,-28,-15,-8,-1,0,-9
1501880922393896,2,-5,8,-26,-12,-5,-5,16
1501880922393896,13,3,-10,52,7,-2,-2,-3
1501880922394883,-26,-3,4,-21,-5,-2,1,34
1501880922394883,-17,-4,-11,31,8,1,-2,-62
1501880922421880,2,1,10,-13,-7,-1,1,3
1501880922421880,-19,-5,-9,14,5,0,-1,-12
1501880922430901,37,4,-17,-37,-14,-4,-5,-10
1501880922430901,22,-1,12,-17,-5,-1,1,22
1501880922431885,-34,-8,-13,35,4,2,1,-3
1501880922431885,5,3,18,3,-4,0,-1,-22
1501880922437882,-14,-4,-22,-31,9,-1,-1,6
1501880922437882,5,9,11,81,-4,-5,-8,-5
1501880922452902,5,-2,7,67,7,0,1,-2
1501880922452902,-6,-4,8,-52,-9,-2,-1,21
1501880922454916,5,0,1,11,-8,-4,-3,-6
1501880922454916,31,4,-10,38,10,2,2,30
1501880922474885,-5,0,31,-13,5,2,1,4
1501880922474885,7,-9,-52,-8,-4,-2,-1,15
1501880922481917,-3,1,18,20,3,1,3,-8
1501880922481917,-7,-3,-20,-69,-4,-2,-2,16
1501880922488941,0,7,31,35,6,-1,0,9
1501880922488941,18,0,5,8,4,0,-1,4
1501880922503906,19,-1,-14,-76,-5,-1,1,-10
1501880922503906,-40,-3,31,113,15,2,3,-13
1501880922512888,-1,-2,-27,-128,-25,-7,-6,20
1501880922512888,-5,4,8,7,6,0,-3,-70
1501880922514917,18,3,0,15,3,0,2,0
1501880922514917,-14,-14,-17,-10,-11,-4,-3,6
1501880922535898,-5,4,5,-2,1,0,2,-29
1501880922535898,-22,-9,-38,-17,-4,-1,-5,12
1501880922536893,-6,0,-3,27,1,-1,-1,1
1501880922536893,11,1,22,18,-3,-3,-6,-32
1501880922548889,3,-2,-32,-19,1,1,1,1
1501880922548889,10,7,11,-38,4,1,2,17
1501880922557889,-9,-8,-28,31,-1,-3,-4,1
1501880922557889,2,3,1,-36,-13,-1,-2,5
1501880922572891,16,-4,-6,7,-3,-4,-2,45
1501880922572891,-16,6,1,18,6,-2,-3,-20
1501880922574890,-19,0,1,-3,-4,-2,-3,-35
1501880922574890,21,0,-6,-10,2,-1,2,9
1501880922594915,9,4,-1,4,3,6,4,-14
1501880922594915,-11,-2,19,-10,-5,-3,0,22
1501880922596892,4,-4,-8,49,6,-2,-3,33
1501880922596892,20,9,-10,-42,-13,0,3,16
1501880922609913,0,-5,3,11,4,1,0,-5
1501880922609913,4,4,11,12,5,0,2,10
1501880922617896,-7,0,32,28,5,1,-2,-11
1501880922617896,-13,-1,-42,-62,6,1,2,5
1501880922633907,-1,-3,-9,5,-2,-8,-7,11
1501880922633907,16,0,19,82,2,-1,1,16
1501880922634893,5,4,12,-31,-8,-1,0,6
1501880922634893,-1,-5,1,-7,0,2,2,70
1501880922654932,-4,0,-3,-3,2,-1,0,-63
1501880922654932,-13,1,11,11,2,4,4,8
1501880922656894,-21,-19,-32,-68,-13,-4,-5,-10
1501880922656894,5,1,-5,-11,0,-4,-4,4
1501880922677914,2,-1,-1,10,1,1,-1,18
1501880922677914,6,4,-2,-39,4,1,2,12
1501880922679897,25,-5,7,60,-4,-2,1,13
1501880922679897,-13,-3,22,22,-1,-2,-1,-28
1501880922693914,-4,-3,-19,26,2,-1,-1,12
1501880922693914,-7,-1,-18,-90,-8,-3,-4,-40
1501880922694902,-1,3,7,20,5,4,4,13
1501880922694902,21,-7,-1,-16,-10,-7,-8,62
1501880922715900,-11,6,-1,17,5,1,-3,-69
1501880922715900,-1,-5,-18,-47,-7,2,0,14
1501880922716905,-12,7,20,2,1,-1,-2,-11
1501880922716905,-3,-8,5,28,2,-1,1,-13
1501880922737906,20,3,7,19,3,2,1,19
1501880922737906,-27,-15,-26,-36,-7,-5,-4,13
1501880922740904,12,4,16,17,2,-3,-2,4
1501880922740904,-9,5,-6,21,0,3,2,-28
1501880922752900,3,-6,-24,-39,-2,-2,-2,28
1501880922752900,5,5,21,109,11,2,0,-9
1501880922754922,7,-3,6,-57,-5,-2,-1,28
1501880922754922,-9,-5,-20,-39,-4,-2,-1,-30
1501880922790903,6,6,33,-35,-7,-2,0,11
1501880922790903,20,3,9,72,4,0,0,-1
1501880922791903,-5,5,3,32,2,5,2,2
1501880922791903,-25,-4,-7,6,8,-3,0,26
1501880922797906,41,-3,1,-1,-5,-1,0,-28
1501880922797906,-29,-7,-1,22,-2,2,-2,-23
1501880922799903,15,-2,-38,-43,-9,0,0,5
1501880922799903,-13,0,30,-23,2,-1,-2,-22
1501880922811904,-8,3,-4,19,2,-1,0,23
1501880922811904,5,1,-10,-1,0,-6,-1,10
1501880922826905,-9,-3,1,-36,0,3,1,-14
1501880922826905,13,2,-2,12,1,6,1,10
1501880922834905,-6,-3,7,20,-5,-3,-2,32
1501880922834905,22,-3,0,5,1,2,1,25
1501880922842905,-10,5,10,44,6,-6,-5,4
1501880922842905,-15,-6,0,-10,-5,-3,-1,-68
1501880922857906,-2,-4,-16,-42,-2,0,-4,-9
1501880922857906,4,0,16,7,-14,-5,-3,7
1501880922859908,17,2,-22,2,0,-1,2,42
1501880922859908,8,7,15,-18,4,-2,-4,-21
1501880922871910,-20,-9,-53,37,-1,3,3,14
1501880922871910,-12,-9,5,-60,-4,3,-2,0
1501880922878908,4,9,31,71,10,0,0,-12
1501880922878908,1,-1,-10,-28,-13,-4,0,0
1501880922902912,-20,-7,-31,-40,-3,-1,1,12
1501880922902912,6,10,22,4,4,3,1,-8
1501880922904911,-27,-20,-53,-54,-4,-1,-2,-27
1501880922904911,9,-1,0,50,3,-1,-3,32
1501880922917909,-6,2,16,-27,6,-3,0,-14
1501880922917909,9,-10,-37,61,-5,-4,-1,10
1501880922919911,-18,-1,11,16,-3,1,2,-2
1501880922919911,3,5,12,-74,-4,5,-1,-7
1501880922931912,15,0,5,-21,-5,0,-2,-39
1501880922931912,-3,0,8,-10,3,1,3,-1
1501880922938914,9,0,-2,51,5,-1,-2,-12
1501880922938914,-19,-2,9,6,1,-3,0,10
1501880922954915,14,4,-14,-65,-5,0,0,2
1501880922954915,4,2,21,26,0,-6,-9,-27
1501880922956912,-22,-1,0,27,-2,0,-1,-15
1501880922956912,20,-7,-28,1,-1,-1,0,5
1501880922977916,-4,6,33,74,13,3,4,77
1501880922977916,-4,0,-29,-104,-17,-10,-1,-44
1501880922979914,4,-5,-4,17,-5,-3,-6,6
1501880922979914,13,4,0,-77,-2,-1,-1,-2
1501880922991916,-9,-13,-33,94,3,-3,-2,19
1501880922991916,5,7,28,-7,1,0,0,23
1501880923000916,10,-4,-35,-40,-11,-3,-2,-10
1501880923000916,16,0,-5,-4,-2,1,-1,-1
1501880923014917,-29,-5,28,22,-7,-2,-5,-22
1501880923014917,-9,5,23,22,10,3,3,31
1501880923016916,-4,5,-17,-28,0,0,-2,-37
1501880923016916,18,1,3,44,2,-1,0,22
1501880923037923,-7,-1,36,-45,0,0,-3,-48
1501880923037923,-20,-9,-25,-10,-3,0,-4,-13
1501880923039922,41,7,39,49,3,-1,1,87
1501880923039922,4,0,-9,-18,-8,-5,-5,-18
1501880923051919,-9,0,-11,14,-6,-3,1,-4
1501880923051919,-6,3,-2,-48,0,1,-3,-29
1501880923058919,-14,-5,-37,-25,-2,-3,0,-5
1501880923058919,-2,-6,-8,18,-1,-1,0,6
1501880923075920,4,6,25,15,0,-3,-4,-3
1501880923075920,7,-2,0,48,10,1,3,10
1501880923076925,5,0,12,-44,3,6,-1,-19
1501880923076925,-9,0,-22,27,1,-1,-1,5
1501880923097921,-18,-5,-37,13,-2,0,-4,-54
1501880923097921,-1,7,18,-54,-10,-3,0,21
1501880923099921,-9,-8,-10,33,2,-3,-1,-27
1501880923099921,-13,0,16,14,-3,2,1,-21
1501880923111923,20,0,14,-35,2,-2,-2,24
1501880923111923,12,-2,-17,48,-6,-2,-3,5
1501880923118926,-11,-3,12,-15,-6,-2,-2,-18
1501880923118926,-10,-3,-1,1,-2,-2,-1,12
1501880923134937,0,-3,-8,-8,-1,-2,0,9
1501880923134937,0,-1,-10,21,6,0,0,-6
1501880923137924,0,3,38,-50,-9,-2,-1,7
1501880923137924,-12,-9,-25,42,1,-4,-5,-23
1501880923157927,9,2,13,11,5,-2,-1,1
1501880923157927,-20,-2,5,-17,-14,0,0,15
1501880923159925,37,-2,-15,-6,7,-2,-1,-1
1501880923159925,-29,-4,33,22,0,-3,-1,1
1501880923171926,1,1,-12,-12,-4,5,2,-6
1501880923171926,-2,-2,10,5,4,-6,-4,-24
1501880923180926,-20,0,1,27,3,7,6,48
1501880923180926,5,-1,-3,-24,5,4,-1,-58
1501880923194929,-2,3,-4,-18,-5,-2,0,64
1501880923194929,2,-14,-14,6,3,0,-3,-35
1501880923196926,-11,9,43,42,4,-3,-3,-3
1501880923196926,6,-5,-22,-69,-10,0,1,8
1501880923217930,6,5,22,30,3,0,-1,24
1501880923217930,-39,-2,-13,-29,2,3,-1,-48
1501880923219930,10,-5,-12,4,-9,-8,-7,-16
1501880923219930,15,9,1,23,8,5,2,22
1501880923239929,-3,-7,-14,-37,-5,-3,-1,-29
1501880923239929,23,-3,9,33,-3,-4,-3,33
1501880923241929,-6,-3,4,-38,0,-1,-1,-2
1501880923241929,-7,1,6,15,2,0,3,11
1501880923255950,6,2,8,76,6,-2,-1,45
1501880923255950,0,-7,-45,-102,-21,-3,-4,-20
1501880923257931,-9,1,-4,4,-6,-7,-2,-17
1501880923257931,2,-2,6,23,0,3,-2,15
1501880923277933,4,0,-10,-29,5,0,2,-9
1501880923277933,1,2,11,37,4,-1,1,25
1501880923279932,-10,1,11,-1,3,3,0,-10
1501880923279932,4,0,-12,25,2,-9,-2,2
1501880923291931,-8,-2,14,-35,-13,3,-3,-37
1501880923291931,9,9,-4,35,7,5,2,12
1501880923300937,0,-8,8,-46,0,-1,1,15
1501880923300937,-8,-5,16,65,-2,-3,-4,-51
1501880923314949,-19,0,-4,-38,-5,-2,-1,2
1501880923314949,17,0,-29,73,0,-6,-2,14
1501880923316936,11,1,-20,-74,-7,2,-1,8
1501880923316936,-2,-3,13,-7,-2,1,0,13
1501880923337941,-5,-4,-13,21,0,-3,-1,-18
1501880923337941,-4,-1,29,4,2,-3,0,-16
1501880923340943,4,-2,-16,-21,4,-1,2,-3
1501880923340943,-32,1,13,14,0,2,-5,-29
1501880923351954,-2,-5,-5,-62,-11,-6,-4,-35
1501880923351954,6,-4,-13,-16,5,6,3,55
1501880923360936,-16,-5,-13,5,0,-3,-3,-15
1501880923360936,10,7,8,-56,-6,-3,1,31
1501880923374954,1,-4,3,46,2,-2,-2,-13
1501880923374954,1,5,19,-2,2,1,-1,6
1501880923376937,-14,-3,-8,21,-1,-5,-2,-4
1501880923376937,1,0,-10,-87,-7,4,3,8
1501880923397938,12,-6,2,102,0,-23,-13,27
1501880923397938,-1,-2,-30,-57,-13,9,4,-18
1501880923399939,-5,0,23,25,1,13,4,-6
1501880923399939,3,2,-15,-28,1,-5,0,-5
1501880923411941,1,0,22,19,-1,9,2,-16
1501880923411941,-8,-3,-3,-2,0,-13,-4,-2
1501880923420940,11,-2,-10,-10,-5,-3,-4,18
1501880923420940,2,-1,18,30,4,3,-1,10
1501880923434959,20,0,-31,28,1,-4,-2,-5
1501880923434959,-7,1,23,-3,3,1,-3,-11
1501880923437941,-1,1,18,-26,-11,-11,10,0
1501880923437941,9,-1,-41,2,7,16,5,40
1501880923457942,-2,1,2,-15,1,4,3,-12
1501880923457942,11,-4,-6,19,-1,-6,-6,1
1501880923459942,-18,0,4,-12,9,3,-2,-13
1501880923459942,-6,-1,11,48,8,-5,-1,-7
1501880923481961,5,3,15,-23,-3,3,-4,-65
1501880923481961,0,-1,-6,-19,-1,-4,0,0
1501880923486963,23,-3,-8,13,-7,5,-3,-6
1501880923486963,-1,3,6,10,-5,-3,-3,4
1501880923494945,-24,-11,-45,-16,4,-3,0,15
1501880923494945,-1,8,24,-11,12,12,3,-6
1501880923496945,-3,-9,-19,36,-13,-8,-3,-19
1501880923496945,6,1,3,-26,-3,0,-1,8
1501880923518005,5,1,7,9,-1,0,2,9
1501880923518005,-12,-9,-40,-1,-9,-11,-7,-1
1501880923519968,-22,-3,13,-51,-5,0,-4,0
1501880923519968,4,-1,-1,64,0,-3,2,-26
1501880923531956,9,4,3,9,-1,-3,0,70
1501880923531956,-3,-2,-2,-20,1,5,0,-18
1501880923540946,-1,3,-18,-19,2,1,-1,10
1501880923540946,-13,-4,7,44,-8,-9,-6,-11
1501880923554953,6,3,19,5,1,2,1,-6
1501880923554953,20,0,-12,38,4,-1,0,38
1501880923556947,4,-8,-34,-19,-1,-1,-5,-25
1501880923556947,-26,-6,-17,-2,1,2,0,-5
1501880923577948,6,2,14,-50,-4,4,2,-8
1501880923577948,19,3,18,-23,1,-5,1,66
1501880923579978,7,6,7,62,6,6,7,21
1501880923579978,-14,-12,11,29,5,-6,-6,-37
1501880923599954,-19,-7,-32,8,-7,2,1,-20
1501880923599954,-1,-9,-13,-36,-7,-5,-1,-13
1501880923601956,11,9,28,28,7,7,5,21
1501880923601956,31,-3,-3,-21,-5,-3,-5,27
1501880923614972,-9,-2,12,15,5,0,-1,-7
1501880923614972,-4,0,0,1,-7,1,-2,-27
1501880923616956,-1,-1,-7,4,3,-7,-4,5
1501880923616956,4,1,-14,-4,-3,1,0,0
1501880923636992,4,3,12,-31,0,2,0,-6
1501880923636992,-22,4,5,38,0,-2,-1,-19
1501880923645959,0,-6,-7,-7,-1,1,-4,-22
1501880923645959,12,6,5,-47,-15,-4,-1,14
1501880923659958,-13,-3,-3,-18,-3,-3,0,29
1501880923659958,-9,0,15,8,6,3,-2,-37
1501880923661957,-7,0,-32,51,3,1,-1,-9
1501880923661957,-3,-1,24,-52,-5,-9,3,34
1501880923674958,-5,-1,-27,-36,-2,2,0,-21
1501880923674958,3,2,20,-7,-2,3,1,4
1501880923676954,1,-4,8,63,1,-2,7,-9
1501880923676954,-24,1,3,-50,-4,-2,-9,13
1501880923704977,-1,0,-15,79,-2,-5,-1,-7
1501880923704977,-6,-1,13,-30,-2,1,1,-2
1501880923706956,-12,-2,0,-31,-4,-5,-3,-8
1501880923706956,10,-5,12,16,5,6,0,-2
1501880923720011,-6,-1,-23,-11,0,-2,2,-1
1501880923720011,3,-10,-25,25,2,1,-1,-14
1501880923721959,-6,1,5,12,-4,-5,-1,16
1501880923721959,-1,3,13,-24,-5,-3,-3,-8
1501880923734993,6,2,14,-25,0,5,-3,-2
1501880923734993,-9,-12,-40,-40,-15,-5,-5,23
1501880923741982,31,5,8,-14,2,-2,4,7
1501880923741982,-37,-1,-12,19,7,-3,2,-26
1501880923757976,-2,-2,11,42,-2,2,-6,5
1501880923757976,3,4,2,-18,-4,-8,-2,2
1501880923759970,8,5,30,-8,-2,5,-3,10
1501880923759970,12,-3,-27,35,0,-3,-1,8
1501880923780995,-4,-5,3,-48,-1,-3,-1,9
1501880923780995,0,5,5,16,-5,-1,3,-11
1501880923782988,-28,-8,-26,-38,1,-1,-7,-5
1501880923782988,25,0,-7,-3,-2,-3,2,-4
1501880923794964,16,6,28,11,4,-1,2,-7
1501880923794964,0,-5,24,-4,1,0,-2,1
1501880923808962,-7,-3,1,-1,-1,-3,-2,-6
1501880923808962,8,-1,-1,19,6,3,2,-6
1501880923817963,-10,-6,-13,-4,-8,-4,-3,44
1501880923817963,1,5,4,-18,5,7,8,-11
1501880923819974,-5,-1,1,42,3,-1,-3,-17
1501880923819974,14,-5,-25,-37,-15,-9,-5,42
1501880923839965,-20,0,6,-17,5,2,1,-29
1501880923839965,-9,-2,-22,-3,0,3,0,12
1501880923841964,-2,2,14,-22,-1,-2,-3,-5
1501880923841964,-10,-1,5,40,0,-1,0,2
1501880923854965,3,1,20,12,4,4,0,-16
1501880923854965,-15,-3,2,30,6,-1,1,-7
1501880923861965,1,-4,10,-23,-10,-6,-8,-28
1501880923861965,8,9,-9,-40,0,-2,2,-8
1501880923877968,10,0,4,-12,-2,-3,-1,6
1501880923877968,-19,-5,8,30,4,-1,-5,-9
1501880923879968,-7,-2,-9,-17,0,2,3,13
1501880923879968,13,-7,-16,25,2,-1,1,5
1501880923899987,0,0,3,18,1,4,-5,-5
1501880923899987,5,8,-3,12,2,-3,-1,3
1501880923901968,0,0,15,-18,-6,-1,-1,20
1501880923901968,11,-3,-1,42,5,1,-2,-18
1501880923914969,-9,-5,-7,-15,0,-3,2,13
1501880923914969,6,-1,21,-74,-17,-6,-3,37
1501880923921970,-12,-6,-51,27,1,-1,-6,-31
1501880923921970,-21,1,-9,-9,9,6,3,-22
1501880923937972,20,0,-6,14,-2,-4,1,11
1501880923937972,2,4,15,5,2,-6,-2,-3
1501880923940977,22,-4,8,-14,-5,4,-1,-3
1501880923940977,-32,-3,15,3,-2,0,-1,-17
1501880923959973,-8,-2,-66,-66,6,-1,2,-6
1501880923959973,8,-8,22,93,-1,-1,-3,-11
1501880923961972,-42,2,-44,-53,-7,-3,0,-24
1501880923961972,27,4,47,59,-2,-3,-2,12
1501880923974972,-3,-3,-16,-36,-7,-2,-2,14
1501880923974972,9,5,4,19,7,4,1,-6
1501880923981971,-5,0,-4,-18,5,2,4,3
1501880923981971,-9,-10,-24,-6,-9,-4,-7,-30
1501880923997974,9,5,36,15,-4,-3,0,-4
1501880923997974,-15,-6,-29,-4,-1,-4,-2,14
1501880923999976,8,1,22,37,7,-1,-3,0
1501880923999976,-19,9,4,-52,3,4,4,5
1501880924019989,11,0,12,43,0,-2,-1,-13
1501880924019989,4,-2,-2,-12,-3,0,-3,-11
1501880924021976,9,1,23,40,0,-5,-2,14
1501880924021976,11,-2,-32,-70,-8,-1,-2,-4
1501880924034976,-45,-4,6,3,-1,0,-4,-16
1501880924034976,1,-5,-18,-9,3,-4,-2,9
1501880924041976,5,1,3,1,-7,0,-1,-2
1501880924041976,5,4,11,6,4,2,-1,26
1501880924057976,5,1,-6,-28,1,1,3,1
1501880924057976,14,-7,-14,51,-5,-7,-3,-12
1501880924065978,-19,0,18,-12,2,8,3,-6
1501880924065978,6,-9,-40,-13,-7,-4,-4,14
1501880924079991,-8,2,15,3,-1,0,0,-14
1501880924079991,17,6,9,-46,-5,0,2,7
1501880924081979,2,-3,3,61,-3,-9,-4,8
1501880924081979,6,2,15,34,7,5,2,5
1501880924093983,-15,4,-17,14,-2,-5,-1,-2
1501880924093983,-3,-4,8,-43,-9,3,-1,-18
1501880924102979,2,-1,7,-18,1,-1,1,9
1501880924102979,-4,-7,-33,-20,-2,-3,-2,-7
1501880924118979,6,-1,29,10,-1,-3,-5,2
1501880924118979,-7,4,-14,0,-1,0,-2,-5
1501880924119980,13,-1,-10,-23,0,1,2,31
1501880924119980,-19,-2,24,27,1,-4,2,-20
1501880924140998,5,0,-22,-10,-1,2,-1,-11
1501880924140998,2,-1,7,37,6,0,-2,3
1501880924141982,12,-4,-12,-58,-5,-5,-3,9
1501880924141982,5,1,9,14,-2,3,3,0
1501880924153985,0,0,6,-10,1,0,1,11
1501880924153985,11,2,-4,11,2,4,3,-10
1501880924162983,6,-5,-13,-29,-7,-7,-4,47
1501880924162983,-6,1,-17,-15,2,1,0,-71
1501880924177985,1,-7,17,-2,-8,0,1,14
1501880924177985,21,11,20,20,0,-2,0,4
1501880924178984,-10,1,-20,-1,2,0,0,-5
1501880924178984,-10,-2,-2,35,1,-1,0,10
1501880924199987,-1,-6,-1,51,2,0,-2,1
1501880924199987,-30,0,-22,-95,-8,-1,-1,2
1501880924201987,2,0,24,59,2,-4,-3,-24
1501880924201987,-6,-10,-10,4,-13,-3,-3,5
1501880924223004,4,-5,-9,2,0,-2,-2,-19
1501880924223004,5,-2,-16,5,5,2,0,14
1501880924224007,-2,-4,-13,-15,-7,2,-1,-11
1501880924224007,-8,0,0,-47,-1,-1,-2,7
1501880924238008,-1,1,12,30,0,0,-1,0
1501880924238008,-15,-8,6,38,0,-5,-4,-12
1501880924239987,-25,7,6,-11,3,3,4,-3
1501880924239987,26,4,33,41,10,5,-3,-4
1501880924260007,2,-8,-41,-25,-6,-1,1,-3
1501880924260007,-4,-3,7,44,3,-2,0,-3
1501880924261990,10,2,5,-42,0,1,-1,16
1501880924261990,-16,0,11,9,-3,-5,-3,-16
1501880924273989,-2,1,-2,-11,0,4,4,-3
1501880924273989,3,-3,3,-44,3,-1,0,2
1501880924282998,-17,-11,-18,40,-6,-8,-6,-10
1501880924282998,-3,6,19,55,5,-2,-3,-46
1501880924297990,13,2,13,-11,-2,-1,-1,0
1501880924297990,-16,-12,-45,-57,-5,-1,-2,-15
1501880924299994,26,5,-8,-16,5,1,0,5
1501880924299994,-15,3,-4,-10,-2,-2,3,21
1501880924320034,-8,-4,-6,8,-2,-4,-4,-8
1501880924320034,8,2,13,21,0,1,1,3
1501880924321992,-4,-4,0,-23,-2,0,-1,1
1501880924321992,5,-4,-19,-39,-4,-7,-1,27
1501880924334048,8,3,13,21,5,4,3,5
1501880924334048,-6,-3,-3,6,-3,-7,-2,-11
1501880924342993,20,-8,-43,41,-2,10,3,-15
1501880924342993,-7,-5,2,-22,-13,-7,-6,-18
1501880924357994,-15,3,13,-24,-9,-6,-4,0
1501880924357994,8,-1,-3,-8,-2,3,0,4
1501880924359013,-15,4,17,8,2,-5,-2,-18
1501880924359013,7,0,2,5,6,6,3,11
1501880924380056,4,-1,-16,-32,-2,-3,-2,6
1501880924380056,-3,2,13,27,-3,0,-1,-1
1501880924381996,20,-3,-9,-92,-2,-6,-1,20
1501880924381996,19,-13,-16,54,-5,-3,-2,29
1501880924394057,-4,2,23,-8,-1,-1,-1,10
1501880924394057,-4,2,6,11,1,-1,3,6
1501880924402996,1,5,9,67,4,2,-1,-14
1501880924402996,-1,-2,-11,-63,-3,-1,0,10
1501880924418025,10,-4,-7,6,-1,-2,-2,-5
1501880924418025,18,4,21,21,4,0,-2,6
1501880924419005,-13,1,-27,8,-3,-3,-1,-2
1501880924419005,-4,-3,2,-18,2,-1,2,-2
1501880924440000,-1,3,20,5,2,-1,0,28
1501880924440000,-26,-1,-1,51,-2,2,2,-2
1501880924441999,1,-5,-25,16,1,-1,-1,-20
1501880924441999,10,0,-15,-46,-11,-5,-4,-14
1501880924454001,15,-1,-8,-58,-9,-8,-3,5
1501880924454001,-10,-4,-3,4,6,7,-1,11
1501880924471011,-1,5,21,-43,-2,3,1,-17
1501880924471011,-17,-6,0,69,6,-2,-2,4
1501880924478021,-3,3,-4,7,6,-1,-1,-20
1501880924478021,-11,-12,-35,-41,-9,-8,-4,-5
1501880924479003,8,4,36,27,2,-1,-1,19
1501880924479003,8,10,23,0,3,7,4,1
1501880924500002,-8,-15,-47,-31,-11,-6,-7,-13
1501880924500002,9,3,7,-12,0,-3,-1,-26
1501880924502006,-21,-8,8,63,1,-3,-2,3
1501880924502006,-6,5,0,-30,4,0,1,6
1501880924514013,4,-2,-2,1,1,3,-1,0
1501880924514013,-1,-5,-6,7,-7,-3,-5,-1
1501880924523004,-11,0,9,-3,-1,-4,0,-4
1501880924523004,10,3,18,12,4,3,-3,-6
1501880924538042,-6,-1,-4,34,8,-2,3,24
1501880924538042,16,3,-4,-48,-9,3,3,42
1501880924540026,-8,-1,6,-34,-4,-6,-4,-25
1501880924540026,-25,-5,-10,16,-2,3,-1,-4
1501880924560011,9,0,-17,-16,0,0,0,-13
1501880924560011,4,4,1,-26,7,2,1,-1
1501880924562009,-15,0,41,62,-10,-5,-4,15
1501880924562009,12,-1,-27,-8,3,-4,2,-11
1501880924583036,-6,-4,-12,-29,-12,-2,-4,0
1501880924583036,-1,2,0,24,3,-1,1,-13
1501880924584013,4,1,15,-15,-1,-2,-2,-7
1501880924584013,-9,-3,-18,0,-4,-2,-1,-1
1501880924598010,-3,1,13,25,8,6,4,0
1501880924598010,-4,-3,-21,-19,-4,-4,-2,-8
1501880924599024,-6,2,8,38,7,3,2,-13
1501880924599024,22,0,22,-53,-11,-5,-1,45
1501880924635052,0,0,11,7,2,0,-1,-12
1501880924635052,-7,-6,-18,29,-7,-3,-3,-4
1501880924637011,3,-6,-5,-38,-3,-1,0,4
1501880924637011,-4,2,-15,1,4,5,2,-17
1501880924643070,-1,0,8,41,6,2,1,-4
1501880924643070,-10,3,15,-39,-6,-4,-3,-7
1501880924644017,-4,-3,-13,-11,0,-2,-4,-1
1501880924644017,-17,2,8,24,-1,-2,-3,-7
1501880924657014,5,-1,16,-11,-8,-5,-2,-2
1501880924657014,6,7,26,66,11,3,2,-5
1501880924666020,-7,-2,4,-62,0,3,5,-8
1501880924666020,5,-10,-27,-44,-14,-16,-10,-3
1501880924680039,-1,6,30,68,10,9,2,-9
1501880924680039,0,-3,-22,-32,2,-2,-1,7
1501880924682023,11,-1,-3,20,0,-1,-1,0
1501880924682023,-11,2,14,17,2,5,1,7
1501880924703015,-4,-2,-6,-22,-4,-5,-1,-15
1501880924703015,7,-2,13,-10,-2,-4,-4,-4
1501880924704019,-1,-7,-33,-40,-8,-3,-2,6
1501880924704019,-4,4,17,21,2,1,0,-4
1501880924717052,-6,-5,-16,30,5,-2,-1,29
1501880924717052,-3,0,6,-42,-13,-5,-3,-4
1501880924724016,1,-8,-19,37,-1,2,-2,-2
1501880924724016,2,7,30,14,5,0,4,0
1501880924740047,26,-8,-25,-16,-6,1,-1,29
1501880924740047,-5,-7,-41,-9,-3,-4,0,-6
1501880924742021,16,6,16,-11,2,-2,-1,8
1501880924742021,6,-7,-23,-17,-1,1,-1,16
1501880924763021,-26,-7,-9,23,0,-4,0,-26
1501880924763021,10,4,18,32,7,2,1,8
1501880924764019,16,1,-11,-42,-12,-1,0,-2
1501880924764019,-11,-2,16,-3,3,2,1,3
1501880924777023,-4,2,-9,-42,-7,-8,-5,-3
1501880924777023,-15,-5,-1,2,0,7,1,-8
1501880924784074,6,13,35,64,10,4,2,-8
1501880924784074,-6,-12,-50,-53,-8,-4,-3,-13
1501880924800040,7,1,14,5,-3,-1,0,11
1501880924800040,1,1,-31,-10,-2,-3,0,-69
1501880924802024,3,2,-7,12,3,-1,-4,9
1501880924802024,-7,0,5,-29,-3,-4,-1,-1
1501880924823023,-6,-4,-8,20,-7,2,-5,-13
1501880924823023,-5,3,12,6,5,3,3,16
1501880924824028,-7,-4,5,7,0,-4,-1,-8
1501880924824028,5,5,13,-5,5,1,-1,0
1501880924838025,-2,1,-7,-13,-4,-3,-1,0
1501880924838025,8,-2,13,9,-1,3,-4,8
1501880924844023,-8,-1,3,22,-3,-2,-1,5
1501880924844023,17,-1,2,27,0,1,4,59
1501880924860025,2,1,16,-7,9,-1,-3,-58
1501880924860025,0,-5,-42,-53,-22,-3,-3,10
1501880924862024,-2,1,20,-4,1,-4,-4,-1
1501880924862024,-5,-3,-5,24,0,3,1,-5
1501880924883026,2,4,28,14,2,0,1,1
1501880924883026,-5,-3,-29,-9,2,-3,-4,-29
1501880924889028,2,-7,-13,-11,-2,-1,-1,10
1501880924889028,0,2,10,35,-3,1,-3,-31
1501880924897028,-25,4,25,15,2,-4,0,-1
1501880924897028,11,-3,18,31,4,-3,-1,23
1501880924911027,6,6,-10,-51,-3,2,-1,-1
1501880924911027,-6,-10,-33,-14,-3,-2,-2,-16
1501880924920029,12,-5,-12,-19,-2,-2,-1,17
1501880924920029,-4,4,17,3,-2,-3,-1,17
1501880924922031,-15,4,21,9,0,-2,-1,-3
1501880924922031,-8,-4,-5,15,3,3,-1,-6
1501880924943029,0,1,-5,-16,-2,0,-3,-11
1501880924943029,-6,-6,-5,18,2,0,2,0
1501880924944028,21,2,7,-20,3,3,2,-4
1501880924944028,-38,-5,-10,13,-9,-8,-8,-9
1501880924957029,19,-1,-12,-18,-5,-1,0,38
1501880924957029,0,7,17,33,8,1,-1,-21
1501880924964031,0,-4,-16,-54,-10,-2,0,-1
1501880924964031,2,0,-10,4,-1,-2,1,-3
1501880924980032,-7,0,11,-18,-5,-1,-1,5
1501880924980032,-6,0,10,9,1,-1,-1,7
1501880924982031,7,-1,-23,30,4,2,1,6
1501880924982031,5,3,16,-19,1,4,0,0
1501880925010033,-13,-2,0,43,-1,-3,-4,9
1501880925010033,23,3,33,16,-2,0,2,8
1501880925012034,-14,-1,-8,-11,-5,-5,-3,-9
1501880925012034,6,1,18,27,3,4,3,1
1501880925017033,-7,-3,-19,31,5,2,1,4
1501880925017033,15,-1,-13,-40,-3,-3,-1,13
1501880925025033,-6,2,22,-4,0,-2,-2,5
1501880925025033,-1,-5,-19,-46,-5,-5,-3,-3
1501880925040034,0,2,-22,-47,-1,4,1,-9
1501880925040034,-2,-6,5,73,3,-9,-6,2
1501880925042047,-3,-2,-12,-1,3,2,4,38
1501880925042047,-9,3,1,-26,-1,4,-1,-49
1501880925063039,-2,-1,9,24,3,-3,0,-7
1501880925063039,0,1,-7,-38,-5,-5,0,-1
1501880925064035,-11,-6,6,2,-2,4,0,2
1501880925064035,22,-1,-17,6,1,-2,-2,4
1501880925077039,-2,-7,-1,36,2,2,0,6
1501880925077039,-14,3,-16,-76,-17,0,-1,2
1501880925085052,38,-5,-22,41,-7,-6,-5,-9
1501880925085052,-24,-5,1,28,2,-1,0,-1
1501880925101038,-1,4,13,-47,-11,-4,-2,-13
1501880925101038,-10,-2,-16,2,4,1,1,7
1501880925103038,-8,-1,-3,-19,3,2,-1,-14
1501880925103038,9,-4,-33,-30,1,0,-1,15
1501880925123039,1,3,34,90,0,-11,-3,3
1501880925123039,-20,-5,25,-35,-10,6,-1,-9
1501880925124043,-3,-4,1,-1,-2,-2,-2,-7
1501880925124043,2,3,8,3,-1,-4,-2,5
1501880925136053,6,3,-1,-28,4,3,3,41
1501880925136053,-15,-2,8,53,1,-4,-4,-54
1501880925145055,26,-2,-10,-36,-5,-4,-3,5
1501880925145055,-2,-5,-8,3,-6,-2,-2,23
1501880925161043,3,-4,-48,-60,-5,-4,-1,-12
1501880925161043,11,3,25,31,7,1,0,12
1501880925163045,-22,-3,1,27,2,-2,-2,0
1501880925163045,4,2,12,-5,-3,0,-1,-12
1501880925183056,7,-1,-11,-1,5,5,1,-9
1501880925183056,15,0,-4,-28,-7,1,0,16
1501880925189044,-29,1,4,20,4,-2,-1,-29
1501880925189044,-9,-6,23,35,-11,-7,-6,9
1501880925196047,3,0,-18,6,0,1,2,3
1501880925196047,-5,-2,0,-24,1,0,1,-12
1501880925205047,7,3,-4,31,7,2,0,6
1501880925205047,-4,3,10,-9,2,-3,-1,-3
1501880925220060,-6,0,17,32,-1,1,-3,-19
1501880925220060,-4,-4,-42,-8,2,-3,-2,-2
1501880925222044,-13,-4,-12,0,-1,2,-1,2
1501880925222044,20,6,8,4,0,-3,-3,-3
1501880925243046,-2,2,10,-3,-2,-1,0,-7
1501880925243046,-4,2,7,-6,2,0,1,21
1501880925244057,3,-11,-12,-9,-3,-1,0,-11
1501880925244057,5,3,19,18,-2,-3,-1,2
1501880925256047,-3,9,61,7,0,1,-1,-5
1501880925256047,-24,-16,-89,7,-5,-8,-7,11
1501880925265049,20,5,0,5,1,2,1,-2
1501880925265049,-6,-1,13,-1,2,-3,0,13
1501880925280090,-5,-1,-7,-11,-1,2,1,-17
1501880925280090,-3,3,33,9,-3,1,2,-4
1501880925282055,-1,0,5,-50,-4,-2,-2,-4
1501880925282055,5,0,1,0,5,-1,2,8
1501880925303071,-12,0,-27,-7,-1,-4,-4,-14
1501880925303071,5,-6,11,-6,-2,1,0,-4
1501880925304050,-7,1,5,12,-2,-3,-2,5
1501880925304050,-8,-5,-43,-47,0,6,3,-12
1501880925316092,1,-10,-21,15,-4,-4,-3,-1
1501880925316092,11,0,-5,5,1,-1,-1,-11
1501880925325051,9,-1,5,45,8,-1,2,61
1501880925325051,3,8,19,-47,-8,1,-1,-35
1501880925340054,3,-8,14,-33,-10,-8,-3,6
1501880925340054,-6,-10,-17,24,4,7,0,1
1501880925342053,-13,-1,-4,9,1,-1,1,-1
1501880925342053,15,-4,-13,35,-4,-8,-4,15
1501880925363055,-29,2,-11,-3,4,7,0,-11
1501880925363055,12,1,55,-1,-5,-7,-1,2
1501880925364076,-30,-6,-37,-28,-2,-2,-2,-18
1501880925364076,4,0,0,50,2,1,0,-7
1501880925376055,5,5,2,-22,-4,-4,-2,-13
1501880925376055,-5,-4,-24,-1,3,-1,-2,-14
1501880925385092,-19,-3,18,9,-9,0,-1,-29
1501880925385092,2,3,0,-93,-7,-6,-2,4
1501880925400054,4,-1,-2,6,-1,-1,0,5
1501880925400054,3,10,25,19,8,3,2,20
1501880925402058,-3,-7,-12,-7,-8,-3,-5,-10
1501880925402058,-6,-6,-15,-13,2,4,-1,-35
1501880925423075,2,-2,-16,-4,-1,-1,-3,8
1501880925423075,-8,-1,7,53,2,-4,-2,-6
1501880925424062,9,4,29,21,1,-1,2,2
1501880925424062,0,-6,8,21,-8,-1,-3,18
1501880925445119,6,-2,0,-43,-4,-2,0,-4
1501880925445119,-14,-2,-27,-39,-6,0,-4,-14
1501880925447058,8,-5,-8,4,4,-3,0,3
1501880925447058,-11,0,-18,20,6,0,-2,-2
1501880925460062,14,1,29,65,4,2,2,2
1501880925460062,16,-7,-20,-13,-3,0,1,11
1501880925462060,-18,-3,-9,-19,-4,-1,-2,-5
1501880925462060,14,7,16,16,3,-2,0,13
1501880925483123,-14,-9,-23,-26,-9,-6,-8,-10
1501880925483123,3,3,6,-34,-10,-3,-2,-14
1501880925484101,-1,0,-6,10,1,2,2,4
1501880925484101,-10,3,-2,-23,0,2,2,-9
1501880925506062,-2,-3,20,38,1,-1,1,33
1501880925506062,-9,4,25,16,3,-1,-3,-17
1501880925508062,2,-1,-14,-1,-5,-4,-7,-15
1501880925508062,6,3,12,34,1,3,4,1
1501880925520102,20,-4,-22,-51,-3,4,3,18
1501880925520102,-20,-1,-4,-13,-11,-5,-4,-3
1501880925522065,6,4,5,32,-2,-1,-1,-5
1501880925522065,-14,-4,16,10,1,-2,-2,11
1501880925543115,-6,2,-8,7,6,1,-1,6
1501880925543115,11,-3,11,-24,-13,-5,2,-12
1501880925544094,14,12,-8,-30,-7,3,-3,-5
1501880925544094,3,-11,-8,25,-1,-4,-2,10
1501880925565068,-7,2,-2,-9,5,4,1,-1
1501880925565068,-13,5,25,38,11,1,-2,-9
1501880925565068,18,-5,-33,-44,-9,-1,-3,2
1501880925565068,0,-2,35,5,-7,-5,-2,0
1501880925580090,-17,-1,-18,-14,-3,-1,2,-16
1501880925580090,37,-4,-42,29,6,2,-1,16
1501880925580090,-50,-1,25,-44,0,-3,-1,-19
1501880925580090,7,2,-10,-10,-1,-3,-4,6
