timestamp,emg1,emg2,emg3,emg4,emg5,emg6,emg7,emg8
1501880943495884,7,9,-27,-16,9,6,4,-32
1501880943495884,-8,1,34,57,11,7,14,55
1501880943512883,-31,-7,11,-6,-4,-1,-13,-58
1501880943512883,37,8,-23,45,13,2,-15,29
1501880943513882,-20,2,25,-33,-12,-1,28,3
1501880943513882,41,-9,-10,83,-6,-6,8,15
1501880943534883,-32,11,18,-12,11,3,2,7
1501880943534883,20,-5,7,67,2,-2,8,5
1501880943536883,-6,4,-7,-41,7,6,-3,0
1501880943536883,2,-7,16,-35,1,-2,-23,-1
1501880943549885,60,19,-5,68,26,13,9,24
1501880943549885,-64,-30,4,-60,-42,-9,-3,-53
1501880943551890,-18,6,13,-18,17,2,-10,32
1501880943551890,12,-9,-2,-85,-6,-5,-5,20
1501880943579891,57,-7,-44,28,-9,-1,6,17
1501880943579891,-29,13,-6,-81,11,8,10,6
1501880943581887,58,-7,22,115,0,-3,-3,-2
1501880943581887,-53,17,8,-50,-1,-5,-6,1
1501880943587886,-6,-12,-30,-19,-4,-2,-9,4
1501880943587886,38,0,21,80,-11,-13,-26,9
1501880943593888,-62,-20,-3,-3,-2,-2,14,-18
1501880943593888,-14,1,-25,-20,-2,0,14,-6
1501880943609888,-29,-4,-13,-13,-6,-1,0,1
1501880943609888,-3,2,-3,-128,-10,-2,-13,-10
1501880943611888,61,4,-11,96,-2,-6,-17,13
1501880943611888,11,12,78,94,12,5,7,-9
1501880943632902,-81,-14,-45,-87,-18,-8,-5,-12
1501880943632902,-22,6,11,59,10,6,15,13
1501880943633889,79,-1,-17,30,-4,-6,-19,13
1501880943633889,28,16,-4,-10,8,9,23,3
1501880943646889,-24,-5,34,-38,0,-3,-11,-7
1501880943646889,35,-2,-33,35,3,0,10,53
1501880943653891,-70,-12,13,-14,-9,-6,-7,-39
1501880943653891,26,10,11,-37,1,-1,-13,-10
1501880943670905,1,2,7,80,12,1,5,3
1501880943670905,8,-7,-35,-70,-10,-1,-10,11
1501880943671891,-9,-4,3,39,-3,5,30,19
1501880943671891,-4,-1,4,23,11,1,-11,-22
1501880943692902,-32,6,-2,30,-3,-2,-5,-10
1501880943692902,104,-19,17,-2,-7,-5,10,2
1501880943693896,-72,22,-16,-56,3,2,-18,-19
1501880943693896,5,-6,16,-60,-9,1,-12,-5
1501880943706893,31,-5,24,61,3,-2,21,22
1501880943706893,0,14,-18,-15,6,4,6,-49
1501880943713893,6,-8,25,-9,-7,-3,-13,-10
1501880943713893,11,-1,-14,48,2,0,17,14
1501880943729895,2,0,-11,-79,-25,-5,-21,-16
1501880943729895,-19,7,35,24,9,-1,-2,1
1501880943731895,-1,-4,-53,-80,-11,-2,4,0
1501880943731895,-25,-8,-31,24,-2,-9,-25,0
1501880943752897,57,5,2,30,0,3,12,6
1501880943752897,-59,-7,14,-21,6,4,7,-17
1501880943753897,-10,10,10,31,6,2,2,1
1501880943753897,1,0,8,2,3,1,-1,-10
1501880943766900,15,1,-2,16,-2,-2,1,24
1501880943766900,-10,-2,5,47,6,-3,-10,25
1501880943773898,29,-2,28,-29,-3,-2,8,28
1501880943773898,-15,-6,1,54,-8,-4,-22,-23
1501880943789898,-75,-5,-38,-48,-3,-4,1,-28
1501880943789898,-18,8,8,16,2,0,-1,-5
1501880943791904,30,-6,-25,67,6,-1,3,-6
1501880943791904,-11,-5,-9,-55,-5,-4,-6,9
1501880943812899,8,7,61,29,13,4,-2,15
1501880943812899,-20,-6,-38,-28,-7,-1,7,10
1501880943813900,-31,-8,18,93,-4,-6,-5,-6
1501880943813900,53,1,7,34,4,-2,-8,10
1501880943826901,-41,5,30,-3,1,2,10,-10
1501880943826901,-8,-5,-6,31,2,-4,-8,-13
1501880943833929,25,4,-18,-49,0,4,5,6
1501880943833929,-12,-11,-21,-9,8,1,1,2
1501880943849901,65,-4,17,55,-9,-4,-7,40
1501880943849901,-39,-8,21,54,2,-2,7,-12
1501880943851901,-4,9,15,-18,0,1,1,-2
1501880943851901,2,1,-39,-25,-5,-2,-4,-36
1501880943871903,-23,-14,-36,9,10,4,2,-8
1501880943871903,60,9,24,9,-1,-2,-8,-1
1501880943879903,14,-4,-21,-78,-18,-8,-11,-19
1501880943879903,-33,13,24,31,1,1,3,-12
1501880943886904,16,2,-52,-69,-6,-2,-2,18
1501880943886904,-16,10,49,31,5,2,0,-9
1501880943893905,-13,-22,-9,-76,-2,-2,-6,-7
1501880943893905,-10,4,-15,19,2,2,14,2
1501880943909904,-7,7,26,16,-15,-6,-9,20
1501880943909904,8,-13,-33,-102,-8,-3,-9,43
1501880943911907,8,17,25,25,11,5,-1,9
1501880943911907,-93,-27,-44,-2,-15,-9,1,-20
1501880943932905,20,3,29,12,4,2,4,-9
1501880943932905,46,0,-18,-11,-9,-2,4,36
1501880943933905,10,11,2,65,7,4,4,-9
1501880943933905,13,-3,8,-64,-9,-5,-14,6
1501880943946906,2,-6,8,38,5,-1,0,-3
1501880943946906,-6,14,15,35,12,4,5,10
1501880943953910,-22,-13,-24,7,-6,0,2,-1
1501880943953910,21,2,21,-22,0,-2,-7,11
1501880943969909,-5,-5,-54,29,6,1,0,-28
1501880943969909,33,-2,7,30,-6,1,0,-14
1501880943971909,16,6,14,5,0,0,0,19
1501880943971909,-10,-10,-15,21,2,2,4,21
1501880943992912,-25,-1,34,26,1,-2,-9,-25
1501880943992912,-7,1,-5,-16,3,2,4,-46
1501880943993912,6,-5,-22,-52,-14,-6,4,-5
1501880943993912,51,3,32,15,-4,1,-6,9
1501880944005911,-29,-5,-31,-51,-2,-2,-13,-23
1501880944005911,-22,5,-3,12,1,-2,1,-12
1501880944014911,-9,0,16,25,0,4,7,-6
1501880944014911,-49,-8,-32,-7,-6,-7,-12,13
1501880944029912,-5,-6,22,-40,-4,-5,-2,-1
1501880944029912,9,8,26,-49,1,0,-9,25
1501880944031912,-24,-13,-38,25,-2,-6,-4,-21
1501880944031912,68,1,6,-28,-1,3,1,49
1501880944052912,-17,-3,-33,-67,-10,-3,3,16
1501880944052912,-23,-12,-27,-9,-8,-6,3,-9
1501880944053912,7,2,2,58,8,1,1,-24
1501880944053912,6,-1,-10,-50,-2,1,3,3
1501880944065913,25,4,5,-33,-1,0,-2,1
1501880944065913,-3,4,-33,-5,-9,-2,-6,52
1501880944074942,-21,-5,24,-18,2,-1,-4,-12
1501880944074942,82,8,31,46,6,-2,-4,47
1501880944089918,-44,-9,-47,-64,-7,2,15,-53
1501880944089918,-29,-8,-13,53,1,-3,-8,-44
1501880944091917,11,10,30,5,8,6,9,-2
1501880944091917,-10,11,39,60,10,4,0,-42
1501880944112918,1,-15,-16,-56,-26,-9,-11,28
1501880944112918,9,1,-36,9,-2,-3,8,-15
1501880944113916,-25,-19,32,-17,-8,-10,-9,9
1501880944113916,-11,2,-24,9,0,-1,2,-17
1501880944125921,37,10,17,23,16,5,4,44
1501880944125921,-18,-12,3,4,-10,-4,-11,-16
1501880944134933,16,1,-25,-125,-11,1,-5,13
1501880944134933,-25,5,6,-6,3,1,8,-1
1501880944148918,14,16,45,89,7,-3,-4,12
1501880944148918,-31,-14,-5,52,1,-2,-7,-19
1501880944157921,9,5,-28,42,2,0,4,25
1501880944157921,3,-7,0,-40,-4,-3,-3,-29
1501880944172920,4,1,6,-18,0,1,-2,-4
1501880944172920,21,9,20,43,7,2,5,2
1501880944173922,-44,-3,18,-52,0,-3,-8,-31
1501880944173922,19,3,19,-33,-8,-3,5,-18
1501880944185921,-65,-13,-18,7,-12,-3,-5,-19
1501880944185921,6,10,35,13,9,8,10,3
1501880944194923,5,-3,-5,-16,-5,-6,-6,48
1501880944194923,-16,-1,-19,7,-3,-1,-5,5
1501880944209922,18,8,23,-3,6,2,5,-15
1501880944209922,-10,-12,8,4,-2,-3,-10,-20
1501880944211928,-5,-2,-27,22,0,2,2,-41
1501880944211928,16,3,-2,34,4,-1,5,6
1501880944232937,-39,-2,-2,-40,-9,0,5,0
1501880944232937,51,3,-3,-39,-2,-2,-1,11
1501880944233924,-11,1,18,27,2,-1,-4,9
1501880944233924,-11,-1,-6,26,3,-2,4,9
1501880944245925,35,-3,-35,32,3,3,-5,-31
1501880944245925,-10,10,18,25,8,0,-3,-2
1501880944254925,29,-2,4,-8,-1,0,4,-4
1501880944254925,-7,-1,-19,-28,-4,2,2,-4
1501880944269926,-35,-1,54,54,-2,-4,-9,-23
1501880944269926,0,-5,-14,-16,-2,-1,1,-3
1501880944271932,20,-4,-22,45,4,-1,6,7
1501880944271932,8,-3,-25,-37,-10,3,0,9
1501880944292927,39,0,2,7,7,-2,-4,7
1501880944292927,-40,-5,-5,12,-1,-2,-2,-5
1501880944293928,12,-7,-19,17,-5,-4,-8,25
1501880944293928,-6,3,14,-83,-2,2,4,5
1501880944305935,13,-10,-10,41,9,3,2,15
1501880944305935,30,-4,6,-66,-16,-9,-5,34
1501880944314928,5,13,-15,-24,0,0,2,-1
1501880944314928,-18,-1,21,64,3,0,-6,-15
1501880944329930,16,5,12,22,1,-2,-2,3
1501880944329930,24,8,2,-52,8,5,2,23
1501880944331929,-22,-6,0,44,5,-1,-2,-47
1501880944331929,-8,-5,-4,48,-6,-9,-11,-12
1501880944352931,-9,0,11,-67,-19,0,2,15
1501880944352931,-2,-11,-45,-61,-13,-4,-3,-39
1501880944353932,1,2,-11,2,7,0,-3,0
1501880944353932,-15,-3,33,22,4,2,0,-11
1501880944365934,25,0,-18,15,3,-1,-1,26
1501880944365934,-42,6,25,-20,7,3,0,-34
1501880944374945,43,5,34,-34,-19,-6,7,10
1501880944374945,-52,-9,-12,27,-2,-1,-5,-13
1501880944389934,23,4,-15,28,6,0,2,19
1501880944389934,-10,-7,-33,-40,-2,0,1,10
1501880944391943,-14,7,14,17,2,3,-4,-7
1501880944391943,24,-9,-5,-19,-10,-5,-2,20
1501880944412935,13,-3,11,0,-3,-2,2,-24
1501880944412935,-47,9,-23,-10,12,6,6,-11
1501880944413936,79,-5,-21,-29,-18,-7,-2,48
1501880944413936,-50,-3,-24,43,3,1,1,-39
1501880944434950,-17,-8,16,13,1,-3,-7,-12
1501880944434950,-14,4,8,-5,4,1,3,-33
1501880944436935,-6,-1,22,-3,2,0,-4,-18
1501880944436935,14,6,-19,9,6,4,-1,9
1501880944449937,-14,-1,41,-18,-12,-9,-3,-16
1501880944449937,2,-3,-20,39,2,2,6,-3
1501880944451936,-16,-2,11,26,7,2,-1,3
1501880944451936,12,-6,-20,-54,-14,-7,-5,1
1501880944472942,-35,8,3,18,5,2,2,-39
1501880944472942,43,-1,16,18,-7,-4,-4,34
1501880944473939,-13,-1,-11,-64,5,2,-1,16
1501880944473939,1,3,32,103,4,-6,-6,-16
1501880944494942,-2,-4,-27,-60,-3,0,3,27
1501880944494942,-2,-9,-30,6,-6,-2,3,0
1501880944496940,-16,6,9,-17,1,-1,-4,-30
1501880944496940,11,9,4,-18,9,2,-7,12
1501880944509941,19,-8,-9,-20,-7,-3,-2,7
1501880944509941,-3,2,14,83,-1,-7,-11,-3
1501880944511940,-31,-3,-5,-85,3,2,13,-28
1501880944511940,21,-7,-8,27,-6,-4,-2,34
1501880944532956,-11,-4,-30,17,6,3,-2,-11
1501880944532956,-6,1,72,-25,-7,1,-4,-6
1501880944533940,-10,-1,-58,72,5,1,-1,22
1501880944533940,83,1,23,-99,-8,0,-2,68
1501880944554942,-27,-3,-38,19,6,3,11,-35
1501880944554942,4,4,17,96,4,-2,1,2
1501880944556947,-17,1,8,-16,-3,-3,-6,19
1501880944556947,-8,-8,-25,-74,-11,-2,8,-7
1501880944569943,4,-4,4,0,1,0,-12,-3
1501880944569943,-28,-8,-19,-21,-3,-1,3,13
1501880944575944,26,1,29,23,0,-1,-2,-18
1501880944575944,-39,10,33,52,15,6,9,-20
1501880944592963,12,-11,-16,-43,-11,-4,-3,16
1501880944592963,-26,-2,-15,-21,-5,-4,-5,-21
1501880944593947,-5,-4,-7,41,7,2,0,14
1501880944593947,-33,-6,-7,1,0,-4,-4,-69
1501880944614947,2,3,-6,-31,-11,0,2,18
1501880944614947,49,6,-4,-13,1,3,13,42
1501880944616949,-36,-2,27,10,0,0,-13,-11
1501880944616949,-15,-3,-2,24,1,3,14,18
1501880944629948,14,4,24,47,3,-1,-7,1
1501880944629948,5,-3,3,-19,-2,-2,-5,-13
1501880944635962,-8,-5,-30,37,-10,-5,-5,6
1501880944635962,0,4,23,44,7,0,-4,18
1501880944652948,3,-1,-13,-92,-9,0,4,14
1501880944652948,-19,-9,-12,-12,1,0,-6,-68
1501880944653947,-6,-6,1,-47,-6,-4,-2,-7
1501880944653947,21,-4,-7,-24,-8,-3,-1,16
1501880944674952,-22,4,-4,84,13,1,0,-29
1501880944674952,17,14,28,-70,-3,1,2,37
1501880944676950,-9,-17,-46,88,3,0,2,-21
1501880944676950,8,-1,-4,-79,-25,-12,-12,-31
1501880944689974,24,8,19,47,6,-1,-5,22
1501880944689974,21,-2,16,34,2,-3,3,31
1501880944695971,8,4,-22,-43,0,4,2,2
1501880944695971,0,-4,-9,8,5,0,0,15
1501880944712952,6,3,-4,-19,-3,-2,-3,-3
1501880944712952,-11,-2,8,-2,2,0,2,40
1501880944713975,19,5,-13,18,-2,1,6,-25
1501880944713975,-19,-4,22,-55,-1,-1,-6,-10
1501880944735014,-43,5,13,54,3,-1,3,0
1501880944735014,-13,-5,0,5,-2,-1,-3,-42
1501880944736954,-7,-1,11,-3,-5,-5,-2,-2
1501880944736954,5,-2,-18,2,4,2,-1,-5
1501880944748956,1,-2,0,-23,1,0,1,-5
1501880944748956,-2,-1,-16,24,0,0,-5,3
1501880944757954,-3,-1,11,-21,-1,1,2,-23
1501880944757954,-20,-2,-52,45,-4,-3,-6,-39
1501880944772958,-14,-10,-18,-42,-6,-5,-4,6
1501880944772958,20,-4,29,51,-10,-6,-3,47
1501880944773955,7,-3,-23,-38,-3,-1,-1,4
1501880944773955,3,-2,-32,0,6,4,7,16
1501880944794977,-3,1,22,20,7,2,-2,13
1501880944794977,-18,3,-16,-27,-1,-1,-3,-35
1501880944796976,-2,-3,21,-59,-6,-3,-8,-17
1501880944796976,6,0,-2,33,1,0,2,7
1501880944809962,-1,-5,-43,-58,-10,-3,1,23
1501880944809962,3,1,40,91,6,0,-1,-2
1501880944816982,-17,-4,-17,-38,3,1,-4,-8
1501880944816982,8,14,57,1,2,-3,-4,12
1501880944833006,18,-6,-6,-17,-4,-3,1,-22
1501880944833006,3,-5,-32,-69,-7,-2,-3,6
1501880944834005,-2,9,34,63,4,0,3,11
1501880944834005,-20,-5,5,44,3,1,-1,-20
1501880944854964,41,-6,-14,-32,-5,-6,-3,28
1501880944854964,-7,2,-6,-59,-2,-1,-1,-14
1501880944856963,7,-4,6,78,0,-1,1,45
1501880944856963,7,-1,6,-26,-4,-2,-7,6
1501880944869961,-11,10,2,78,9,4,11,-14
1501880944869961,-4,-9,3,-86,-8,-4,-4,15
1501880944875962,18,-1,11,-57,-2,0,2,-8
1501880944875962,15,-4,-13,35,-1,-1,1,47
1501880944892963,-12,11,39,33,4,4,-3,-52
1501880944892963,2,1,2,-19,4,3,8,-6
1501880944893965,-17,2,-10,60,-4,-3,-2,-8
1501880944893965,9,-8,-11,6,-2,0,1,9
1501880944914964,7,0,-10,-35,-3,-1,-4,-3
1501880944914964,-29,-2,-34,79,5,3,2,-25
1501880944916965,21,-3,6,-82,-4,1,-2,7
1501880944916965,5,-3,13,5,-1,-3,0,-15
1501880944928967,-13,-3,-29,-25,-2,-1,2,35
1501880944928967,6,-2,6,26,-1,-3,-4,24
1501880944937965,32,-5,-16,-13,-2,0,-2,47
1501880944937965,-44,9,47,52,1,0,3,-16
1501880944952966,-11,-14,-28,-53,-11,-5,-5,-12
1501880944952966,34,5,-10,26,5,1,0,14
1501880944953966,-21,-1,-1,32,-2,-2,0,-4
1501880944953966,14,0,-6,-57,2,3,0,-6
1501880944974987,-11,0,18,29,4,1,-2,-2
1501880944974987,0,-7,-31,13,-9,-5,-1,-27
1501880944976968,-4,4,27,-9,0,0,-2,-6
1501880944976968,-21,10,6,-20,5,2,0,-26
1501880944988969,-10,-2,-15,14,-3,-5,0,8
1501880944988969,2,-11,13,3,-4,0,-5,-26
1501880944997970,10,4,-8,21,9,4,5,23
1501880944997970,-26,-11,-39,-63,-21,-7,-2,-20
1501880945012970,21,8,11,-11,8,6,1,20
1501880945012970,-31,3,22,15,1,-4,3,5
1501880945013969,10,0,-8,24,3,0,1,3
1501880945013969,22,-4,9,19,-2,-4,-7,-27
1501880945034970,-1,12,32,14,6,2,2,-7
1501880945034970,-1,-14,-14,-39,-6,1,-2,56
1501880945036969,-47,2,4,-12,1,0,0,-49
1501880945036969,-16,1,-2,13,1,1,1,1
1501880945048972,-15,-7,0,32,1,-2,-3,-16
1501880945048972,-2,3,-2,-64,-7,-4,-7,-7
1501880945057974,8,-2,20,14,-4,-4,-2,8
1501880945057974,-4,-5,-16,12,-3,-2,-3,3
1501880945073001,42,-6,-15,-53,-10,-5,-4,7
1501880945073001,-21,0,-8,-10,-3,2,5,-25
1501880945073980,13,3,1,-10,2,0,-1,12
1501880945073980,-4,-3,18,64,4,0,0,-8
1501880945102975,-4,-5,-2,-53,-14,-5,-6,7
1501880945102975,48,-8,-57,-5,-3,-2,-2,-13
1501880945103976,3,4,28,37,0,-2,1,42
1501880945103976,-9,-3,-4,-15,6,0,3,2
1501880945108977,15,-2,-9,92,-1,-1,-5,-43
1501880945108977,-5,3,2,0,-1,2,-5,-4
1501880945117975,-24,-9,16,3,-3,0,4,-20
1501880945117975,18,0,-12,-17,1,0,-7,51
1501880945132991,0,-6,24,42,1,-4,2,2
1501880945132991,-13,5,-21,-39,-8,-2,-6,-9
1501880945133975,9,-1,-11,-26,-5,-3,-3,-9
1501880945133975,12,-4,-18,-26,3,2,1,7
1501880945154979,-35,7,21,-27,1,1,0,-29
1501880945154979,-11,-2,33,89,7,0,-3,-23
1501880945160979,-10,-4,-28,-59,-6,-5,-8,1
1501880945160979,47,1,21,-6,-1,0,7,53
1501880945168980,-13,5,2,-2,0,3,0,-19
1501880945168980,-47,-20,-76,-29,-6,-5,1,-64
1501880945177980,-9,1,13,58,3,-1,-8,-16
1501880945177980,-20,-3,-9,-85,-14,-5,4,-15
1501880945191984,19,4,14,11,2,1,-2,35
1501880945191984,17,7,18,20,9,3,4,35
1501880945199983,8,0,-21,-24,3,2,-3,-19
1501880945199983,-3,-5,-13,25,-1,0,-3,-1
1501880945214981,-4,-10,3,10,-1,-2,5,-2
1501880945214981,59,7,9,-22,-1,-4,-9,64
1501880945216985,-25,-7,-16,15,-4,-1,0,-8
1501880945216985,-14,-1,23,30,3,1,-2,-16
1501880945228982,-11,-9,-29,44,-5,-5,-3,11
1501880945228982,36,5,42,-18,-5,0,2,19
1501880945238985,8,-2,-1,11,2,-1,3,1
1501880945238985,22,3,-54,-22,-1,0,-3,-9
1501880945252983,-14,-5,7,35,0,-1,-2,-10
1501880945252983,-69,-1,6,-5,1,-1,-4,-27
1501880945253983,69,3,-2,22,-4,-4,5,25
1501880945253983,-45,1,16,3,3,2,-1,-104
1501880945274984,19,-2,-5,-27,1,-2,-5,22
1501880945274984,6,7,-5,7,5,3,3,3
1501880945276985,-8,-5,0,-24,-11,-5,-4,-19
1501880945276985,-11,-1,9,30,3,-2,-2,11
1501880945288987,9,5,-7,-39,4,1,1,9
1501880945288987,-14,1,34,78,10,1,0,-9
1501880945297988,31,-2,-26,-52,0,0,-4,3
1501880945297988,-37,-4,1,34,-11,-9,-5,-9
1501880945312989,-2,-1,-2,-1,3,1,0,16
1501880945312989,0,-5,14,7,-1,-3,-3,-6
1501880945313988,-19,5,-2,13,11,1,1,-10
1501880945313988,8,7,22,-9,5,10,2,12
1501880945335001,7,-8,-1,23,-15,-10,-5,-14
1501880945335001,-24,-4,-42,-45,-8,-3,3,18
1501880945336987,-1,5,11,1,0,1,-4,0
1501880945336987,13,-8,8,-2,1,-2,1,-19
1501880945348989,-5,8,12,18,6,0,1,-1
1501880945348989,15,-8,-59,-56,-3,-2,2,2
1501880945357990,-24,-5,-6,7,-6,-2,-3,-17
1501880945357990,0,4,-5,-6,3,0,0,13
1501880945372994,51,1,22,1,7,5,4,54
1501880945372994,-3,5,12,-16,-7,-4,-5,-35
1501880945373990,-5,0,0,9,0,1,2,5
1501880945373990,14,8,3,-18,-1,-4,-3,32
1501880945394991,-14,2,11,50,4,2,7,-55
1501880945394991,20,-8,-1,-30,-10,-1,-3,5
1501880945396992,-19,-6,-18,28,-3,-3,0,-1
1501880945396992,6,-3,12,-5,-5,-3,-3,17
1501880945418008,-14,0,18,-11,0,-2,0,-13
1501880945418008,-1,2,-15,2,-1,0,2,6
1501880945418994,-17,-2,34,16,10,6,0,-23
1501880945418994,4,-11,-50,2,-11,-6,-2,4
1501880945439997,-9,6,12,-84,-8,-1,-2,-8
1501880945439997,-7,-12,-21,75,-1,-5,-9,-31
1501880945442004,7,3,29,-35,-11,-8,1,11
1501880945442004,10,-5,-67,8,10,5,2,18
1501880945454995,-14,5,21,-2,-2,2,0,2
1501880945454995,-3,-2,18,11,3,-2,-1,21
1501880945456994,2,6,4,-7,3,1,0,-20
1501880945456994,0,2,-7,6,6,1,3,0
1501880945477998,39,-19,-47,-114,-24,-11,-8,8
1501880945477998,-15,10,48,30,8,0,0,-17
1501880945479000,-4,2,-9,20,2,1,-3,-13
1501880945479000,-9,0,19,-33,-8,-5,-4,-6
1501880945493000,-11,4,-1,47,11,6,3,-5
1501880945493000,-13,1,19,-28,-9,-2,-1,0
1501880945493997,29,-6,-6,-46,-3,-1,1,15
1501880945493997,-20,-5,-8,24,2,-1,-2,-10
1501880945515000,-16,-1,35,32,-1,-3,-1,-23
1501880945515000,-14,-4,-13,7,3,4,-2,21
1501880945517000,-12,-4,-3,0,-5,-2,-1,-7
1501880945517000,14,6,-2,-43,-2,-1,-1,-3
1501880945538000,3,2,-4,54,8,3,-1,15
1501880945538000,-5,3,-4,64,9,2,0,-14
1501880945540017,-12,-14,-56,-91,-22,-7,-5,2
1501880945540017,47,7,25,17,2,-4,-8,11
1501880945552001,-19,-10,-39,-41,-3,-1,2,-17
1501880945552001,3,7,16,32,0,-1,-2,-9
1501880945559001,-2,9,11,-21,13,6,2,-17
1501880945559001,19,-6,3,93,-5,-1,5,9
1501880945575002,-51,-6,-15,-66,-4,-1,-8,-56
1501880945575002,23,2,5,31,-1,-2,3,10
1501880945577004,-6,1,15,19,2,-2,-1,13
1501880945577004,-10,-7,-25,-17,3,1,0,-6
1501880945598003,19,6,19,-3,-2,-2,-3,16
1501880945598003,18,-13,-56,-49,-5,-6,-1,10
1501880945599003,-19,1,0,-20,-3,-1,-3,-9
1501880945599003,-9,1,12,61,4,-2,-1,-2
1501880945612005,-9,-8,-72,-5,4,2,4,45
1501880945612005,5,7,29,3,-1,2,-1,-43
1501880945619014,34,0,-14,24,3,0,3,30
1501880945619014,-7,-3,14,5,-6,-4,-1,32
1501880945635006,2,-5,-7,6,-2,-3,-5,9
1501880945635006,23,8,39,-26,-8,0,-2,10
1501880945637007,-3,-7,-14,-9,-3,-5,-1,22
1501880945637007,-15,8,18,-36,0,4,3,-35
1501880945658007,-8,-5,-2,41,-1,-2,-1,-14
1501880945658007,-3,0,-8,-4,4,-1,-2,15
1501880945659006,-17,-4,16,17,3,-1,-3,-20
1501880945659006,-3,7,15,-37,-2,-1,-1,-43
1501880945672011,-19,-12,-79,-42,-10,-6,-4,-22
1501880945672011,0,6,45,46,6,1,-4,-7
1501880945679008,-7,-11,-16,-96,-23,-5,-2,29
1501880945679008,-10,0,18,0,2,3,0,-9
1501880945695009,-7,4,7,35,5,2,1,15
1501880945695009,4,-12,-14,-6,-4,-4,-2,9
1501880945697011,-13,2,-2,24,4,3,1,7
1501880945697011,12,-7,-61,-21,-4,-4,-5,9
1501880945718016,3,8,25,0,-4,-1,-1,1
1501880945718016,11,-4,-15,-37,-3,0,2,6
1501880945719011,-12,8,35,67,11,3,-1,-15
1501880945719011,27,-8,-8,5,1,1,1,82
1501880945733059,-11,-2,-6,-18,-7,-3,-3,-53
1501880945733059,-14,-3,-13,-20,-5,-4,-3,-20
1501880945739014,-9,-4,-12,24,-3,-6,-4,14
1501880945739014,10,10,46,3,4,5,4,8
1501880945755013,11,-11,-37,38,-1,0,-1,27
1501880945755013,-18,0,4,21,0,-1,-2,-23
1501880945757013,3,13,49,7,8,3,1,-18
1501880945757013,-47,-21,-54,-30,-17,-6,-4,-28
1501880945778014,48,7,34,27,0,-2,4,80
1501880945778014,-11,-6,-42,-39,-6,-2,-1,-20
1501880945779013,6,-2,-19,-4,-1,-1,-1,-3
1501880945779013,-5,11,31,-1,7,1,0,-19
1501880945792015,-16,-7,22,32,-1,0,-2,-14
1501880945792015,5,-7,-10,-41,-1,0,-1,32
1501880945799018,16,-2,-12,38,1,0,-1,7
1501880945799018,-16,-5,3,-17,-7,-3,-3,-17
1501880945815020,1,3,1,-1,5,0,-2,4
1501880945815020,1,6,2,-12,2,2,1,-3
1501880945817023,-5,-1,1,-19,-6,-3,-3,2
1501880945817023,-5,-3,20,41,3,-1,-2,-9
1501880945838019,17,2,-1,-7,2,1,1,-15
1501880945838019,20,-6,-1,-41,-11,-5,0,43
1501880945840017,-11,6,3,-25,2,3,-1,-58
1501880945840017,11,-4,-13,-9,2,-4,-3,1
1501880945852019,6,4,49,17,6,2,-1,-17
1501880945852019,-7,-7,-32,-1,-4,-3,-2,-14
1501880945859020,5,1,8,40,3,0,1,-14
1501880945859020,6,3,-11,-41,3,0,-1,48
1501880945875021,-28,-2,6,44,-4,1,-3,-38
1501880945875021,12,2,-8,16,-2,0,3,-4
1501880945877020,-9,-1,18,3,-3,-2,-2,0
1501880945877020,-10,5,25,12,1,-2,-1,-1
1501880945898020,16,-14,-29,-16,-2,-8,-1,21
1501880945898020,-15,2,32,28,3,4,0,-5
1501880945899022,18,-5,-41,-41,-5,-4,-2,26
1501880945899022,1,4,33,0,0,-1,-1,-25
1501880945911021,-11,4,-1,-23,2,0,2,2
1501880945911021,-19,-3,-3,-33,-3,-5,-4,-59
1501880945920022,0,-1,-40,11,-4,-3,-2,-16
1501880945920022,23,3,16,-15,-11,-4,1,4
1501880945935023,-20,-15,-29,-19,-4,-2,0,-1
1501880945935023,-3,-1,-3,-15,6,5,4,18
1501880945937024,33,0,18,36,4,3,1,35
1501880945937024,-67,-3,-29,-82,-10,-6,-8,-57
1501880945958025,18,0,-2,38,2,-2,-3,18
1501880945958025,-14,10,12,32,8,6,3,3
1501880945959025,-6,-9,32,-9,-3,-3,0,-2
1501880945959025,19,-1,-4,-34,-2,1,1,8
1501880945971028,17,10,32,-23,-3,-1,-2,21
1501880945971028,-10,-4,-23,52,-1,-4,-4,-20
1501880945980026,-17,-14,-32,-45,-12,-6,-4,-1
1501880945980026,22,-3,-17,-7,-1,-1,0,17
1501880945995028,8,8,13,2,4,3,3,-21
1501880945995028,18,0,0,-23,-3,-3,-3,21
1501880945997027,-27,2,19,70,9,4,3,33
1501880945997027,15,-11,-53,-55,-14,-7,-5,-41
1501880946018029,-6,5,-3,-33,-2,2,1,13
1501880946018029,40,1,12,11,3,0,4,43
1501880946019029,-1,4,32,10,1,0,1,-19
1501880946019029,-27,-1,19,94,1,-1,-4,-9
1501880946031046,-1,-5,-8,-58,-7,-7,-2,-6
1501880946031046,3,-1,-4,9,2,2,0,10
1501880946041030,-7,-2,-22,-11,1,-2,-3,-2
1501880946041030,2,-1,0,-4,1,1,0,11
1501880946055049,1,1,1,41,0,1,-2,-16
1501880946055049,-6,-4,20,-4,4,-3,-2,4
1501880946057031,5,-3,-25,-18,-2,2,1,30
1501880946057031,14,5,-2,14,5,3,1,-17
1501880946078039,2,-3,-3,-20,-9,-6,-4,11
1501880946078039,-20,0,8,10,0,0,-2,-8
1501880946079032,17,0,-18,15,0,-1,0,5
1501880946079032,-7,-1,12,23,4,4,1,17
1501880946091045,-7,-7,-33,11,2,-4,-3,-20
1501880946091045,3,-5,-11,-22,-9,-3,-5,6
1501880946100034,8,2,-2,2,-1,-1,-1,-26
1501880946100034,-1,2,18,15,5,2,1,27
1501880946115038,-4,1,9,14,-1,3,2,-4
1501880946115038,7,0,-26,-4,2,0,0,2
1501880946117035,-3,2,16,-18,-10,-3,-6,-33
1501880946117035,-14,-7,-1,11,-2,-4,-1,-6
1501880946138035,-48,-5,3,-25,-1,-1,-4,2
1501880946138035,5,-3,-4,-14,2,-2,-1,-17
1501880946140035,-5,2,0,69,-3,-2,-2,-9
1501880946140035,12,2,11,-28,3,3,1,7
1501880946151035,9,-2,16,76,-1,-2,-1,1
1501880946151035,-22,2,-12,-77,-1,1,0,-10
1501880946160037,-21,-5,9,-8,-7,-5,-8,-36
1501880946160037,-7,-1,-8,19,1,-2,-1,-1
1501880946175037,13,2,-5,-17,-2,2,1,7
1501880946175037,-28,0,-1,26,4,2,1,-18
1501880946177038,13,-1,13,-8,3,3,4,16
1501880946177038,0,-11,-49,-22,-13,-5,-3,-18
1501880946198041,17,6,28,-23,1,-6,-4,39
1501880946198041,-1,-1,-33,19,-8,-5,-2,1
1501880946199037,-7,-11,6,-62,-3,-1,-1,-5
1501880946199037,-6,-3,2,65,1,3,1,-2
1501880946211039,-4,-3,-29,-60,2,1,2,4
1501880946211039,13,3,34,31,1,-1,-4,-41
1501880946220039,6,-2,-11,-24,-9,-7,-1,26
1501880946220039,-14,-2,10,23,3,2,0,-10
1501880946235055,11,0,-13,-7,-5,1,-1,-29
1501880946235055,-14,-2,21,8,-2,-2,-1,1
1501880946241045,2,6,-30,15,9,2,3,-12
1501880946241045,-3,-7,1,-1,2,-2,-2,1
1501880946258042,14,5,-8,17,-1,-1,-2,-3
1501880946258042,24,-13,19,2,-12,-4,-1,23
1501880946259044,-30,12,29,35,12,3,-2,-20
1501880946259044,4,-8,-52,-34,-6,-4,2,15
1501880946271053,-17,-6,24,12,3,2,-1,-8
1501880946271053,19,3,-19,-27,2,2,0,8
1501880946280046,-26,-3,10,41,3,0,1,-5
1501880946280046,8,10,40,-16,-4,-5,-5,17
1501880946296048,12,-8,-46,-50,-5,-1,-1,-6
1501880946296048,-9,-2,-5,10,2,-1,-2,1
1501880946297047,15,-4,-3,-14,-7,-4,0,22
1501880946297047,-2,1,-6,-5,1,2,-1,13
1501880946318047,-6,3,16,24,1,-1,1,-1
1501880946318047,5,2,13,8,1,1,4,33
1501880946319046,-5,-5,-40,-52,1,3,-2,-10
1501880946319046,-12,-9,17,3,-18,-5,-3,-37
1501880946340047,1,6,4,2,-1,-1,-2,2
1501880946340047,3,0,-4,-1,0,-1,1,10
1501880946342047,-24,-5,9,25,-3,-3,-2,-21
1501880946342047,-11,8,2,6,8,3,1,-5
1501880946355083,6,-13,-3,-24,-5,-3,-3,-5
1501880946355083,-42,-2,-62,17,2,3,2,-40
1501880946357067,70,-2,10,8,1,-1,-2,19
1501880946357067,-6,4,-7,-36,-7,-1,-1,3
1501880946378076,-14,0,9,-6,-9,-4,-4,3
1501880946378076,-3,2,16,28,0,-3,-1,-6
1501880946379050,12,1,-22,-1,1,4,3,7
1501880946379050,17,-1,-1,28,5,2,0,7
1501880946400053,-3,2,34,1,3,-1,0,-6
1501880946400053,10,-1,-2,-21,2,3,0,15
1501880946402053,4,-6,-34,-40,-9,-6,-6,15
1501880946402053,-15,-6,10,13,1,-4,-3,-2
1501880946415094,24,4,0,27,7,2,3,-2
1501880946415094,0,4,34,-35,-15,-6,-7,0
1501880946417058,-7,0,3,-1,1,2,3,13
1501880946417058,-7,-1,-8,-6,3,0,0,-5
1501880946438052,3,-1,4,30,7,1,-4,19
1501880946438052,-11,1,24,50,0,-1,1,-23
1501880946440054,0,1,8,7,-1,0,0,-31
1501880946440054,11,0,0,-2,-1,1,0,3
1501880946460053,-17,9,25,-3,2,2,1,-3
1501880946460053,9,-7,-15,4,-4,-7,-6,-15
1501880946462057,-1,-2,-3,-2,-3,0,0,10
1501880946462057,6,7,16,-9,3,0,0,-3
1501880946474055,-7,-8,-27,53,3,1,2,15
1501880946474055,-11,-5,-2,-45,-1,-3,-3,5
1501880946481083,-4,6,2,-28,-1,0,1,-16
1501880946481083,13,1,7,12,5,-1,-2,-1
1501880946498055,-2,2,7,-67,-11,-3,1,-2
1501880946498055,-2,1,2,57,9,-2,1,13
1501880946499056,2,-3,-9,7,-3,-1,-3,8
1501880946499056,-8,-11,-8,5,-6,-3,-3,7
1501880946520097,-17,-1,-24,1,4,-1,0,-19
1501880946520097,3,1,-7,-4,2,3,1,-3
1501880946522091,-5,2,8,-32,-2,0,2,-1
1501880946522091,30,3,12,-3,-1,1,0,0
1501880946534058,-5,-1,-17,37,-2,-2,-3,-12
1501880946534058,10,-6,-1,-4,-4,1,-2,4
1501880946541059,-9,2,5,1,0,-3,-2,4
1501880946541059,5,-1,-12,-11,-2,-1,-2,-14
1501880946558078,5,2,7,3,3,1,3,-17
1501880946558078,-43,-4,-9,28,3,1,1,14
1501880946559061,31,-4,6,-34,-12,-4,-3,-1
1501880946559061,-18,-1,0,2,-1,-3,0,-7
1501880946580123,10,1,-2,-15,-4,-3,-3,14
1501880946580123,-15,7,9,-17,1,3,2,-3
1501880946582096,26,-6,-5,42,1,-1,-3,17
1501880946582096,-15,-4,2,-32,-1,0,0,-14
1501880946594127,-22,-8,13,-13,-14,-3,-2,-14
1501880946594127,29,-4,-37,-65,-8,-5,-6,4
1501880946601083,-13,1,4,-10,3,1,0,0
1501880946601083,14,-2,-10,35,1,-1,0,20
1501880946618099,6,1,-17,21,7,1,0,-2
1501880946618099,-3,-1,-6,-40,-2,0,0,-3
1501880946619065,3,-10,0,55,1,-8,-4,-13
1501880946619065,-4,12,-8,15,8,2,1,8
1501880946640065,-16,-11,-18,-39,-7,-2,-3,-16
1501880946640065,6,-3,23,-41,-10,-2,0,13
1501880946642098,-7,3,-3,-16,0,0,-1,2
1501880946642098,-30,-2,20,-36,-4,0,0,-5
1501880946654086,-1,-3,-22,84,2,-1,-3,-10
1501880946654086,9,2,21,11,3,0,-1,6
1501880946661066,2,-1,-10,-10,-1,-1,-2,5
1501880946661066,-30,-9,-6,-10,-4,-2,-1,-10
1501880946678066,-3,15,17,-5,6,2,2,-8
1501880946678066,-41,-18,-2,71,1,-1,0,-8
1501880946679069,-20,1,18,-62,-16,-9,0,-2
1501880946679069,11,-5,-26,4,3,2,1,70
1501880946700086,24,0,30,3,-7,-7,-5,-35
1501880946700086,-2,1,-6,10,1,1,0,-4
1501880946702087,4,3,2,31,7,4,3,-4
1501880946702087,-16,2,-2,-48,-1,-1,-3,-4
1501880946715068,1,-3,1,40,-6,-1,1,22
1501880946715068,20,3,-34,-18,-2,-2,-1,9
1501880946721109,-24,-8,8,20,1,1,-3,-37
1501880946721109,21,8,18,9,2,-1,-1,1
1501880946738092,-1,-3,-29,-19,6,2,2,10
1501880946738092,-21,-4,-8,-75,-6,-4,-4,-27
1501880946740070,4,1,7,43,1,2,2,16
1501880946740070,24,2,-6,32,-1,-2,-2,-10
1501880946760092,-15,-9,5,-22,-1,-1,0,22
1501880946760092,25,8,5,-10,1,3,1,-9
1501880946762074,3,3,9,-22,2,0,-2,-11
1501880946762074,-13,-6,-17,51,-3,-3,-2,6
1501880946774091,-7,4,9,-39,-2,1,1,5
1501880946774091,33,-5,20,22,-4,-2,-3,8
1501880946781098,-34,-4,-20,74,6,-1,-1,-7
1501880946781098,33,-8,-29,-82,-16,-5,-3,13
1501880946798073,6,6,6,1,6,4,1,-1
1501880946798073,-34,-13,-27,-3,-4,-4,-3,-7
1501880946799077,2,2,3,-35,-9,-6,-5,-3
1501880946799077,0,-1,12,31,5,6,7,4
1501880946820076,-12,-3,-9,-49,-1,-2,-2,4
1501880946820076,21,5,15,63,-6,-3,-3,9
1501880946822075,-15,1,2,19,5,2,3,11
1501880946822075,17,3,-15,-16,-3,-2,-4,-8
1501880946834077,5,-14,2,-17,-3,-2,-2,22
1501880946834077,-4,0,0,-27,4,-2,1,-30
1501880946849084,10,3,2,6,-3,-1,-1,-7
1501880946849084,-13,-1,-6,-36,-3,-1,1,-5
1501880946857096,-5,-7,-3,-12,-1,0,-1,-18
1501880946857096,3,3,-1,24,1,-3,-2,21
1501880946864081,5,-3,0,1,1,0,1,9
1501880946864081,4,4,11,7,1,-1,-1,-11
1501880946880097,-50,-3,12,22,-2,-4,-2,-3
1501880946880097,11,5,5,-15,0,1,2,-2
1501880946882097,2,-5,-12,23,-3,1,-1,-5
1501880946882097,-10,5,47,9,4,-1,-1,-13
1501880946894080,-4,-3,-38,-28,-3,0,1,7
1501880946894080,48,3,-13,8,3,0,2,13
1501880946903080,-35,-4,-11,-29,-6,0,-2,11
1501880946903080,6,2,17,40,5,-1,0,-12
1501880946918083,24,3,7,15,-4,-2,0,1
1501880946918083,-11,-9,-12,-17,0,0,-1,0
1501880946919081,29,-6,5,3,0,-5,-2,-1
1501880946919081,-10,0,-7,17,-1,3,0,2
1501880946940081,33,5,8,-13,-2,-1,-1,-2
1501880946940081,-58,-3,-9,38,3,0,1,-14
1501880946942085,-3,0,20,-47,-8,-3,-4,-18
1501880946942085,22,-4,-21,-18,-2,-5,-4,17
1501880946954084,1,1,-7,37,1,2,1,-23
1501880946954084,2,5,18,-38,-3,-1,-2,6
1501880946963083,-14,-4,-14,2,-2,-1,-2,17
1501880946963083,35,-2,13,26,4,2,3,-1
1501880946978086,-1,3,-5,-9,-2,-4,-3,18
1501880946978086,-4,-8,-5,17,-3,-2,-4,-1
1501880946979084,1,5,8,-37,-2,0,1,5
1501880946979084,-11,-1,-2,-27,0,0,-2,-15
1501880947000088,5,-14,-28,38,-6,-4,-3,-6
1501880947000088,8,-2,19,22,-6,-2,1,11
1501880947002085,12,11,22,-19,0,-2,-5,-66
1501880947002085,-47,-17,-62,-7,-6,-5,-4,-15
1501880947014087,9,4,8,0,6,1,-1,5
1501880947014087,8,12,31,26,8,4,4,17
1501880947023098,-20,-8,-17,-56,-3,-1,1,-9
1501880947023098,34,1,-2,-16,-15,-3,0,27
1501880947038087,-16,2,23,-6,4,1,1,-23
1501880947038087,-1,-9,-41,-15,-1,-2,-1,2
1501880947040088,14,7,36,22,4,5,3,-9
1501880947040088,-51,-6,-2,9,2,-2,-1,-21
1501880947060090,22,2,-10,-41,-5,-3,-2,25
1501880947060090,-16,-4,26,23,-2,0,-5,-13
1501880947062095,0,0,1,83,4,-4,2,21
1501880947062095,17,-6,-44,-31,-9,-2,-2,-5
1501880947074090,-23,6,14,-13,-2,0,0,-22
1501880947074090,21,-2,-27,-26,-1,-2,1,1
1501880947083091,-6,-1,3,-4,-1,0,-3,-13
1501880947083091,-15,1,30,104,4,-2,-1,-7
1501880947097094,-1,0,-3,-27,-5,-2,-4,15
1501880947097094,-8,5,2,-30,-7,-3,-3,-38
1501880947099091,11,-8,-18,-6,-2,-1,0,49
1501880947099091,-16,1,7,16,5,3,1,-21
1501880947120108,13,-3,24,18,-1,0,-3,-2
1501880947120108,-14,2,4,-26,-1,-2,-3,16
1501880947122092,11,2,-20,16,1,0,0,16
1501880947122092,5,4,12,57,-6,-3,-2,-2
1501880947134100,-6,-8,5,2,0,-2,0,6
1501880947134100,-1,-7,-27,-38,-1,0,0,-6
1501880947143094,4,2,0,-34,0,5,3,-13
1501880947143094,5,3,-2,-25,4,-2,-4,20
1501880947158094,11,2,15,-14,-1,0,2,12
1501880947158094,-25,-4,0,61,-2,-2,-4,2
1501880947159094,-3,2,-21,14,3,2,1,-9
1501880947159094,8,5,28,-16,-2,-1,1,9
1501880947180095,-9,-2,-23,-41,6,2,1,-7
1501880947180095,47,-4,3,10,-7,-4,2,89
1501880947182105,-12,-6,-18,11,-4,-1,-2,-12
1501880947182105,2,-2,7,31,4,1,-1,0
1501880947194097,21,-1,13,-26,1,-3,-1,7
1501880947194097,-36,-1,-25,-4,5,5,4,-31
1501880947203098,4,0,-16,-17,-7,-5,-4,23
1501880947203098,-9,-4,-7,-23,1,-1,0,-7
1501880947218118,-9,2,-12,53,5,1,2,-5
1501880947218118,5,3,28,-21,-3,-2,-3,-27
1501880947219103,-10,-7,-31,-7,0,-2,-2,-2
1501880947219103,1,0,-4,-19,1,2,1,-12
1501880947240099,10,-3,-9,-10,-3,-3,-2,4
1501880947240099,-35,-1,13,21,-3,-5,-3,-15
1501880947242101,-3,4,17,3,5,1,0,5
1501880947242101,28,-8,-19,-1,-7,0,-1,3
1501880947262103,-3,5,-1,-10,1,-4,-5,5
1501880947262103,6,-7,13,27,2,2,-2,-10
1501880947264100,3,1,1,13,2,0,1,4
1501880947264100,-24,-7,-5,-97,-8,-4,-2,-5
1501880947277102,16,5,31,37,-4,-2,0,3
1501880947277102,-18,-1,-5,36,5,-1,-5,-31
1501880947279107,-5,6,53,-14,4,1,1,6
1501880947279107,-5,-11,-57,14,-10,-7,-5,-5
1501880947300123,4,-8,-47,-17,-4,0,-1,9
1501880947300123,10,5,11,7,-3,-1,0,4
1501880947302106,-1,-1,6,-3,1,-1,0,-2
1501880947302106,-10,4,11,10,6,2,2,0
1501880947322124,-30,-4,-5,-45,-6,-4,-5,-26
1501880947322124,-15,-1,3,12,0,-1,-2,1
1501880947324104,3,-1,-4,-5,-4,-1,-2,-6
1501880947324104,10,1,-4,-22,-7,-5,-2,13
1501880947338124,0,4,29,36,2,0,0,-6
1501880947338124,-16,-5,-27,-52,-3,-1,-1,3
1501880947340105,16,-13,5,26,-7,-6,-7,8
1501880947340105,-12,7,-13,-1,3,4,2,-3
1501880947360126,-12,-4,30,49,3,0,0,-5
1501880947360126,29,-2,-3,-67,-3,-4,-3,13
1501880947362128,-1,-3,-14,-4,-4,-2,0,-1
1501880947362128,7,2,21,6,-5,-2,-1,-17
1501880947383115,0,-3,-34,-63,-9,0,0,9
1501880947383115,-17,3,24,54,6,0,-2,-13
1501880947384108,18,-4,-23,4,-3,-2,0,12
1501880947384108,-3,0,10,-3,5,2,-1,-5
1501880947397129,-34,0,3,36,2,0,-2,-8
1501880947397129,34,2,5,-26,-4,-3,-2,18
1501880947399108,-11,1,-31,-27,-3,4,1,-9
1501880947399108,20,4,2,1,1,0,0,4
1501880947420148,5,-8,4,-15,-4,-2,-3,-11
1501880947420148,3,-2,-15,60,7,4,4,2
1501880947422111,5,-9,-4,-89,-12,-7,-6,-9
1501880947422111,-25,2,-2,2,5,0,0,18
1501880947443119,12,5,0,-22,-9,-3,-3,-5
1501880947443119,5,0,-1,1,-2,-1,-2,-5
1501880947444115,2,4,18,25,5,3,2,2
1501880947444115,-1,-3,7,5,4,-4,-2,-4
1501880947457111,-2,-3,1,-26,-1,2,0,3
1501880947457111,-13,-1,1,35,0,-3,-4,-11
1501880947464133,3,3,-4,-51,-3,-2,-1,4
1501880947464133,-5,-2,24,26,7,1,1,-2
1501880947480139,-8,-8,-22,2,-4,-5,-1,-13
1501880947480139,4,2,-19,-19,-1,3,3,-2
1501880947482120,-6,-3,-4,33,2,-2,-2,-1
1501880947482120,38,0,16,-52,-2,-2,-2,17
1501880947503114,-3,2,-25,31,-5,3,3,-1
1501880947503114,11,-3,12,-21,-4,-3,-1,2
1501880947504116,-11,0,-4,1,0,-2,0,-3
1501880947504116,-4,1,16,24,-1,-1,0,4
1501880947517162,7,-4,-3,-34,-4,0,0,-12
1501880947517162,0,-7,-24,-14,-7,-4,-6,-7
1501880947524116,-9,10,39,56,4,2,0,-34
1501880947524116,23,-5,-7,31,-7,-4,-5,27
1501880947540125,15,3,-1,-40,0,0,-3,-38
1501880947540125,-14,-3,2,6,0,0,0,-7
1501880947542144,-6,-9,-56,-6,-7,-4,-1,0
1501880947542144,-21,-1,7,4,2,-4,-1,-26
1501880947563118,-3,5,7,-8,1,0,-1,14
1501880947563118,12,5,9,-22,-1,0,0,11
1501880947564119,-8,-6,9,25,3,-1,-2,-1
1501880947564119,-9,-4,-22,-15,-3,2,0,-2
1501880947577124,6,0,-4,36,3,-1,1,13
1501880947577124,-6,6,11,26,3,1,1,-6
1501880947584181,-9,-5,-23,-74,1,-2,-1,8
1501880947584181,6,3,9,0,-15,-3,0,-1
1501880947600138,-22,-3,21,30,2,-3,-2,-14
1501880947600138,7,-4,-19,-5,0,0,2,3
1501880947602120,-7,3,5,22,6,2,1,-19
1501880947602120,4,-1,6,-7,-1,-1,-2,1
1501880947623124,-23,1,12,-2,4,1,0,0
1501880947623124,22,-6,-13,64,-9,-7,-5,17
1501880947624122,12,2,1,-7,-1,-1,-1,4
1501880947624122,-10,-3,-11,-3,3,-1,1,-6
1501880947637167,-10,-1,2,-2,-4,-1,-2,-11
1501880947637167,-22,8,23,25,7,3,1,0
1501880947644156,12,-5,2,-2,-10,-6,-6,-2
1501880947644156,-8,1,-16,-6,-3,-4,0,-20
1501880947660145,33,-4,-1,24,7,2,0,35
1501880947660145,-16,-2,-9,-102,-2,0,1,-9
1501880947662123,8,3,33,68,-4,-1,-2,13
1501880947662123,-7,-8,-15,-11,-3,0,-3,-5
1501880947683131,-6,0,-6,3,2,-2,-2,10
1501880947683131,15,2,16,-19,1,0,-2,-2
1501880947684143,-46,-2,-25,-2,1,-1,-1,2
1501880947684143,8,1,-5,-30,-3,2,2,4
1501880947697126,-10,0,11,69,5,-1,-2,-23
1501880947697126,2,-2,-19,-25,-7,-2,-1,-8
1501880947704148,16,-8,8,16,2,-2,-2,7
1501880947704148,4,4,18,13,-7,0,-3,-7
1501880947720163,-15,-1,-30,-7,0,2,2,9
1501880947720163,21,0,-2,-7,1,-1,0,15
1501880947722146,4,3,-2,6,2,2,2,-10
1501880947722146,-9,-4,-2,-8,2,2,-2,-2
1501880947743132,-3,2,-7,7,-5,-3,0,6
1501880947743132,-10,1,13,6,6,1,0,-6
1501880947744128,8,3,3,-3,-3,-2,0,4
1501880947744128,5,-3,37,-54,-1,-3,-2,-18
1501880947756130,4,-1,-28,21,-2,1,0,13
1501880947756130,-30,-1,5,13,3,0,-1,-12
1501880947765129,-5,-1,-2,-55,-1,-1,1,1
1501880947765129,-6,-1,-10,-2,0,-2,-2,18
1501880947780172,18,0,16,1,3,-1,-1,0
1501880947780172,0,0,26,-5,-4,-3,0,-6
1501880947782170,-1,-2,-24,3,0,2,0,2
1501880947782170,-9,5,10,18,4,0,1,-8
1501880947802132,2,-8,-17,-50,-7,-6,-4,9
1501880947802132,-3,-1,-27,11,-4,0,-2,-5
1501880947804135,-2,2,24,-12,-1,-5,-1,-1
1501880947804135,2,-5,-14,8,-2,1,-3,2
1501880947816172,0,-1,6,-1,2,1,0,-17
1501880947816172,13,4,21,17,3,3,1,4
1501880947825135,-16,-7,-14,36,-5,-7,-5,6
1501880947825135,-6,2,-8,11,3,0,0,4
1501880947840157,1,-2,8,-8,-4,-2,-1,-5
1501880947840157,18,0,17,-11,-1,-4,-3,34
1501880947842136,-7,-3,-11,-22,1,5,1,-17
1501880947842136,-19,-6,-14,18,-2,-4,-1,0
1501880947862135,-12,5,16,48,2,-3,-3,-12
1501880947862135,7,-4,-13,-43,-11,-1,2,2
1501880947864136,9,1,-16,-5,-1,-2,-2,-10
1501880947864136,3,3,39,-19,-1,2,-1,-2
1501880947876140,-3,-8,20,16,1,-4,-1,4
1501880947876140,0,-7,-30,-26,-1,-4,-2,-11
1501880947885138,5,1,-19,-14,0,2,-1,17
1501880947885138,6,-2,13,13,-2,-4,-5,3
1501880947900141,6,-4,-19,-27,-7,-3,-1,5
1501880947900141,-6,5,13,23,2,0,0,-7
1501880947902139,-3,-3,13,-10,0,0,-1,-7
1501880947902139,13,1,-26,-5,6,2,4,-3
1501880947922139,-10,-7,-11,35,-10,-4,-5,8
1501880947922139,-1,-2,1,-6,6,1,1,-8
1501880947924139,-2,4,13,-11,-2,0,0,4
1501880947924139,21,-5,-10,7,-7,-2,-1,-15
1501880947936158,-6,-1,7,-27,1,-1,-2,-9
1501880947936158,-3,-4,-15,1,0,-1,-1,0
1501880947945143,5,-1,4,63,-2,1,-1,-2
1501880947945143,-15,2,-4,20,7,1,0,2
1501880947960142,11,2,-6,-39,-5,1,1,-3
1501880947960142,12,-8,-20,30,-8,-6,-3,10
1501880947962144,20,2,9,-9,1,0,1,-1
1501880947962144,-10,-1,-8,13,-1,-1,-2,1
1501880947982144,36,-2,-1,33,5,1,3,8
1501880947982144,-23,-2,7,-31,-9,-4,-2,-27
1501880947984143,-18,-1,11,36,-1,-2,-2,0
1501880947984143,1,0,-6,2,-2,1,2,2
1501880947996146,-4,1,-9,19,7,3,-1,-20
1501880947996146,7,1,-7,-22,7,2,0,3
1501880948005145,-15,-7,2,11,1,-2,-1,4
1501880948005145,-9,-2,7,7,-1,-5,-2,-6
1501880948020145,-10,1,0,-16,-5,2,0,10
1501880948020145,-8,-3,5,-4,0,-3,-2,2
1501880948022147,-8,4,7,-20,2,5,2,-5
1501880948022147,-13,-4,-17,2,-6,-4,-3,-11
1501880948042148,-12,4,8,-33,-4,-5,-5,-24
1501880948042148,-8,-3,-19,-3,-4,0,-2,-6
1501880948044147,6,0,-3,-17,7,0,0,1
1501880948044147,2,-2,-1,21,-4,-1,0,-13
1501880948056150,15,-1,-14,-17,-2,-2,-1,41
1501880948056150,2,3,-10,12,1,-1,-1,2
1501880948065149,-6,-4,27,-9,-8,-2,-1,-10
1501880948065149,11,6,1,-72,-3,-1,-1,20
1501880948080152,-11,-8,8,16,2,-2,-3,-11
1501880948080152,24,1,-17,-10,-11,-5,-3,14
1501880948082166,20,0,-4,19,1,0,-1,21
1501880948082166,-3,1,10,15,1,1,0,-9
1501880948102155,-8,-7,-10,-13,-2,-3,-1,2
1501880948102155,-5,3,13,-5,8,3,0,-5
1501880948104150,-13,-2,-7,51,-6,-5,-2,-9
1501880948104150,2,-4,14,-36,-4,0,-4,24
1501880948116153,1,0,1,-15,5,3,0,-3
1501880948116153,7,4,-2,46,4,2,1,0
1501880948125167,1,-4,-8,-97,-13,-6,-3,-1
1501880948125167,-43,-3,0,75,8,-1,-2,-35
1501880948140161,13,-1,-29,-36,-13,-2,-3,10
1501880948140161,-7,-4,3,-8,1,0,1,13
1501880948142165,-14,4,4,-16,-2,-1,-3,-63
1501880948142165,12,-6,-18,42,-3,0,-1,-12
1501880948162153,-42,-2,20,-36,-7,-3,-1,-11
1501880948162153,-11,4,19,20,0,-1,-1,-16
1501880948164154,4,1,-6,12,0,0,0,20
1501880948164154,8,2,-17,-35,2,2,2,8
1501880948176154,3,5,31,70,7,1,1,-4
1501880948176154,-2,-9,-17,-63,-17,-5,-5,-9
1501880948185155,-10,-1,-13,8,3,-4,0,3
1501880948185155,-4,-7,2,-4,-4,3,-2,-3
1501880948200176,34,4,-11,-35,4,1,2,33
1501880948200176,-13,0,10,-10,1,-1,-1,-5
1501880948202177,12,-4,-34,-18,-3,-3,-1,18
1501880948202177,-4,2,7,-10,-1,-2,0,1
1501880948223157,10,0,-1,29,1,-2,2,-23
1501880948223157,-24,-4,-4,11,-1,-1,-2,-9
1501880948224157,-20,1,1,-21,-3,1,0,-7
1501880948224157,10,4,-1,11,2,-1,0,3
1501880948245162,-13,-4,-4,-17,-2,-1,-2,-9
1501880948245162,6,3,18,16,2,-2,0,2
1501880948247158,8,-3,8,84,2,-4,0,-1
1501880948247158,-7,-3,-36,-58,-8,3,-3,-1
1501880948260160,0,-5,2,-2,-6,-5,-3,5
1501880948260160,-4,-1,3,-15,3,1,0,-2
1501880948262160,0,-5,-14,-21,-3,1,-1,9
1501880948262160,2,5,18,26,1,-4,-2,3
1501880948282200,-3,-2,-17,-5,-3,-2,0,2
1501880948282200,8,3,22,8,6,3,0,10
1501880948284166,-2,-6,-36,-4,-10,-5,-6,-4
1501880948284166,5,4,14,20,4,-2,-1,11
1501880948305182,-19,-4,-8,3,-11,-2,-2,-3
1501880948305182,-2,-7,7,-17,-4,-2,-1,-7
1501880948307207,13,6,20,-2,7,4,1,-1
1501880948307207,-12,-10,-21,-22,-4,-2,0,-9
1501880948320204,-7,6,13,31,6,0,0,-1
1501880948320204,1,-1,13,48,2,0,-1,15
1501880948322166,9,-4,-10,-49,-3,0,-3,4
1501880948322166,-2,7,53,13,-4,-1,2,12
1501880948342173,1,-7,-67,-6,-4,-6,-4,-4
1501880948342173,4,1,2,7,-4,3,-1,-12
1501880948344164,1,3,7,23,8,3,-1,4
1501880948344164,-8,-6,-3,-71,-6,-5,-4,-24
1501880948365167,9,3,27,-7,-2,-1,-3,3
1501880948365167,11,0,-27,-14,-4,-3,2,1
1501880948367165,5,-1,7,11,-4,-3,-2,21
1501880948367165,23,1,-6,20,4,2,2,22
1501880948379166,-6,3,12,8,6,5,0,-9
1501880948379166,-10,1,-16,-20,-1,-1,-5,4
1501880948386205,5,0,44,18,3,1,0,12
1501880948386205,8,-7,-32,84,-1,-2,-1,2
1501880948402185,-1,-1,4,-41,0,-2,-1,2
1501880948402185,6,1,2,30,0,-2,0,-8
1501880948404167,6,-1,-16,-21,4,0,0,18
1501880948404167,0,2,6,-36,-3,1,0,-2
1501880948425179,-21,-10,-38,-1,-8,-2,-2,-23
1501880948425179,12,-1,20,-25,-6,0,1,-2
1501880948427169,-2,3,12,31,-3,-3,-3,-6
1501880948427169,-3,0,3,-28,1,-1,-2,2
1501880948439170,2,3,12,41,2,-1,0,9
1501880948439170,-8,-2,-7,-22,-1,1,0,0
1501880948447169,-5,-7,-24,1,-5,-1,-4,1
1501880948447169,-10,0,-5,24,0,-3,0,-6
1501880948462174,4,-2,3,-33,0,1,0,-3
1501880948462174,3,-1,1,24,3,-2,-3,2
1501880948463170,-5,-2,-2,6,-1,0,2,-12
1501880948463170,-16,2,-12,-59,-10,-3,-3,-33
1501880948484210,-1,2,34,24,2,-1,-2,-8
1501880948484210,-2,-4,-9,-21,1,-3,-3,0
1501880948492191,-9,-9,-48,-36,-5,0,1,-13
1501880948492191,-1,-4,-5,11,0,-1,0,2
1501880948499186,4,4,7,-8,-2,-4,1,12
1501880948499186,-21,0,-11,42,4,3,-2,-16
1501880948507175,15,3,29,-58,-3,-1,-2,-4
1501880948507175,2,0,-3,43,7,0,-1,7
1501880948522187,1,-4,3,-10,-12,-4,-4,14
1501880948522187,10,1,21,-35,-1,-1,1,6
1501880948523175,-16,0,13,12,0,1,2,-15
1501880948523175,4,0,-7,-13,2,0,-1,18
1501880948544176,2,0,-6,1,3,-1,-2,-4
1501880948544176,-6,-2,-2,14,-2,1,1,-1
1501880948545176,12,-3,-7,-23,-7,-5,-2,28
1501880948545176,4,-2,3,-1,-1,0,-2,-9
1501880948559176,-1,5,2,2,4,2,2,-2
1501880948559176,-9,-3,0,42,-1,-2,-2,-5
1501880948567197,22,-4,-20,-2,0,-3,-3,12
1501880948567197,36,2,9,-30,-8,-1,2,25
1501880948582227,-16,-4,6,-51,-5,-2,-4,-8
1501880948582227,-12,-8,-58,-31,-3,-4,-2,-2
1501880948583184,-17,8,38,37,7,4,3,-14
1501880948583184,6,-8,-23,13,-2,-2,-1,17
1501880948604179,-3,2,7,-9,3,4,0,-25
1501880948604179,7,3,22,43,-9,-2,0,-5
1501880948605184,-12,-3,-5,20,1,1,-2,-11
1501880948605184,-8,-3,-12,-14,0,1,-3,-12
1501880948619203,10,4,19,14,5,1,1,17
1501880948619203,-8,-6,-35,-19,1,-2,-1,-4
1501880948627181,-6,4,10,-8,-3,-1,-2,-8
1501880948627181,-10,3,-11,24,-1,-2,1,-6
1501880948642220,-1,-6,-15,4,5,-1,-1,0
1501880948642220,1,4,3,-26,1,-4,-2,2
1501880948643181,6,0,10,19,-2,0,0,-2
1501880948643181,-20,2,26,17,3,2,0,-7
1501880948664204,0,-5,-1,46,1,-2,-3,0
1501880948664204,13,2,0,-40,-6,-2,-1,16
1501880948665184,-10,-7,-16,-23,0,-4,-3,-31
1501880948665184,-7,2,12,19,4,2,3,-1
1501880948679205,-5,-1,-10,9,1,0,-1,22
1501880948679205,29,-3,4,-20,-2,2,2,-22
1501880948687247,-53,2,-5,-6,-3,-6,-3,17
1501880948687247,7,-1,-14,-8,0,1,-1,3
1501880948702206,19,7,37,-27,-1,1,2,5
1501880948702206,-8,-1,-9,20,6,-1,0,9
1501880948703184,6,2,17,46,0,-1,-1,-2
1501880948703184,-12,0,-11,-25,-1,1,-1,-10
1501880948724186,-7,1,-7,35,-2,1,0,-5
1501880948724186,11,-6,21,-1,-4,-4,-5,29
1501880948725187,17,2,-6,-2,1,2,2,-2
1501880948725187,-7,-6,21,23,-4,-4,-4,-7
1501880948739224,13,-1,-35,-6,5,-2,1,9
1501880948739224,-13,1,12,-38,-17,-3,-4,-31
1501880948747198,-4,-9,-26,-7,-1,1,0,-2
1501880948747198,3,-6,-2,-7,1,-2,-1,1
1501880948770234,11,0,-2,-38,-7,-1,0,7
1501880948770234,-20,0,-8,27,5,-2,0,-3
1501880948771195,4,-1,1,-35,-4,-1,-2,1
1501880948771195,1,2,4,3,-2,0,0,-5
1501880948784194,-2,-5,1,14,-2,-3,-2,-11
1501880948784194,-12,0,-1,-13,0,2,-2,4
1501880948785191,8,1,4,23,3,1,-3,-17
1501880948785191,-11,-3,-16,-41,-2,1,-2,0
1501880948799200,11,-6,-14,26,-4,-3,-1,14
1501880948799200,26,2,12,-22,2,-1,-3,4
1501880948807194,-70,0,-38,34,8,3,8,-37
1501880948807194,10,0,58,-27,-10,-5,-5,-3
1501880948822223,6,-4,-6,-7,-2,-1,0,-5
1501880948822223,-4,-2,-18,4,1,2,2,1
1501880948822223,37,7,7,-12,5,1,0,29
1501880948822223,14,-1,-1,52,-6,-2,0,-2
1501880948844214,-67,-7,-8,-17,-1,-1,-4,-17
1501880948844214,-12,1,36,27,2,1,0,-21
1501880948845192,13,-2,-13,-10,2,0,-1,13
1501880948845192,-3,-1,-3,-69,-13,-5,-3,2
1501880948859195,14,-2,6,30,4,1,-2,-3
1501880948859195,-4,-1,-10,11,-2,-1,1,-3
1501880948867196,4,1,20,-1,-4,-4,-3,0
1501880948867196,-4,0,-33,12,6,1,0,-4
1501880948882195,2,2,27,0,-2,1,-1,-8
1501880948882195,-14,-3,-6,-13,2,-1,0,6
1501880948882195,28,-5,36,27,-3,1,2,-7
1501880948882195,-5,0,-31,-6,0,-5,-7,-1
1501880948904198,11,9,-4,-21,-1,0,-1,6
1501880948904198,-29,-16,-3,21,-1,-4,-1,0
1501880948905197,9,-4,12,-33,-1,-5,-7,35
1501880948905197,-32,-1,4,20,7,7,5,-34
1501880948919199,43,3,-21,-2,3,1,3,13
1501880948919199,10,6,5,-22,0,1,2,28
1501880948927200,-22,-4,-27,25,-4,-2,-2,-27
1501880948927200,-14,-7,27,11,1,-4,-2,0
1501880948942200,2,4,7,6,-1,0,-2,1
1501880948942200,11,-4,-3,-16,-3,-3,-1,2
1501880948943199,-1,0,-9,0,-5,-2,-2,-9
1501880948943199,14,3,-27,17,7,1,1,15
1501880948964200,-11,0,11,1,-2,-2,0,-15
1501880948964200,9,-1,-5,-14,-5,1,-2,-3
1501880948965200,-5,-4,-3,1,-2,-3,-2,2
1501880948965200,-4,4,8,-30,-1,-1,0,9
