timestamp,emg1,emg2,emg3,emg4,emg5,emg6,emg7,emg8
1501882745554235,-11,-1,-22,-57,5,3,8,-6
1501882745554235,-13,1,6,12,0,1,0,1
1501882745556292,20,2,-5,-36,-3,3,8,14
1501882745556292,-19,-2,-7,-21,1,3,-3,17
1501882745556292,-11,3,34,102,9,2,4,-22
1501882745556292,9,1,-7,-71,-4,-2,-2,-1
1501882745557246,-16,-5,-6,17,-8,-8,-23,-20
1501882745557246,47,9,16,51,3,1,15,29
1501882745559327,-49,2,-18,-86,-7,4,23,-18
1501882745559327,-39,-8,4,118,9,0,5,-19
1501882745573318,38,7,17,-10,-5,-1,3,20
1501882745573318,13,1,-9,-64,-1,-2,-8,-49
1501882745584273,18,1,19,95,0,1,-3,7
1501882745584273,-17,-7,-34,-72,-15,-6,-19,-18
1501882745588286,-32,5,20,-9,1,-1,26,-23
1501882745588286,15,-3,-22,104,6,-5,-9,15
1501882745604241,7,-8,-10,-107,-9,1,-8,-6
1501882745604241,4,1,2,8,-13,1,1,12
1501882745619294,-5,-4,-12,34,11,5,-9,2
1501882745619294,-12,0,37,41,-4,-10,-3,-20
1501882745627240,-2,5,14,34,-1,2,-5,28
1501882745627240,37,-12,-53,-19,-12,-11,-12,2
1501882745674276,4,-2,-31,-4,-5,-8,-5,-79
1501882745674276,-15,0,26,-58,-11,1,5,0
1501882745674276,30,1,3,10,0,-3,-4,10
1501882745674276,4,1,13,42,4,-1,-2,-7
1501882745675237,-11,-8,4,-45,-3,-5,-16,14
1501882745675237,4,13,20,-20,6,6,14,0
1501882745679238,10,-9,-22,48,2,-6,-6,25
1501882745679238,-9,-9,-51,-81,-14,-1,-22,-8
1501882745680264,-3,-1,8,-19,-4,1,30,-4
1501882745680264,-33,-4,-10,75,12,-2,-9,37
1501882745685275,-55,-2,25,-74,-9,1,-8,-41
1501882745685275,47,9,0,18,9,0,17,15
1501882745693289,1,4,1,-4,3,2,-11,15
1501882745693289,76,2,13,-1,-4,-3,1,35
1501882745708278,-12,-7,-25,5,13,2,9,4
1501882745708278,-30,-8,-10,-32,-5,2,-5,-10
1501882745715283,3,-11,-24,-23,-12,-1,-5,-5
1501882745715283,43,7,28,65,26,2,1,4
1501882745740252,-66,-6,-19,-47,-19,-3,-7,-19
1501882745740252,-14,6,17,39,4,-1,5,33
1501882745741242,31,-15,-31,24,-13,-10,-1,44
1501882745741242,-47,4,7,0,-1,6,-3,-25
1501882745753255,22,-3,26,23,0,0,2,10
1501882745753255,4,4,4,-43,4,1,-9,-9
1501882745754252,42,7,24,49,5,3,9,39
1501882745754252,-47,-8,-20,16,-5,-7,-9,-74
1501882745776310,-7,2,-30,-99,0,2,-2,-12
1501882745776310,-17,-3,35,55,-4,-3,4,-32
1501882745777259,-5,5,7,-4,1,-2,-9,-9
1501882745777259,-1,-4,-7,-52,-11,0,-5,-14
1501882745799289,60,5,3,12,2,-1,-3,67
1501882745799289,16,-12,-11,14,-16,-9,-10,-21
1501882745800248,-29,11,39,37,12,7,4,-27
1501882745800248,16,-10,-55,-37,-12,-6,-6,42
1501882745814290,31,10,18,63,14,11,10,79
1501882745814290,-8,-5,12,53,1,-10,-13,-44
1501882745815251,-3,0,17,8,-4,1,9,18
1501882745815251,-48,-2,-4,51,5,-2,-4,-18
1501882745836314,52,-1,-20,-59,-10,-4,7,5
1501882745836314,17,7,-8,-62,2,10,10,19
1501882745837256,-24,-1,-4,-20,-4,-4,-8,-22
1501882745837256,-2,3,4,13,2,0,2,-14
1501882745859313,-22,-5,5,2,-5,-2,-1,-41
1501882745859313,11,0,-8,38,5,1,4,-1
1501882745860265,-18,0,14,-1,8,2,-4,-15
1501882745860265,24,-4,-3,-42,-12,-2,-2,92
1501882745873291,-8,0,2,14,-12,-5,1,-21
1501882745873291,-26,-1,3,-17,4,6,5,-37
1501882745874253,8,-3,-28,-18,0,1,0,-14
1501882745874253,20,2,-2,-22,-5,-8,-10,15
1501882745896318,2,-10,-34,-68,-5,0,-1,20
1501882745896318,-37,3,9,55,6,-1,4,-14
1501882745897262,4,-3,-9,72,6,2,9,20
1501882745897262,10,-1,5,-74,-4,6,2,-8
1501882745919295,-54,-3,13,-36,3,-1,-4,-31
1501882745919295,47,-4,-29,-56,-3,-8,-5,49
1501882745920255,-20,3,19,8,-3,-4,-8,-23
1501882745920255,6,-5,-12,47,1,-3,0,-3
1501882745933303,46,1,-4,20,0,-2,-4,70
1501882745933303,-20,7,28,28,3,1,5,2
1501882745948324,-5,-4,-9,-32,7,4,1,19
1501882745948324,6,1,5,14,1,0,0,-1
1501882745956321,-32,-5,-30,-13,-2,-2,-11,-124
1501882745956321,-24,-3,9,-17,-3,-2,2,-34
1501882745957266,9,1,-22,-37,-12,-8,-9,18
1501882745957266,-16,1,14,37,4,2,3,-22
1501882745979301,10,4,30,91,11,4,3,-15
1501882745979301,-20,-5,-22,-25,-7,-7,-5,-10
1501882745980258,-8,-1,-5,76,3,4,6,-35
1501882745980258,-5,-4,-18,-97,-6,1,2,-13
1501882745993305,-3,6,17,64,11,2,5,17
1501882745993305,-32,-3,13,-35,-12,1,3,-22
1501882746001299,-6,-1,20,7,-1,-3,-4,23
1501882746001299,10,-7,-26,-2,-4,-3,0,-32
1501882746016303,3,4,14,15,1,0,-3,-7
1501882746016303,-21,0,8,-16,-3,-4,-5,-59
1501882746017261,0,-2,5,38,6,-3,-6,-1
1501882746017261,-14,-6,-13,-66,-17,0,3,2
1501882746039326,-17,-2,4,-6,-8,-6,-8,-24
1501882746039326,34,0,-1,8,10,6,5,79
1501882746040268,-4,2,15,-65,-11,-2,-7,-3
1501882746040268,15,-4,-7,42,0,-4,-2,-10
1501882746053265,-4,7,22,73,3,0,0,-4
1501882746053265,42,-7,-31,-63,-10,-6,-1,68
1501882746061307,1,-2,0,34,12,10,6,7
1501882746061307,17,4,14,17,-2,-1,1,31
1501882746076303,-14,-11,-45,-87,-19,-8,-5,-18
1501882746076303,23,1,-1,24,3,1,0,37
1501882746077271,1,-3,-6,-12,-1,-1,1,-7
1501882746077271,-17,2,8,-32,0,0,-2,-35
1501882746099319,3,0,11,65,8,3,2,10
1501882746099319,23,1,-14,-62,-5,-7,-7,36
1501882746100265,-3,5,22,42,-3,-3,1,-23
1501882746100265,-3,-11,-23,-3,-6,-2,-3,32
1501882746113282,-18,0,-1,-7,9,5,8,88
1501882746113282,24,1,-1,-25,-14,-1,-4,-3
1501882746121305,-19,6,4,-4,-3,-6,0,-25
1501882746121305,-2,1,13,19,8,5,-1,15
1501882746136325,4,-6,-13,12,0,-4,-6,-12
1501882746136325,1,0,6,52,3,8,1,-13
1501882746137268,19,-6,-13,25,5,0,3,30
1501882746137268,-16,5,7,3,-7,-8,-10,-67
1501882746159309,-46,-3,18,-11,-2,2,14,-15
1501882746159309,7,-2,-36,-68,-3,-2,-4,-52
1501882746160282,-3,-3,-4,-39,-12,-3,-4,23
1501882746160282,-7,-6,19,90,7,-2,0,16
1501882746173311,3,-3,-18,-39,-6,-3,-3,2
1501882746173311,-21,-3,4,88,6,-2,-1,-10
1501882746181335,-4,0,-2,-52,-9,0,-2,1
1501882746181335,17,3,2,2,0,-2,-1,0
1501882746196313,17,5,26,22,2,0,6,37
1501882746196313,-11,0,-5,29,-1,-2,-7,-37
1501882746197280,11,-8,-35,-69,0,0,-1,16
1501882746197280,-36,1,4,8,1,2,1,-48
1501882746219313,25,-4,-12,-18,-6,-4,-6,-3
1501882746219313,-3,-2,25,37,8,0,0,17
1501882746220281,6,0,-30,-16,0,-2,-6,5
1501882746220281,3,-4,-2,-25,-3,-3,1,-73
1501882746233312,14,5,13,13,-7,-1,-5,-36
1501882746233312,-3,1,20,51,7,2,5,47
1501882746241274,-4,1,-5,-55,-11,-1,-6,-14
1501882746241274,5,-1,-20,-64,-3,0,2,61
1501882746256290,14,-5,-12,47,1,-1,3,23
1501882746256290,-38,-1,10,20,-2,-2,-2,-44
1501882746257275,5,0,-1,24,-2,-9,2,-13
1501882746257275,7,0,-9,-21,2,3,0,-7
1501882746279318,-3,4,2,13,4,7,0,-19
1501882746279318,-11,-12,-24,-70,-19,-3,-1,17
1501882746280276,13,2,6,56,8,3,2,7
1501882746280276,-28,1,15,-84,-12,-4,0,8
1501882746293320,8,-6,-17,-10,-9,-10,-9,-16
1501882746293320,6,5,10,1,5,4,4,42
1501882746301319,13,-6,1,-6,-5,-2,0,-93
1501882746301319,12,-2,-10,27,0,-5,-5,22
1501882746316320,6,0,-11,-59,-3,-3,2,9
1501882746316320,33,5,13,42,2,6,1,20
1501882746317283,-8,5,3,-3,-1,1,-2,35
1501882746317283,-18,-9,-17,18,-1,-2,-5,-19
1501882746339318,15,-4,-21,9,5,-2,3,3
1501882746339318,-17,-6,-2,-79,-12,-9,-3,-20
1501882746340305,-4,5,11,2,0,2,-1,22
1501882746340305,-16,2,16,44,5,2,-1,-42
1501882746362312,15,-2,0,-39,-4,-5,-6,-3
1501882746362312,14,2,-6,7,7,-1,-1,5
1501882746362312,-36,-7,6,62,4,3,0,-19
1501882746362312,2,-3,-8,-33,-12,-5,-1,20
1501882746376349,-39,1,-20,25,3,4,4,-16
1501882746376349,-15,0,24,18,11,1,-2,-37
1501882746377281,11,-5,5,21,-7,-6,-5,5
1501882746377281,22,3,-24,12,-6,1,1,35
1501882746399354,-17,0,21,-12,-5,-7,-6,-18
1501882746399354,14,-2,-8,51,0,3,3,68
1501882746400283,-15,-6,-2,16,7,0,2,64
1501882746400283,5,2,1,-17,9,6,0,-12
1501882746421317,61,0,4,-4,-7,-8,4,54
1501882746421317,-69,-8,-10,-28,-5,-1,1,-44
1501882746422283,12,4,11,-8,-2,1,2,15
1501882746422283,1,1,21,42,8,0,-2,-5
1501882746444324,13,-1,-11,-12,0,3,-1,25
1501882746444324,-21,5,-2,-58,0,0,-1,-31
1501882746445297,-2,-12,-34,-29,3,0,0,7
1501882746445297,7,-2,4,30,-2,-3,-2,21
1501882746467307,-17,5,11,17,5,1,-4,-32
1501882746467307,8,-1,5,29,-3,0,0,-65
1501882746467307,29,6,-3,-66,-1,-1,-3,-16
1501882746467307,-1,-8,-21,5,-12,-4,-2,6
1501882746481287,0,-1,17,26,1,1,-3,-1
1501882746481287,6,-3,-5,13,-7,-9,-9,37
1501882746482287,-5,-3,0,-8,-3,-9,-2,13
1501882746482287,0,0,-6,-35,6,14,8,-4
1501882746496287,-20,1,-5,-3,-6,0,-4,-26
1501882746496287,13,-4,0,41,2,-1,2,14
1501882746497291,-31,-2,1,-22,-7,-1,-2,-52
1501882746497291,0,0,-1,39,7,-3,1,22
1501882746519300,-37,-8,-26,-28,-17,-3,-2,47
1501882746519300,11,-1,-2,-12,1,-1,-2,25
1501882746520289,-4,3,18,57,4,2,8,-11
1501882746520289,-15,3,6,-61,-6,1,2,-23
1501882746541324,-18,-2,-7,47,3,-2,-6,-33
1501882746541324,8,-1,-17,-15,-4,-4,4,41
1501882746542299,24,1,-1,-18,-1,2,-1,27
1501882746542299,-30,6,21,53,7,0,-2,-44
1501882746556319,-22,-5,11,-24,-1,3,-2,-10
1501882746556319,-2,3,-5,-43,-12,-4,0,42
1501882746557292,15,0,-15,7,-1,3,-4,8
1501882746557292,16,-2,21,22,-2,-7,1,33
1501882746579325,2,-3,-12,5,6,4,-2,-14
1501882746579325,8,5,11,23,2,-4,-3,-33
1501882746580293,-2,-2,-15,-18,6,10,2,10
1501882746580293,-10,-4,-3,-34,-3,-3,-4,-5
1501882746601327,11,1,13,34,-7,-1,-1,-2
1501882746601327,14,-3,-11,-49,3,-2,-5,-17
1501882746602294,-21,2,14,8,-7,-4,1,-7
1501882746602294,14,-4,-8,19,5,1,-2,8
1501882746616359,5,2,-7,-39,3,0,2,58
1501882746616359,-11,5,15,-37,-5,1,-2,-90
1501882746617339,15,1,-1,23,0,-6,-5,-12
1501882746617339,18,-6,-6,13,0,-1,-1,13
1501882746638365,-8,0,-3,-35,1,0,0,-20
1501882746638365,20,-1,2,42,6,0,-3,36
1501882746647299,-18,-4,2,-36,-12,-1,-2,-9
1501882746647299,-10,-4,2,6,-7,-6,-2,-14
1501882746662332,3,1,2,7,4,4,3,-19
1501882746662332,-1,-4,-18,-9,0,1,-2,6
1501882746663307,-14,-1,-11,-20,0,-1,1,-21
1501882746663307,15,-5,-12,60,4,-2,-6,52
1501882746684362,-2,4,14,-61,-4,-3,6,13
1501882746684362,-12,-6,-3,53,2,4,0,-69
1501882746692300,-1,-7,-18,-10,-2,-4,-9,37
1501882746692300,6,11,16,-7,-1,2,0,-40
1501882746698316,-8,-6,6,32,1,-2,-4,-12
1501882746698316,-11,-1,-9,-89,0,1,3,0
1501882746707311,-18,-3,25,66,3,-2,2,14
1501882746707311,-2,2,-34,-58,-7,-8,-5,-15
1501882746721347,23,-6,5,25,-2,7,1,7
1501882746721347,-19,-2,-6,19,2,2,0,12
1501882746723313,13,0,-8,-7,2,-2,0,-18
1501882746723313,8,6,29,25,-5,0,1,31
1501882746751341,-8,-4,-7,6,4,-4,-5,-75
1501882746751341,-10,-9,-3,6,-2,-4,-1,21
1501882746753312,9,0,-4,-16,-8,-1,-1,10
1501882746753312,-7,-1,-6,-2,1,2,2,-6
1501882746758331,-1,2,7,8,-2,-2,-2,22
1501882746758331,6,1,9,11,2,1,-1,-11
1501882746767317,21,0,9,-8,-2,-5,-6,-9
1501882746767317,1,-3,-6,19,7,4,2,15
1501882746781346,-23,0,-6,-20,-5,-2,0,-67
1501882746781346,17,1,19,43,-2,-1,0,56
1501882746783337,17,0,-8,-41,2,0,1,65
1501882746783337,2,-2,2,2,-4,1,2,10
1501882746805351,-6,0,-3,52,6,1,0,5
1501882746805351,-13,0,-2,-15,-4,-8,-5,-10
1501882746806306,-16,-3,2,-8,-1,2,8,-24
1501882746806306,10,1,16,-14,2,5,0,11
1501882746818371,-20,-2,1,66,-5,-6,-5,-2
1501882746818371,3,4,-6,-9,-2,-2,-2,-2
1501882746833345,1,0,0,20,3,0,0,-11
1501882746833345,-10,-11,-24,-40,-11,-13,-1,2
1501882746842328,17,3,14,-42,6,8,3,3
1501882746842328,-4,-3,-17,-9,-10,-3,-2,9
1501882746843309,-8,3,22,20,5,2,-3,-31
1501882746843309,-11,0,-25,-17,5,1,-1,-9
1501882746872324,32,-6,-1,19,-7,-7,-5,24
1501882746872324,-28,3,-3,73,13,6,4,-4
1501882746873343,12,-7,-21,-62,-11,-4,-2,-9
1501882746873343,-5,2,20,25,-2,-6,-3,-20
1501882746886344,-2,-4,-27,-48,-3,4,-2,35
1501882746886344,15,-1,18,63,12,4,4,-3
1501882746888313,-10,4,-1,-38,-12,1,0,-7
1501882746888313,-8,-10,-11,-14,-5,-7,-2,5
1501882746902329,-16,7,22,-24,6,-1,-2,-28
1501882746902329,-7,-2,-7,12,-12,-1,1,6
1501882746903312,7,-3,-11,2,3,0,1,67
1501882746903312,-14,-2,7,1,0,-1,-4,-2
1501882746924315,29,2,6,-16,-7,-4,2,37
1501882746924315,2,-2,-29,-17,4,2,-3,-23
1501882746930353,-2,0,2,-29,3,1,-3,-10
1501882746930353,-9,2,17,45,5,2,-2,-43
1501882746946379,-4,-6,-22,-28,-5,-3,-1,-1
1501882746946379,7,-2,0,-31,-6,-6,-3,0
1501882746948348,-9,6,17,14,3,-1,-1,-32
1501882746948348,-7,-5,-10,41,-6,2,2,12
1501882746962351,-1,0,10,-16,-4,-2,-2,-24
1501882746962351,17,-1,-21,25,-3,-3,-1,-13
1501882746963316,-25,-7,10,-23,1,-3,-1,26
1501882746963316,-2,2,-8,13,8,7,0,2
1501882746984359,13,4,-6,-38,1,1,5,11
1501882746984359,5,-2,20,12,-4,-4,1,-7
1501882746986320,6,4,-8,44,7,6,0,4
1501882746986320,1,0,-7,-54,-15,-5,-5,-3
1501882747006361,1,-7,-8,26,4,-2,2,26
1501882747006361,-26,1,14,-65,0,0,1,-29
1501882747008319,-10,1,-7,32,4,-3,-3,-32
1501882747008319,9,-3,11,-18,0,2,0,1
1501882747020368,-16,-2,-21,6,-4,-2,-4,-30
1501882747020368,21,3,4,-6,-1,-1,1,50
1501882747029319,3,-3,0,69,5,-3,-2,-18
1501882747029319,-4,3,8,-48,0,5,3,-18
1501882747043363,-26,-1,2,-9,0,0,0,6
1501882747043363,19,-9,-18,-4,-5,-6,-9,48
1501882747059320,2,1,1,-17,-4,-1,-4,-47
1501882747059320,16,8,35,42,4,-2,2,23
1501882747067345,-5,-15,-49,-19,-10,-5,-3,-16
1501882747067345,6,3,4,-5,1,0,-5,4
1501882747068321,-22,-1,-5,-2,-6,-2,-1,-8
1501882747068321,11,-2,-14,-73,-5,0,0,7
1501882747081368,7,9,26,44,9,2,0,18
1501882747081368,-7,-5,-9,-16,-12,-2,1,-30
1501882747088357,13,-6,-4,-20,-7,-6,-1,17
1501882747088357,-4,6,4,44,4,0,-1,-18
1501882747104382,1,-4,-6,7,0,-2,-5,7
1501882747104382,-5,-3,-10,-28,2,3,1,4
1501882747106323,0,3,15,56,3,2,6,29
1501882747106323,-12,-7,-19,17,-8,-11,-8,-39
1501882747126382,-21,7,16,-23,3,10,3,-19
1501882747126382,2,-3,-4,10,4,-1,0,-48
1501882747128358,-11,-3,-4,28,-2,0,-2,-17
1501882747128358,15,-1,-7,-87,-12,-5,-4,7
1501882747141327,3,3,12,48,-5,-7,-2,-18
1501882747141327,-22,1,11,-42,3,7,4,-14
1501882747149326,9,4,3,21,5,2,2,-3
1501882747149326,-18,-8,-16,32,5,-2,-3,19
1501882747164370,8,-2,10,-11,-2,-5,2,-17
1501882747164370,-9,4,15,-25,-5,-2,-1,5
1501882747166366,-19,-11,-34,-36,-5,-6,-6,-3
1501882747166366,29,4,0,96,5,0,-5,8
1501882747186389,-4,-1,13,-115,-18,-4,-1,-6
1501882747186389,-5,-4,-19,52,-3,0,-4,15
1501882747188329,9,2,-5,-13,-1,-3,1,-8
1501882747188329,-24,-4,-26,-13,1,3,1,-6
1501882747201371,-4,3,11,17,3,-2,-1,15
1501882747201371,25,3,35,53,0,-1,0,15
1501882747208354,-9,-7,-26,-76,-11,0,-4,-22
1501882747208354,6,0,6,23,5,1,3,25
1501882747224366,11,4,1,40,9,-3,-4,34
1501882747224366,10,0,5,-2,-6,-1,0,57
1501882747226331,2,-6,-6,-72,-4,0,2,-71
1501882747226331,-10,2,6,-17,3,0,1,1
1501882747246406,17,-1,15,18,-4,-1,-1,5
1501882747246406,-5,-10,-39,35,4,-2,0,-6
1501882747248341,13,4,21,-1,-3,-2,-3,44
1501882747248341,-21,-3,-7,48,8,2,1,-23
1501882747261374,-10,-2,-6,-78,-12,-6,-4,-2
1501882747261374,-15,4,5,0,1,-2,-1,0
1501882747268344,-2,0,11,23,4,7,1,-6
1501882747268344,20,-5,-8,-14,-6,-11,-3,86
1501882747284378,-2,7,16,67,12,6,-1,-66
1501882747284378,-26,1,3,21,5,6,1,-2
1501882747286336,5,1,-13,-38,-4,-5,-2,4
1501882747286336,-6,-2,21,7,-4,-2,-2,-4
1501882747307351,-7,-4,-21,-2,3,-3,0,13
1501882747307351,22,3,14,-23,-1,-5,-1,1
1501882747308336,-7,-3,9,127,8,2,-2,-2
1501882747308336,-16,2,-9,-69,-7,-1,-1,-18
1501882747336401,22,-1,4,-81,-6,1,2,7
1501882747336401,-4,-7,-11,26,8,1,-7,-18
1501882747345348,-4,-4,-3,12,-3,-1,4,47
1501882747345348,29,-2,-4,-22,0,-1,2,10
1501882747345348,-6,2,5,77,1,-1,-3,-8
1501882747345348,-4,-2,-11,-34,-6,-2,-1,3
1501882747347370,-6,2,8,13,-3,-2,-2,-22
1501882747347370,31,3,30,29,6,-1,0,26
1501882747366399,-14,-8,-26,-59,-12,-6,-1,15
1501882747366399,-3,-6,5,21,1,1,0,-34
1501882747368339,-5,1,-4,-13,4,3,0,2
1501882747368339,-23,2,4,-21,0,3,-1,-21
1501882747380383,19,1,16,60,6,-4,-2,28
1501882747380383,3,-6,-13,-58,-9,-4,-1,-3
1501882747389354,-32,2,1,-17,0,-3,-2,-65
1501882747389354,10,6,4,1,1,6,0,-28
1501882747404392,-15,-9,-8,39,-3,1,-2,19
1501882747404392,22,-2,-25,-43,-10,-4,-2,-6
1501882747406342,11,1,12,24,0,0,2,31
1501882747406342,-21,-5,-9,-30,-1,-4,-1,-17
1501882747426406,-20,-4,-3,8,-2,-3,-2,-31
1501882747426406,8,3,12,6,5,0,0,12
1501882747428343,19,6,13,17,4,0,-1,16
1501882747428343,-42,-6,-17,-67,-10,-4,0,15
1501882747440376,8,-2,-16,51,3,4,8,8
1501882747440376,-6,-1,4,46,9,-3,-8,9
1501882747449343,-2,-9,-30,-55,-29,-11,-7,-21
1501882747449343,13,3,2,16,2,-3,-1,1
1501882747464368,2,-4,4,-13,6,5,0,-21
1501882747464368,-7,-5,-5,5,-2,3,5,-16
1501882747466345,4,4,3,29,11,1,0,38
1501882747466345,4,-6,5,-5,-9,-5,-7,-47
1501882747486413,-24,-1,-8,-41,-1,1,1,-45
1501882747486413,-27,7,32,44,-1,-1,2,-20
1501882747488357,17,-7,-30,-49,1,3,-1,48
1501882747488357,-1,2,11,79,0,-1,-2,-70
1501882747500390,4,-2,14,1,8,0,-3,2
1501882747500390,-1,-1,-7,-17,-14,-7,-1,0
1501882747509361,-25,-2,8,-33,2,0,-1,1
1501882747509361,9,-1,-13,-11,0,1,2,20
1501882747524348,6,0,-2,43,3,-5,-1,20
1501882747524348,-1,2,12,-86,5,12,3,-6
1501882747526351,7,-1,-12,27,-13,-7,-2,-1
1501882747526351,1,-3,-18,50,6,2,3,43
1501882747546412,9,1,0,-25,-7,-1,-4,-41
1501882747546412,-1,-3,4,-8,-10,-8,-3,3
1501882747548350,16,1,24,-9,11,4,4,6
1501882747548350,7,-6,-16,-5,-6,-2,0,69
1501882747560392,-22,3,5,8,0,-2,-2,-18
1501882747560392,-3,-1,-20,-22,1,-4,-2,-5
1501882747569381,12,-2,9,26,3,1,-1,-11
1501882747569381,2,2,-2,-5,1,-2,-1,3
1501882747584396,4,-8,-6,-15,-7,-8,-4,22
1501882747584396,8,-2,-5,-17,-3,5,3,16
1501882747586351,-20,4,5,23,8,1,0,-47
1501882747586351,-5,-2,0,-3,-2,1,-4,18
1501882747606395,8,5,10,1,2,2,1,30
1501882747606395,-6,0,6,16,0,-6,-1,-5
1501882747608386,4,-5,-10,-23,-6,0,1,18
1501882747608386,-1,0,-10,-42,0,3,-2,-23
1501882747620418,18,5,13,-67,-5,3,4,55
1501882747620418,-7,-15,-37,-32,-8,-11,-8,0
1501882747629368,9,5,9,33,1,-2,-1,1
1501882747629368,-3,-2,8,4,1,-1,1,-26
1501882747644417,9,-1,-7,2,1,3,0,13
1501882747644417,5,5,-4,26,8,4,3,-9
1501882747646362,-8,-6,-2,-56,-13,-6,-4,-13
1501882747646362,11,-2,6,19,1,0,-1,8
1501882747666425,-4,2,4,43,0,-6,-1,-10
1501882747666425,-4,-7,-14,-20,-7,5,-3,-4
1501882747673367,9,-2,-10,-3,0,-1,-2,14
1501882747673367,-19,-2,18,-36,-1,-4,-3,2
1501882747680425,3,1,2,-8,-4,0,0,-21
1501882747680425,14,-2,-9,45,3,-9,-2,-13
1501882747689358,-5,-1,-12,-29,-8,-2,0,14
1501882747689358,-7,0,-3,-1,1,8,3,10
1501882747704419,-15,-5,-7,53,4,-1,-2,-29
1501882747704419,-8,-1,3,-33,-3,-1,1,16
1501882747706358,3,2,5,64,8,-2,-2,1
1501882747706358,12,3,13,14,-3,-3,1,-3
1501882747726404,-8,-4,-6,-63,-5,0,-6,-3
1501882747726404,-6,-1,-2,2,2,-3,-2,-5
1501882747728361,12,-3,11,-2,0,-1,-2,12
1501882747728361,6,1,-12,14,1,-1,-1,4
1501882747740404,-5,-7,-2,-19,-5,1,-1,-19
1501882747740404,-2,7,26,82,8,3,1,-7
1501882747749384,-8,-2,-19,-56,-4,0,-2,-4
1501882747749384,-17,-8,-19,-21,-6,-4,0,-5
1501882747764409,-3,-6,-1,32,5,-6,-5,25
1501882747764409,-4,4,2,-45,-16,1,1,-34
1501882747766362,-4,-2,2,34,2,-4,1,-7
1501882747766362,-4,-1,-13,-27,-1,4,-1,-18
1501882747787406,-10,-2,-22,7,3,1,3,17
1501882747787406,-2,-2,23,23,-2,-13,-8,-6
1501882747789387,-3,-2,-16,38,3,8,-2,43
1501882747789387,7,-3,0,-46,-6,-1,1,-35
1501882747809428,2,-1,-7,-11,-4,-1,-1,41
1501882747809428,10,1,-8,6,10,2,2,14
1501882747811366,0,-2,-18,-57,-9,-5,-3,-9
1501882747811366,4,-5,17,37,2,-2,-1,39
1501882747831407,4,3,-5,3,-2,1,-2,-14
1501882747831407,17,6,-1,0,2,2,1,19
1501882747833368,-22,-5,24,-20,-7,-3,-2,-17
1501882747833368,4,0,6,44,3,-3,-4,-10
1501882747846428,-13,2,-2,-11,1,-1,1,3
1501882747846428,3,-5,-13,30,0,0,-2,-1
1501882747848369,6,-1,-5,-57,5,3,1,-2
1501882747848369,5,0,-14,-40,-17,-9,-3,-11
1501882747869425,-6,-6,8,20,-2,-3,-6,-54
1501882747869425,-27,5,14,-31,6,5,5,-4
1501882747871384,13,2,9,63,12,3,3,5
1501882747871384,-20,-3,4,21,-4,-1,-1,-22
1501882747883430,2,-3,-8,-30,-4,-7,-4,19
1501882747883430,10,0,-1,7,3,4,0,18
1501882747892371,-6,-2,-7,-4,-2,0,0,-30
1501882747892371,-8,-1,-5,2,1,1,1,22
1501882747914373,14,3,12,26,9,4,5,8
1501882747914373,-7,-8,-9,-29,-13,-2,-4,-47
1501882747915372,-1,3,-2,38,-6,-7,-4,2
1501882747915372,-1,1,0,-7,5,5,0,-17
1501882747929374,3,-2,-10,3,1,-2,0,15
1501882747929374,12,4,16,-26,3,0,-1,68
1501882747930374,-4,-6,6,17,-3,-2,-1,-11
1501882747930374,3,1,-12,39,2,-1,0,-12
1501882747944373,-3,-4,5,-28,-9,0,-1,-26
1501882747944373,2,-1,-16,-18,-4,-4,2,31
1501882747946373,-5,0,19,19,1,-1,-3,-18
1501882747946373,0,-1,-10,40,9,-5,-5,-1
1501882747966408,-1,2,2,-45,-7,6,3,5
1501882747966408,-7,-2,7,-1,4,1,-1,-12
1501882747968376,-7,3,-5,-40,-8,-5,0,7
1501882747968376,20,0,3,9,-1,0,2,-8
1501882747989384,8,0,0,28,8,1,1,53
1501882747989384,-4,-3,3,19,-4,-7,-6,-61
1501882747991376,13,1,30,47,9,-2,-2,8
1501882747991376,-1,-2,-15,-68,-7,6,1,19
1501882748003414,-7,1,4,-2,-3,-2,0,-31
1501882748003414,-13,-1,-1,-15,4,5,0,15
1501882748010410,0,-6,-21,8,-1,-4,-4,5
1501882748010410,16,0,0,-8,-2,-3,0,5
1501882748026379,9,5,5,19,-1,-2,-1,-42
1501882748026379,-12,-1,5,29,0,-1,3,-7
1501882748028405,-1,5,5,-47,-2,-2,-1,-13
1501882748028405,-7,-4,-4,14,-3,-1,-2,11
1501882748049379,9,-4,-13,-7,1,1,1,57
1501882748049379,23,2,-12,-9,8,1,-1,-35
1501882748050379,-26,-4,-5,-15,-12,0,-3,-30
1501882748050379,-3,0,-6,26,2,-5,-2,-7
1501882748063420,4,5,14,9,-1,-3,-1,7
1501882748063420,2,-6,-8,-7,-2,0,-2,8
1501882748070422,8,-2,-13,2,5,-1,-1,14
1501882748070422,-8,2,17,-17,-1,2,-1,-18
1501882748086390,-10,-4,-23,-5,0,2,-3,-27
1501882748086390,-8,2,19,62,9,-6,-2,22
1501882748088391,-10,-1,-7,-73,-4,5,2,-14
1501882748088391,6,5,22,20,2,1,0,10
1501882748109415,1,-7,-24,-19,-7,-10,-5,-9
1501882748109415,-5,-1,8,-22,0,9,5,66
1501882748111383,6,3,5,52,5,-1,0,15
1501882748111383,-6,-4,-4,-2,-2,-2,-7,-57
1501882748123424,-3,-2,-5,-26,-3,-2,-5,-12
1501882748123424,5,-1,-4,-27,-7,-4,1,-9
1501882748130424,-13,3,6,12,2,1,1,13
1501882748130424,-6,-9,-24,4,-2,-5,-1,3
1501882748146428,-4,2,0,-27,0,-6,-3,-12
1501882748146428,-2,-4,9,24,-5,-4,-4,-13
1501882748148385,34,4,15,-16,8,7,0,23
1501882748148385,-46,-12,-52,11,-3,-1,-3,-33
1501882748169396,-4,0,3,23,4,3,5,5
1501882748169396,1,-1,-13,-65,-12,-2,-2,-13
1501882748171392,10,-2,5,32,1,-3,1,23
1501882748171392,6,4,15,-35,-2,-5,-3,20
1501882748183453,1,-1,6,28,5,2,-2,-3
1501882748183453,-18,-4,1,29,0,-3,-3,-19
1501882748192399,-2,-5,-26,-28,-10,-6,-3,1
1501882748192399,2,5,35,-7,-4,-2,-1,5
1501882748206427,-22,-6,-16,0,-1,7,1,-13
1501882748206427,-9,4,11,31,10,7,1,4
1501882748208398,6,-7,-42,4,-4,-5,-4,-14
1501882748208398,6,-1,-4,-62,-18,-11,-3,30
1501882748229389,-1,-1,6,45,-1,-2,-1,1
1501882748229389,2,1,-10,-45,0,3,0,-5
1501882748235429,-6,-1,-4,50,3,-1,-2,-6
1501882748235429,-12,0,27,19,5,0,1,10
1501882748243428,-21,0,3,-6,-5,-7,-4,-6
1501882748243428,38,-4,-10,18,-3,-3,0,24
1501882748250393,-65,0,-1,-21,-2,-2,-8,-105
1501882748250393,33,-1,-7,-37,0,-2,1,40
1501882748266392,6,3,29,50,12,6,2,-7
1501882748266392,-7,-7,-31,-48,-10,-5,0,9
1501882748268400,23,1,12,12,3,5,0,16
1501882748268400,-1,0,-14,-12,9,3,1,-22
1501882748289464,-2,4,18,-20,-2,-4,-1,2
1501882748289464,20,-2,2,14,-7,0,-1,4
1501882748290402,11,-2,2,-13,-1,-1,-1,37
1501882748290402,-15,2,-5,-13,-1,4,0,-12
1501882748303409,13,-4,11,69,6,-2,0,14
1501882748303409,-12,-3,-4,8,-4,-7,-4,-15
1501882748311433,-9,-1,5,-31,-5,5,3,62
1501882748311433,14,2,13,76,5,-6,-3,7
1501882748326439,-1,1,-25,-98,-13,10,7,-8
1501882748326439,-33,-1,16,29,-7,-5,-5,0
1501882748328396,12,-4,-2,14,-2,-7,-3,-8
1501882748328396,-19,-1,-4,18,6,7,4,-5
1501882748349438,-18,-6,-24,-31,-8,-3,-3,29
1501882748349438,8,1,17,23,5,1,-2,-17
1501882748351397,4,2,-6,-34,4,-3,2,17
1501882748351397,-9,-4,7,30,-10,-7,-3,-46
1501882748363412,8,-2,5,-4,2,3,2,-4
1501882748363412,-1,1,-6,-6,3,1,2,-3
1501882748372408,12,0,-3,52,7,3,2,0
1501882748372408,4,-7,-23,-92,-20,-4,-1,18
1501882748386463,18,4,12,7,0,-7,-7,5
1501882748386463,-3,0,-5,-13,1,1,2,3
1501882748388400,3,3,12,27,1,-1,1,-16
1501882748388400,-19,-6,-43,-53,6,2,-1,-3
1501882748409478,15,-5,17,82,-12,-4,0,15
1501882748409478,-11,3,5,-25,2,-5,-3,2
1501882748410400,-1,-8,-6,-36,-11,-4,-2,-13
1501882748410400,16,7,28,92,12,7,3,10
1501882748423423,-10,0,-32,-94,-10,-4,-1,-3
1501882748423423,-10,-7,-15,-9,-1,1,-3,-39
1501882748439401,-11,1,10,-7,-2,-1,-1,-28
1501882748439401,15,2,19,18,2,-2,-3,8
1501882748446437,12,-4,-10,-16,10,1,0,-14
1501882748446437,-12,1,13,29,-2,-4,-2,-15
1501882748448403,3,-3,-20,-9,-1,6,1,4
1501882748448403,-6,-3,-2,-30,0,-3,-1,-4
1501882748469476,-37,3,4,83,8,3,-2,-74
1501882748469476,18,-6,-8,-11,0,-4,-5,2
1501882748471404,-38,-3,-6,-84,-11,-4,1,-4
1501882748471404,42,-1,0,2,1,-3,-3,13
1501882748483424,32,6,-2,3,2,-2,0,2
1501882748483424,-6,-1,3,14,-4,-1,-1,9
1501882748498427,13,5,6,22,6,2,-2,-13
1501882748498427,-25,-6,12,-2,0,1,0,30
1501882748507444,-7,-9,-43,-42,-7,-2,-1,14
1501882748507444,10,2,3,33,8,1,-2,1
1501882748509407,-7,2,15,8,1,1,1,17
1501882748509407,17,3,7,0,-2,-2,0,-10
1501882748536451,3,-4,4,-38,-5,-3,-2,2
1501882748536451,-4,-2,-9,-3,1,-1,-2,3
1501882748538420,5,0,-10,-15,-9,-6,-1,-9
1501882748538420,-14,-2,-1,6,0,3,-1,-13
1501882748543410,1,0,11,-3,-4,-6,-6,12
1501882748543410,-8,-4,-5,18,-3,1,1,4
1501882748552447,14,5,17,-16,5,1,0,-3
1501882748552447,19,8,-14,12,3,0,-1,10
1501882748566446,-24,-12,-11,37,-8,-14,-7,-3
1501882748566446,7,3,14,-75,-3,5,3,-41
1501882748568408,-14,-7,-1,35,-3,1,-2,-13
1501882748568408,-13,-1,0,-34,-3,4,2,-7
1501882748589451,0,1,2,-10,1,0,-2,11
1501882748589451,15,-1,2,41,1,-7,-2,31
1501882748590437,-22,3,-2,-8,1,-2,-1,-47
1501882748590437,-12,-1,11,-10,-1,0,-1,-11
1501882748603433,4,-1,-11,-1,0,1,3,-8
1501882748603433,2,-1,-9,34,-5,-1,-3,-7
1501882748612411,12,-3,-7,-18,0,1,0,13
1501882748612411,-8,0,8,55,1,-3,0,35
1501882748626482,-2,4,8,-48,0,2,1,-23
1501882748626482,-9,-7,-35,55,0,-2,0,5
1501882748628428,-4,-1,-5,0,5,0,-2,17
1501882748628428,18,-5,-3,-29,-12,-10,-4,-19
1501882748649482,-2,1,29,10,0,3,2,44
1501882748649482,6,6,5,-36,3,4,0,14
1501882748650448,-16,-1,-6,-4,3,-1,0,-53
1501882748650448,-14,-5,-11,55,1,-2,-5,-3
1501882748662453,-16,1,5,20,3,1,0,22
1501882748662453,15,-8,-24,-82,-11,-7,-3,-19
1501882748671463,3,5,21,90,11,1,-1,17
1501882748671463,2,1,-8,-69,-5,4,2,-7
1501882748686480,-8,-5,-26,-59,-7,-2,0,-19
1501882748686480,-13,4,14,-10,-1,3,2,13
1501882748688417,11,-2,4,-11,-5,-8,-4,0
1501882748688417,14,1,-4,27,-2,-2,-2,-1
1501882748709457,1,3,20,31,2,1,2,21
1501882748709457,-6,-3,-12,-32,-3,-3,-1,-17
1501882748710427,5,-6,-11,15,-3,-1,-1,8
1501882748710427,-17,0,15,-8,1,6,0,-12
1501882748731460,2,3,-15,14,1,2,1,28
1501882748731460,-23,1,20,34,2,0,-2,-35
1501882748733454,13,-1,8,-8,-7,-6,-5,6
1501882748733454,3,-3,-14,-16,-2,-4,1,-6
1501882748746481,-7,-2,10,-19,3,5,0,-20
1501882748746481,-4,4,-1,-28,1,3,0,0
1501882748748421,6,0,1,71,-1,-5,0,21
1501882748748421,8,0,1,20,-1,1,-3,-10
1501882748769463,-16,-1,5,-22,-1,-2,1,-10
1501882748769463,-1,-2,-5,52,5,-5,-6,27
1501882748770421,-14,-3,-8,-67,-13,3,-1,2
1501882748770421,8,5,10,-13,1,0,1,18
1501882748791460,1,-2,-11,20,1,0,-1,-14
1501882748791460,5,-4,-3,6,-2,1,0,8
1501882748793424,3,-1,-4,-18,2,-5,-1,32
1501882748793424,-26,0,18,-2,2,1,0,-72
1501882748806493,-2,-4,-2,-11,3,0,-4,-12
1501882748806493,1,2,-9,29,-4,-3,3,11
1501882748808441,9,-3,12,19,4,2,-1,-1
1501882748808441,2,0,3,-32,-5,1,2,26
1501882748829464,12,-1,8,26,1,-4,-3,-29
1501882748829464,-4,-4,-13,-30,-2,-3,-2,-26
1501882748830434,15,2,0,9,1,-3,1,13
1501882748830434,-25,-4,-11,-50,0,3,0,4
1501882748851467,-18,-6,-5,64,-7,-7,-5,-29
1501882748851467,13,6,22,-13,-3,-1,-1,33
1501882748853426,-13,-4,-13,-11,2,2,0,-16
1501882748853426,4,-1,-3,24,1,-4,-3,5
1501882748866501,2,0,-11,-29,-7,-2,-1,5
1501882748866501,7,-4,1,-6,-1,0,-2,-13
1501882748868457,-13,0,3,6,-1,4,-1,-4
1501882748868457,1,2,2,6,5,0,1,14
1501882748889470,1,-4,-3,-5,0,1,-2,-12
1501882748889470,6,-1,-3,-16,-3,-3,0,4
1501882748890437,34,6,-10,-36,0,0,1,77
1501882748890437,2,-6,15,22,-4,-5,-6,-44
1501882748911475,5,1,-8,-12,0,-3,1,7
1501882748911475,-7,-2,0,15,-3,-2,-2,4
1501882748913432,-6,0,7,35,-1,-2,2,-18
1501882748913432,-5,-2,-6,2,-6,1,0,12
1501882748926473,23,0,0,11,3,1,-1,16
1501882748926473,-29,-6,-12,-22,1,-2,-2,-17
1501882748932499,22,1,1,6,2,-1,0,14
1501882748932499,6,1,-14,-3,-1,-3,-2,2
1501882748949493,1,4,21,-33,-8,-3,0,-3
1501882748949493,-11,-3,-18,-47,0,4,1,-4
1501882748950444,7,-1,-17,33,-3,-5,-1,1
1501882748950444,-18,-7,-18,18,3,4,-3,2
1501882748971466,6,6,7,-3,4,4,4,10
1501882748971466,7,-3,15,6,-1,-1,-1,1
1501882748973435,2,-1,1,0,-3,-3,-3,30
1501882748973435,-1,-4,-14,-39,-9,-2,0,5
1501882748994501,-50,-6,-6,-21,0,-3,-5,-32
1501882748994501,19,5,19,75,3,-7,-2,5
1501882748995444,-7,-2,13,-6,0,3,-1,-24
1501882748995444,3,-2,-12,14,-1,-2,0,27
1501882749009500,3,2,6,3,1,-1,-2,27
1501882749009500,2,1,3,-25,-1,3,2,-2
1501882749010459,-26,-3,-5,5,0,-2,-2,-22
1501882749010459,-6,-3,5,-20,-3,-5,-3,-6
1501882749031498,10,0,4,44,6,-2,-1,13
1501882749031498,19,-2,-25,-72,-4,1,-2,-9
1501882749033476,-33,-2,9,-5,-10,2,0,-15
1501882749033476,6,-5,-15,11,1,-4,-3,-15
1501882749046504,33,-2,6,-7,-1,-2,-1,45
1501882749046504,-13,0,-3,-32,5,1,-2,-7
1501882749052506,-6,1,-2,13,-4,-8,-6,-29
1501882749052506,7,-3,-12,-18,-4,2,2,-2
1501882749069482,0,0,-4,-21,2,2,0,-2
1501882749069482,-18,-3,19,66,-3,-1,1,-13
1501882749070448,6,1,11,-29,3,1,-1,-13
1501882749070448,1,1,-17,10,-1,-3,-2,0
1501882749091443,-2,-6,-18,-37,-4,-2,-2,-17
1501882749091443,-4,-1,-3,-8,-2,-2,0,1
1501882749093440,0,-3,2,-20,-5,-3,-5,-12
1501882749093440,5,6,20,34,7,2,2,16
1501882749106507,19,-4,-23,-18,-5,3,0,9
1501882749106507,12,2,12,4,-1,-2,0,0
1501882749112466,-5,-6,-31,-60,1,-2,-2,8
1501882749112466,-3,1,29,96,3,-4,-2,10
1501882749129484,-7,0,25,27,1,-1,2,-32
1501882749129484,-11,-2,-20,13,-6,-4,-1,46
1501882749130443,3,-7,-21,-33,-3,-1,-4,-56
1501882749130443,-8,0,-10,-25,-1,-2,0,-4
1501882749151483,12,3,13,41,3,0,-1,-7
1501882749151483,-3,1,8,-23,3,4,1,15
1501882749153444,-6,1,22,36,2,2,2,10
1501882749153444,11,-1,-7,-37,1,-3,-3,-2
1501882749166511,-8,-4,-5,11,-15,-5,-3,-7
1501882749166511,13,-5,-15,-6,-5,-7,-4,18
1501882749173478,5,3,7,-26,-5,1,2,14
1501882749173478,-14,-3,-4,-1,1,-2,-2,-4
1501882749189507,-10,-1,-13,-40,-2,-1,0,10
1501882749189507,5,-1,-8,29,4,5,1,-6
1501882749190483,-4,-5,-9,-2,-10,-8,-4,1
1501882749190483,3,-1,5,-12,-3,0,2,15
1501882749219490,2,2,6,-6,2,0,-1,-3
1501882749219490,-2,-4,-2,9,1,-6,-2,-7
1501882749220450,-6,3,5,-9,6,8,3,-1
1501882749220450,8,-2,-11,29,-5,-2,-1,-7
1501882749225489,-17,-2,1,-23,-3,-4,-3,12
1501882749225489,10,0,-4,-19,0,2,0,-20
1501882749234481,-5,-9,-23,-1,-3,-10,-4,-16
1501882749234481,9,7,19,-6,5,12,2,3
1501882749249488,-2,-5,-26,-69,-2,-4,0,3
1501882749249488,-4,2,23,89,1,1,-4,-2
1501882749250470,-12,-5,-8,-19,-5,-3,0,9
1501882749250470,5,3,5,46,4,-3,-1,-1
1501882749271497,5,0,2,-43,3,5,1,-8
1501882749271497,4,-1,8,-18,-6,-2,1,27
1501882749277494,0,1,-24,-6,-10,-2,-1,-6
1501882749277494,-10,-9,-4,-22,-5,-6,-3,30
1501882749285488,23,4,-4,31,7,0,-2,16
1501882749285488,-17,-1,11,49,1,3,1,-16
1501882749300524,-1,2,10,-61,0,4,2,6
1501882749300524,0,-2,13,2,1,-1,0,-2
1501882749309522,-11,-4,-25,-1,-5,-1,-1,13
1501882749309522,1,-3,11,-15,0,-6,-3,-6
1501882749310459,3,-5,-7,57,-5,-5,-5,14
1501882749310459,5,3,-9,-50,-1,-2,4,-22
1501882749331497,-16,1,12,13,6,10,-1,-5
1501882749331497,0,-5,-22,-29,-5,-2,4,39
1501882749333480,8,1,9,30,7,1,-2,-18
1501882749333480,-6,0,-7,-36,0,4,2,6
1501882749345454,-17,-2,25,80,-11,-12,-6,-19
1501882749345454,-4,6,-2,3,5,2,0,-27
1501882749354488,12,1,-9,-41,1,0,2,21
1501882749354488,-10,-3,-4,-14,-1,-3,-3,-23
1501882749369496,-7,7,37,30,5,4,3,2
1501882749369496,0,-7,-33,-47,-9,-5,-5,0
1501882749370493,3,-3,-9,18,0,-1,-2,-12
1501882749370493,4,1,6,4,2,3,-1,-20
1501882749399502,6,1,-5,-10,-5,-5,-1,-3
1501882749399502,-6,-1,13,31,0,-2,-2,-1
1501882749400471,2,-2,-12,-5,-2,3,1,13
1501882749400471,-6,-4,-3,20,-3,-3,-3,8
1501882749405502,15,0,2,-54,-2,-2,-2,1
1501882749405502,3,0,0,26,6,2,-2,-5
1501882749414460,-15,-10,-26,-75,-16,-2,-1,0
1501882749414460,-2,3,7,13,0,2,2,3
1501882749429526,-2,-1,0,41,-2,-6,-2,48
1501882749429526,-52,-6,-35,-46,-4,1,-7,-88
1501882749430462,22,-1,13,15,4,5,1,5
1501882749430462,10,3,8,22,0,-1,-1,0
1501882749451502,-5,-1,3,-11,-2,-6,0,5
1501882749451502,23,-1,-1,-18,-2,3,1,20
1501882749459461,-22,2,13,65,5,-3,-1,-12
1501882749459461,-8,-1,-8,-53,-3,1,-2,-11
1501882749465521,12,-4,-3,36,-5,-5,-3,-13
1501882749465521,2,0,0,-24,-3,-2,2,14
1501882749474462,0,3,22,38,3,1,2,-13
1501882749474462,10,-6,-30,-40,-7,-4,-4,4
1501882749489505,1,-1,-7,2,3,-1,-1,-20
1501882749489505,-5,3,20,-17,-1,2,3,1
1501882749490463,6,4,5,35,4,2,0,9
1501882749490463,0,-2,-1,59,-1,-3,-3,13
1501882749511538,-2,-9,-14,-73,-10,-5,-5,-12
1501882749511538,2,-5,-10,-33,-3,-2,0,2
1501882749513465,-12,8,37,88,10,0,-5,-50
1501882749513465,22,-1,-14,-34,-13,-7,1,30
1501882749525506,1,-1,-17,55,6,7,2,-12
1501882749525506,15,2,15,-12,-4,-8,-2,6
1501882749534466,-25,-7,-11,-23,1,4,0,-7
1501882749534466,1,2,1,-5,3,1,-2,-24
1501882749549507,-3,0,7,47,3,3,1,-12
1501882749549507,-6,2,-2,32,-3,-4,0,24
1501882749550477,1,-3,1,-6,-2,-4,-3,32
1501882749550477,-3,-4,1,-10,-5,1,-2,-26
1501882749572524,6,-1,7,-35,1,1,2,9
1501882749572524,0,-2,-4,-7,-1,1,-1,-5
1501882749574468,-2,-2,-16,-22,-6,-9,-1,-3
1501882749574468,-12,1,18,3,1,-1,-4,-7
1501882749585471,13,-4,-8,22,5,1,-1,-6
1501882749585471,-4,-4,-6,20,1,1,0,0
1501882749594470,43,-1,12,-28,-5,0,2,78
1501882749594470,-19,-6,-36,-2,-5,-5,0,-25
1501882749609486,-4,-1,0,34,7,2,-1,-4
1501882749609486,-12,-1,1,-24,-6,1,1,-11
1501882749616536,1,2,4,-22,0,-3,-2,-10
1501882749616536,1,1,16,5,2,-5,-1,9
1501882749631514,5,-6,-15,-13,-5,2,-1,1
1501882749631514,2,5,4,4,4,-1,0,10
1501882749633473,-13,-2,2,-10,-1,1,-1,-9
1501882749633473,0,-1,0,9,2,1,0,5
1501882749645472,-18,7,2,-1,-2,2,3,-29
1501882749645472,25,-6,10,72,2,-9,-8,11
1501882749654473,-28,-2,-17,-54,-9,2,-1,-23
1501882749654473,12,0,-3,40,1,4,0,20
1501882749669539,-4,3,9,-48,-1,-5,-1,15
1501882749669539,11,3,3,1,-1,5,-1,0
1501882749670488,1,-3,11,14,4,-7,-3,17
1501882749670488,-27,-5,-13,6,-2,-3,-2,-3
1501882749691508,7,0,-6,-35,-6,-1,-2,-9
1501882749691508,-6,-2,6,16,3,-4,-1,2
1501882749693477,11,1,-7,54,0,-1,-1,-22
1501882749693477,-28,-2,3,-79,-4,1,1,-9
1501882749714516,-7,0,-4,59,-2,-10,-7,-22
1501882749714516,10,4,6,-46,4,8,2,-8
1501882749716477,-5,-2,-5,29,5,2,0,7
1501882749716477,3,-1,-7,-70,-4,-1,-1,3
1501882749736502,13,-2,-7,23,-3,-2,0,16
1501882749736502,-23,0,11,22,6,-1,-1,-28
1501882749738488,-6,2,-3,-37,-10,-7,-3,-24
1501882749738488,-25,-6,-7,15,2,6,0,-29
1501882749751546,3,-3,2,-20,-3,0,-1,-6
1501882749751546,-4,1,-4,2,-5,-3,-1,6
1501882749753478,2,-3,-19,12,1,-2,-1,1
1501882749753478,0,1,13,32,-9,-10,-3,-6
1501882749774480,4,-3,-11,-73,1,8,2,5
1501882749774480,1,-2,16,54,1,-1,1,10
1501882749775481,6,4,-11,-19,0,0,-1,-3
1501882749775481,0,-3,19,49,2,-3,-2,12
1501882749789546,-14,1,-9,-21,-6,-5,-1,1
1501882749789546,7,-7,-14,-33,-7,-5,-1,1
1501882749790492,3,-1,2,-8,6,9,3,-15
1501882749790492,19,3,6,15,2,0,-2,24
1501882749811546,-3,-1,3,0,3,0,-4,1
1501882749811546,-2,-4,-10,-28,-17,-6,1,16
1501882749813481,-6,-1,11,5,-6,-5,-3,0
1501882749813481,20,1,-24,-50,2,2,1,8
1501882749834524,11,0,26,105,2,-3,-2,-8
1501882749834524,-4,1,-10,13,4,6,0,-5
1501882749835484,-35,-10,-16,-49,-5,-4,0,24
1501882749835484,33,2,17,23,-4,-6,-6,-88
1501882749848493,0,5,-10,-38,0,2,1,13
1501882749848493,1,-3,-10,4,-4,-2,-1,0
1501882749855526,12,5,19,9,6,1,2,7
1501882749855526,-11,-7,-3,50,8,1,-1,15
1501882749871558,-10,1,0,-74,-16,-5,0,-9
1501882749871558,7,-4,-7,5,3,2,-4,4
1501882749873485,-3,-2,-20,-27,-2,-5,-2,-22
1501882749873485,3,2,2,24,0,4,0,20
1501882749894559,-2,0,8,37,5,0,0,4
1501882749894559,-6,3,-6,-35,-7,-7,-2,-7
1501882749895487,6,-7,2,19,-2,-1,-5,-7
1501882749895487,0,0,9,-2,1,-3,2,11
1501882749908526,-16,-3,-9,10,1,4,1,4
1501882749908526,5,0,-4,-44,-7,-1,-2,-10
1501882749915533,-26,1,14,70,2,-6,-3,-13
1501882749915533,3,2,-5,-28,-3,-1,0,33
1501882749931550,2,-6,-6,3,2,2,3,-14
1501882749931550,-12,1,2,-9,-1,0,-2,-15
1501882749933489,9,1,-5,-21,-4,0,-1,-4
1501882749933489,-9,-1,2,-4,1,-5,-2,7
1501882749954551,-16,-4,6,34,4,-2,-3,13
1501882749954551,9,1,3,65,10,3,1,6
1501882749955492,-4,-1,8,-40,-11,2,2,-1
1501882749955492,5,-4,-17,-35,4,-2,-1,0
1501882749968554,8,-3,-32,-45,-11,-5,-3,-1
1501882749968554,-8,-2,9,40,2,2,1,-7
1501882749975531,0,4,5,6,4,0,1,24
1501882749975531,-10,-4,-6,13,-2,2,0,-17
1501882749991525,-2,1,-1,-18,-3,-6,-4,-6
1501882749991525,8,0,-12,-43,-1,0,-1,7
1501882749993494,3,1,4,68,9,1,2,11
1501882749993494,19,-1,6,-19,-11,-2,-3,3
1501882750021535,-38,1,5,27,2,-1,1,0
1501882750021535,8,2,1,-43,2,-1,0,19
1501882750023494,5,-7,-10,-18,-8,-2,-3,-6
1501882750023494,-2,1,2,9,1,0,4,13
1501882750028542,1,-5,-5,2,-3,1,-1,-1
1501882750028542,-3,1,5,-1,0,-1,0,1
1501882750035537,5,4,10,-34,-1,-8,-3,-7
1501882750035537,-9,-3,-16,-11,-2,3,1,5
1501882750051537,6,0,19,36,0,0,0,10
1501882750051537,-6,0,-3,13,9,0,-2,-14
1501882750053497,14,-4,5,18,-16,-6,-2,-13
1501882750053497,-26,2,-2,16,-1,1,1,-21
1501882750074500,8,2,2,-107,-4,-3,-1,-1
1501882750074500,-1,1,-4,31,0,-3,0,7
1501882750080564,-12,-3,-9,-30,2,5,1,61
1501882750080564,23,2,4,48,2,0,-1,24
1501882750088559,1,-2,2,18,-2,0,-3,-25
1501882750088559,-16,1,-6,-53,-7,-3,-3,-27
1501882750095538,2,-3,-10,30,3,1,-1,-20
1501882750095538,-4,-1,8,-23,-4,-2,1,21
1501882750111545,10,1,8,4,4,-5,-4,13
1501882750111545,-7,-5,-11,-47,-4,5,2,5
1501882750113501,15,2,1,25,-1,-3,-2,-6
1501882750113501,-1,-2,3,28,4,1,-1,-21
1501882750134548,5,1,-3,21,5,5,3,6
1501882750134548,-2,-5,-9,-13,-3,-6,-3,-4
1501882750135502,-7,-3,-14,3,-3,-1,-1,-14
1501882750135502,-4,-3,20,9,0,-4,-2,-2
1501882750149514,-4,5,12,19,-6,-3,-4,-2
1501882750149514,-8,-8,-2,29,1,-2,0,10
1501882750155543,5,3,15,-18,5,3,1,-24
1501882750155543,-30,-5,-20,-49,-4,-1,-4,-18
1501882750171545,25,3,-1,26,1,1,-1,3
1501882750171545,7,-4,5,18,2,-1,0,8
1501882750173502,-2,2,-10,-75,-6,-5,-5,3
1501882750173502,-4,-4,2,24,-3,-4,0,-2
1501882750194569,5,0,-10,-31,2,1,-3,-7
1501882750194569,-7,-1,-8,-14,-1,3,3,0
1501882750195506,10,-1,1,98,9,4,2,14
1501882750195506,-5,-2,-5,-75,-15,-9,-6,-10
1501882750207546,-8,-6,1,-41,-7,1,0,59
1501882750207546,2,-3,-9,4,-1,-4,-5,2
1501882750216527,-8,-3,-18,24,-1,-1,0,-11
1501882750216527,6,1,-12,47,1,-3,1,0
1501882750231550,-14,-1,14,2,2,4,4,8
1501882750231550,12,1,16,-8,-2,-5,-4,-14
1501882750233510,-1,-4,-18,-19,-2,-1,-1,-15
1501882750233510,5,5,10,-2,1,4,-1,-3
1501882750254572,-25,-9,-18,33,-4,-5,0,-4
1501882750254572,1,2,3,3,2,1,1,7
1501882750256509,18,0,5,-27,-8,-3,0,10
1501882750256509,3,7,9,-35,10,2,-1,-4
1501882750267549,9,-5,2,51,-7,-5,-2,-18
1501882750267549,-22,2,1,13,-1,2,2,-20
1501882750276564,2,1,17,-6,2,-2,-4,-3
1501882750276564,4,-1,5,35,2,-5,-2,27
1501882750291549,16,1,-23,-70,1,5,4,-10
1501882750291549,-20,0,14,3,0,-1,-1,-5
1501882750293521,26,-3,-11,-32,-10,1,1,20
1501882750293521,7,1,-14,-8,-1,2,1,8
1501882750314581,-8,-4,9,58,0,-9,-6,-8
1501882750314581,4,3,12,27,3,2,2,46
1501882750315521,-23,-1,-21,-52,2,3,0,-8
1501882750315521,19,-2,1,29,-4,-4,-1,-1
1501882750327526,-6,0,-6,-53,-3,0,-2,-22
1501882750327526,-3,1,14,1,-3,-7,-4,4
1501882750336565,-4,-4,-13,26,8,-2,-1,27
1501882750336565,-13,-6,-19,-18,-11,4,1,-22
1501882750351522,-1,0,-1,30,8,2,2,3
1501882750351522,29,3,5,8,-3,1,-5,31
1501882750353514,-27,1,11,25,3,-1,3,-26
1501882750353514,-3,0,-15,-5,-4,-4,-4,8
1501882750374561,4,-4,6,-23,-2,-5,-2,-19
1501882750374561,-3,-7,-24,-8,-7,-4,-2,-7
1501882750380575,2,4,21,30,9,6,4,-6
1501882750380575,2,0,22,-51,-15,-1,0,7
1501882750387553,-25,-4,-22,18,-2,-2,-2,-21
1501882750387553,28,0,-1,-38,-5,-7,-1,41
1501882750396565,7,0,9,35,-1,-1,-2,12
1501882750396565,-9,-2,6,-4,7,-1,-2,-18
1501882750410561,-14,1,3,-32,0,0,-1,-15
1501882750410561,5,-1,6,88,4,4,2,-25
1501882750419518,19,1,-3,-41,-2,-2,-1,34
1501882750419518,-13,0,-4,6,2,3,1,-27
1501882750434529,9,-4,-20,-39,-8,-8,-4,34
1501882750434529,-5,0,-6,-1,2,4,0,-23
1501882750435523,-30,-1,9,14,4,-1,-1,-18
1501882750435523,8,-2,-2,-13,-12,-5,-5,-3
1501882750447557,5,3,8,-5,4,2,2,11
1501882750447557,2,-3,9,15,-5,-5,-7,-72
1501882750456565,-13,-6,-19,16,0,0,4,-16
1501882750456565,6,-6,-16,-9,7,0,0,12
1501882750471561,-16,1,9,2,2,5,1,-22
1501882750471561,6,-3,-13,-29,-7,-9,-5,17
1501882750473520,-5,2,-3,18,1,3,-3,-10
1501882750473520,-16,-2,-2,-14,3,1,0,-11
1501882750494561,19,2,0,-22,6,4,3,14
1501882750494561,-18,-1,15,51,-5,-1,0,-16
1501882750495526,10,-1,-1,-61,-7,-4,-3,4
1501882750495526,-5,5,12,38,5,-6,0,7
1501882750507565,17,-5,-20,29,-4,0,-3,0
1501882750507565,-47,-4,-13,-21,2,-1,-3,-7
1501882750516539,-3,-3,-4,-22,-1,-1,-5,-27
1501882750516539,18,1,-2,-13,-5,-1,-2,-6
1501882750531564,-8,5,30,61,6,6,0,19
1501882750531564,-2,-3,-16,-58,-4,0,1,-6
1501882750533524,0,-2,0,2,-8,-7,-5,10
1501882750533524,-3,2,-3,32,3,-2,-1,17
1501882750554595,0,-2,13,-42,-5,-5,-5,-38
1501882750554595,13,4,2,-8,9,8,6,12
1501882750555527,-8,-1,7,52,4,-2,-4,-27
1501882750555527,-5,-5,-21,-76,-8,3,0,2
1501882750567568,-5,-2,5,12,2,-1,2,10
1501882750567568,12,-2,-15,16,2,-2,-3,10
1501882750576526,-16,-1,12,-50,-8,-1,-1,-6
1501882750576526,2,-6,8,64,1,-9,-7,-18
1501882750590571,-17,3,7,-35,-5,1,-1,-1
1501882750590571,1,0,2,-25,0,3,1,-3
1501882750599563,-4,-2,0,34,4,1,1,18
1501882750599563,-1,-1,14,-2,3,0,1,3
1501882750614623,11,-4,-28,39,3,3,4,12
1501882750614623,-22,-10,-13,-41,-10,-9,-6,-9
1501882750615529,23,-3,-24,29,0,-6,-3,7
1501882750615529,9,-2,-4,-39,-12,1,-1,1
1501882750636576,1,5,4,-18,2,-2,0,-50
1501882750636576,4,2,22,40,2,-1,1,6
1501882750638531,5,-2,-10,13,1,-1,0,-5
1501882750638531,-10,-1,4,6,-1,0,1,-3
1501882750652602,8,2,-6,-29,-3,-4,-2,4
1501882750652602,8,-4,-8,47,-3,-4,-3,-6
1501882750654532,5,4,3,-2,-3,2,-3,-30
1501882750654532,-24,1,21,12,15,4,2,11
1501882750674535,-8,-9,-40,-15,-15,-11,-6,29
1501882750674535,7,2,0,-41,1,6,5,-5
1501882750675533,13,3,7,-11,-4,-1,1,22
1501882750675533,12,2,5,38,7,3,1,-21
1501882750696569,-11,3,32,32,1,-6,-1,0
1501882750696569,11,-8,-20,-27,-4,-2,-6,-20
1501882750698534,8,-2,-7,-34,-4,-3,0,-9
1501882750698534,-6,-3,-7,-6,-2,-2,1,37
1501882750710582,-4,4,16,29,4,2,-1,-49
1501882750710582,-11,4,7,6,12,2,-1,2
1501882750719534,-12,-3,4,-42,-17,-4,-2,24
1501882750719534,-5,-2,-1,50,5,-2,0,-11
1501882750734615,23,-6,-17,-66,-17,-4,-1,28
1501882750734615,-7,4,2,-9,0,0,-1,-3
1501882750735537,-7,-4,11,30,4,4,1,-5
1501882750735537,-9,5,-1,-45,-4,1,-1,-28
1501882750756579,13,-1,10,100,15,1,0,15
1501882750756579,-2,-4,-11,-32,-20,-5,-3,1
1501882750758537,3,4,2,-29,0,-4,0,9
1501882750758537,8,0,-5,19,-8,-8,-3,-6
1501882750771585,-1,0,-8,-2,6,7,3,1
1501882750771585,-3,-1,11,14,7,2,0,6
1501882750773538,-14,-1,10,18,-5,-8,-3,-2
1501882750773538,-5,-3,-30,-42,-4,5,1,12
1501882750794600,-7,-4,6,26,4,-1,-3,32
1501882750794600,6,3,4,-19,0,-3,-2,-46
1501882750795541,-2,-4,-8,11,-3,1,-1,-8
1501882750795541,-17,0,0,-20,0,1,1,-5
1501882750824541,5,-3,-3,31,-4,-5,-1,0
1501882750824541,14,1,15,7,5,-2,2,47
1501882750825543,5,1,-12,-48,2,2,1,-2
1501882750825543,4,4,14,-1,2,1,-1,-12
1501882750831552,-1,-5,-29,-13,-7,-1,-4,-4
1501882750831552,10,-1,-7,-9,-3,-2,3,16
1501882750837609,-4,-1,-6,-1,-1,-5,-3,-8
1501882750837609,3,1,-1,22,2,2,0,11
1501882750854609,-15,-3,-2,-45,-2,-1,-1,-5
1501882750854609,8,-2,-5,35,1,-1,0,10
1501882750855544,28,1,1,-7,-3,-1,-5,2
1501882750855544,-27,-6,9,-46,-1,0,1,-8
1501882750884586,13,5,4,7,-2,-1,-1,-2
1501882750884586,-8,-2,-8,-1,-5,-7,-3,-3
1501882750885546,-11,-1,-1,-8,7,9,3,-8
1501882750885546,17,-2,-4,15,-6,-7,-8,2
1501882750891556,-6,-1,8,4,5,-1,0,-11
1501882750891556,-28,-1,-6,0,0,-3,-2,-7
1501882750897610,22,4,-1,-18,-7,1,2,5
1501882750897610,-23,-10,-3,-1,-2,-1,-1,-1
1501882750914564,-12,-2,-5,-15,-2,-3,-2,-9
1501882750914564,10,-2,-17,30,-1,-2,-1,24
1501882750915547,-13,1,9,8,0,0,2,-24
1501882750915547,9,1,6,-21,-7,1,-4,-16
1501882750936608,-2,-2,-5,-1,-5,-5,-1,3
1501882750936608,-3,1,5,-3,0,4,-3,2
1501882750938548,-18,-8,-13,-6,1,0,2,-13
1501882750938548,32,5,10,36,5,-3,-3,42
1501882750950565,1,-3,6,-23,-9,-5,-4,-1
1501882750950565,-8,-2,-8,-24,-4,-2,-1,-5
1501882750957601,-3,1,11,32,5,0,-2,-6
1501882750957601,18,0,-6,-1,1,-1,-1,-4
1501882750974551,-13,-2,-5,4,3,2,1,-1
1501882750974551,12,-2,-4,-10,-4,1,0,0
1501882750975553,-9,-3,-5,-15,-1,-3,-3,2
1501882750975553,-6,4,4,58,9,6,3,-1
1501882750996589,8,3,3,-11,0,-3,-1,8
1501882750996589,-12,0,23,33,5,3,-1,0
1501882750998552,-7,-3,-26,-79,-11,-2,-1,4
1501882750998552,0,-1,-1,31,-1,-7,-4,-6
1501882751011563,13,-2,5,3,-1,1,1,2
1501882751011563,-8,3,8,-2,-3,-5,-4,-16
1501882751017610,0,-2,4,23,4,2,-3,6
1501882751017610,-14,-5,-15,-29,2,3,5,7
1501882751034621,5,11,12,12,2,6,3,-3
1501882751034621,1,-4,-5,-20,11,4,1,-12
1501882751035565,3,-3,9,40,-15,-8,-3,18
1501882751035565,-26,-3,0,-16,-10,-11,-4,-15
1501882751056596,21,-4,-4,19,4,-6,-3,46
1501882751056596,6,-8,-48,-67,-17,3,3,-2
1501882751058569,-4,1,1,10,4,1,0,-1
1501882751058569,13,1,10,17,0,-4,-3,-11
1501882751071568,-14,-8,-16,-13,3,4,2,8
1501882751071568,-18,2,8,-10,-8,-2,-2,-6
1501882751077624,21,-4,-8,9,3,-2,-4,11
1501882751077624,-17,-1,-8,6,6,3,4,-9
1501882751093627,11,3,-2,-40,-9,1,-5,-41
1501882751093627,-1,6,20,8,0,-3,0,1
1501882751101559,-7,-2,4,-14,1,4,0,-2
1501882751101559,1,-3,-6,2,-2,-1,0,-47
1501882751116606,-18,-4,-11,-5,-3,-2,-3,6
1501882751116606,44,-2,-1,3,-4,-1,2,47
1501882751118591,-7,10,37,64,10,-2,1,-20
1501882751118591,-9,-9,-25,-24,-1,5,1,8
1501882751130600,3,-4,-1,-7,-9,-7,-1,97
1501882751130600,-6,2,8,10,1,0,-2,-52
1501882751139596,13,1,5,-10,6,-1,-2,72
1501882751139596,6,-12,-13,-17,-11,-4,12,31
1501882751154624,12,4,22,53,14,10,5,71
1501882751154624,12,-3,-11,-58,4,0,2,78
1501882751155564,-48,-7,-29,-13,-23,-11,-12,-103
1501882751155564,-26,1,-7,-38,1,2,-4,-30
1501882751176604,25,0,-14,35,-5,-8,-2,54
1501882751176604,-33,-2,7,48,0,-10,-5,-65
1501882751178595,8,-4,-11,-25,2,9,3,-42
1501882751178595,34,4,12,-4,0,-4,-1,87
1501882751190627,-7,-2,13,7,-3,-3,-3,-50
1501882751190627,-8,1,-6,-3,2,8,1,14
1501882751199576,-22,-1,-3,-25,-2,-1,-4,-66
1501882751199576,-13,-1,-8,21,-6,-4,-3,-25
1501882751214633,4,3,21,6,7,-1,-5,-30
1501882751214633,-13,-3,-7,-53,-15,-5,-1,18
1501882751215566,13,-10,-12,88,3,-4,0,34
1501882751215566,28,11,34,49,9,9,5,42
1501882751236629,-29,-11,-27,-36,-5,-4,-9,-102
1501882751236629,20,2,-1,-24,-4,-4,1,-17
1501882751238587,-15,1,4,-41,-8,-6,-4,-8
1501882751238587,10,-1,-9,67,21,1,-4,-12
1501882751250624,4,1,-13,-82,-11,7,8,79
1501882751250624,-10,2,18,15,5,-6,-8,-81
1501882751259568,27,1,-1,14,-3,10,5,100
1501882751259568,-36,-3,-14,-37,-4,-7,-6,4
1501882751274613,1,1,14,83,5,0,2,-12
1501882751274613,-5,-7,-32,-18,-6,-3,-1,-10
1501882751275568,4,5,18,34,2,-3,2,19
1501882751275568,10,0,-3,-92,-16,-19,-11,-17
1501882751296641,-21,-3,-8,11,17,24,10,-15
1501882751296641,-21,-1,17,39,-2,-1,-1,3
1501882751298580,21,0,7,84,14,3,0,10
1501882751298580,-4,-5,-16,-93,-20,-4,-5,-9
1501882751310638,-1,0,-2,-14,-3,-8,-3,0
1501882751310638,-3,-1,12,5,5,2,-1,-29
1501882751319580,-6,1,1,-47,4,-4,-4,-59
1501882751319580,18,1,-4,27,-11,-3,-6,-93
1501882751334624,-6,-7,-7,22,-5,-7,-3,-23
1501882751334624,4,-2,-3,13,-2,2,2,38
1501882751335572,-1,3,7,-52,0,0,1,20
1501882751335572,8,0,8,30,4,-2,0,31
