timestamp,emg1,emg2,emg3,emg4,emg5,emg6,emg7,emg8
1501882137050161,37,21,-8,-16,3,3,3,-7
1501882137050161,72,-1,-2,19,10,-3,-28,8
1501882137052163,-48,-6,-12,30,-22,0,19,-10
1501882137052163,26,6,46,-27,2,0,-9,39
1501882137064163,-68,-21,-46,-9,5,-3,-3,15
1501882137064163,31,0,66,-47,-22,-14,-39,-11
1501882137073165,-69,-15,-89,-25,-4,6,40,-34
1501882137073165,-7,-3,-23,5,-1,-1,-10,-25
1501882137088164,21,-5,-26,-9,-15,-11,-3,-14
1501882137088164,18,-3,-2,16,-9,4,16,31
1501882137089165,-38,10,23,-62,4,1,0,-6
1501882137089165,20,4,16,20,3,-1,-39,13
1501882137112165,32,-20,-56,42,-5,-1,35,2
1501882137112165,21,30,55,28,13,5,19,4
1501882137113166,21,-25,-53,-92,-9,-9,-24,-21
1501882137113166,27,3,14,38,-1,-1,16,97
1501882137124167,36,9,-21,-86,-5,3,-18,-9
1501882137124167,-44,-7,9,30,11,1,25,-14
1501882137133167,-11,0,4,47,-3,3,12,-9
1501882137133167,47,8,-2,-83,-4,0,-29,19
1501882137148168,-12,6,56,75,5,1,5,-38
1501882137148168,5,-10,-36,-65,0,-3,7,18
1501882137150171,5,1,-1,79,9,-1,-20,16
1501882137150171,-8,-4,-3,51,-5,-4,7,-25
1501882137170170,-28,-1,8,-22,1,0,12,-43
1501882137170170,28,5,-1,-35,-3,3,8,-8
1501882137172170,-2,-7,-22,10,10,0,-3,4
1501882137172170,1,5,31,23,12,-1,-14,-12
1501882137185169,-65,-2,-18,-39,-16,-6,5,-28
1501882137185169,-12,-9,1,-41,-3,-3,-16,10
1501882137191183,9,7,11,31,16,3,0,-13
1501882137191183,-33,-8,-11,-34,-13,-2,20,-1
1501882137208185,40,-9,-3,46,-4,-3,-5,41
1501882137208185,12,-11,-26,19,2,-13,-22,-7
1501882137210173,-65,17,22,-57,-5,7,7,-28
1501882137210173,-30,-3,-14,-6,-1,5,6,14
1501882137230173,21,-7,22,-1,-4,-1,-10,10
1501882137230173,-21,-5,-4,-5,-14,-7,-2,-4
1501882137232173,88,-6,-39,-48,-10,-10,-7,-17
1501882137232173,-39,3,-13,10,4,0,2,-3
1501882137245191,-16,-1,26,-53,-1,-1,1,-6
1501882137245191,27,6,15,127,19,4,3,61
1501882137251174,-28,-2,47,-51,-20,-4,-1,-85
1501882137251174,-18,1,15,3,-2,0,-10,-44
1501882137268176,58,9,17,-20,13,3,-7,7
1501882137268176,-46,-20,-80,-39,-18,-5,-2,-28
1501882137269176,43,5,4,25,5,-1,13,46
1501882137269176,-10,-7,12,75,6,-8,-12,-26
1501882137291184,3,5,15,36,-1,4,1,-1
1501882137291184,28,0,-44,-55,-1,3,1,7
1501882137292176,17,5,23,-26,2,-3,-1,9
1501882137292176,43,10,5,63,12,3,-10,80
1501882137304176,-28,-8,13,62,2,1,17,-37
1501882137304176,21,-9,-42,-50,-16,-8,2,-9
1501882137313186,-8,3,14,16,14,9,-7,17
1501882137313186,-57,-14,-27,-69,-17,-6,4,15
1501882137328184,69,7,23,90,13,0,-12,42
1501882137328184,-1,0,-30,-54,-1,3,3,58
1501882137329178,-3,-5,3,-57,-7,-2,-1,-45
1501882137329178,19,10,25,33,-3,-5,-18,-78
1501882137350179,4,-14,-49,6,-13,1,24,6
1501882137350179,-19,5,13,-49,5,5,2,-8
1501882137352180,8,-3,-19,89,4,-6,-9,46
1501882137352180,-1,3,25,1,2,2,9,-27
1501882137364183,22,-8,-23,-51,-11,-11,-15,19
1501882137364183,3,1,41,-4,3,6,7,-32
1501882137373181,28,5,-3,-17,-8,1,8,93
1501882137373181,14,3,-7,31,5,3,0,-23
1501882137388185,-66,-5,8,52,3,-5,-12,-18
1501882137388185,-11,16,54,127,14,5,-6,-69
1501882137390198,43,-1,-36,-74,-17,3,6,41
1501882137390198,-27,-10,11,58,-6,-3,0,23
1501882137410187,30,-3,-12,-111,-2,-2,-6,12
1501882137410187,5,4,-2,38,7,3,4,-1
1501882137412184,-24,-2,35,45,-2,-6,-1,17
1501882137412184,30,6,9,-29,8,7,8,54
1501882137424185,-87,3,-7,39,13,5,-2,-21
1501882137424185,25,-16,0,57,-9,-6,-3,28
1501882137433187,-42,1,8,-16,-14,-2,-2,-87
1501882137433187,42,3,-31,-53,12,3,3,36
1501882137448190,-6,-12,35,41,-14,-8,-15,-2
1501882137448190,8,0,-28,-7,2,-3,10,-1
1501882137449186,41,0,-8,9,10,-5,-1,94
1501882137449186,-25,-8,-10,-12,-8,4,-9,-38
1501882137470186,12,19,13,-34,3,9,23,36
1501882137470186,-37,-3,13,5,-1,-3,-5,-97
1501882137472187,16,0,-33,-36,-9,-6,3,17
1501882137472187,-18,-11,3,-41,-14,-10,-5,-2
1501882137484201,2,-3,-49,-62,-8,-4,-5,21
1501882137484201,24,-3,0,26,-3,-4,-2,52
1501882137493188,-11,2,0,5,10,3,-7,-14
1501882137493188,-29,0,-1,32,4,0,1,-71
1501882137508189,-12,-6,-17,-42,-6,-1,-5,-15
1501882137508189,12,4,35,93,10,3,-1,13
1501882137509189,4,0,-3,-10,-7,-2,-7,-14
1501882137509189,-7,-13,-22,-31,-15,-8,-6,39
1501882137530190,17,2,-16,14,5,3,1,0
1501882137530190,-11,0,11,-46,-14,1,-3,-7
1501882137532191,-9,-4,-1,-1,10,-1,-8,43
1501882137532191,49,4,23,-15,-7,3,12,19
1501882137544212,35,-3,-15,-85,-4,0,-2,26
1501882137544212,-2,15,47,12,-3,-4,-3,-3
1501882137553191,-13,-26,-67,3,-9,-3,-2,8
1501882137553191,21,16,37,25,9,-1,-2,14
1501882137568193,-19,-8,-58,12,-8,-3,-5,15
1501882137568193,29,4,16,0,8,0,7,65
1501882137569192,-49,5,51,106,5,3,-2,-127
1501882137569192,-15,-3,-17,-60,-1,-6,-7,-32
1501882137590212,1,3,22,46,7,6,10,26
1501882137590212,18,4,-22,-77,5,3,-9,3
1501882137592193,-8,3,53,127,2,-1,0,-74
1501882137592193,-2,-10,-56,-25,5,1,-2,12
1501882137604214,-24,-4,23,-31,-12,-5,-1,27
1501882137604214,9,-3,-29,-24,-6,-5,-2,-37
1501882137613195,9,3,3,-13,11,6,2,5
1501882137613195,-31,3,7,20,9,1,0,-15
1501882137628200,9,-2,-7,-64,-17,-6,-3,-10
1501882137628200,-11,-9,-15,10,-1,-6,-6,-74
1501882137629195,52,13,12,26,6,10,6,27
1501882137629195,-12,-10,-43,42,-2,0,-3,16
1501882137650231,-12,-4,19,-50,-11,-7,-7,-30
1501882137650231,-24,-4,-4,-8,0,1,2,30
1501882137652198,-1,4,-23,-103,-12,-8,-4,-49
1501882137652198,18,8,34,36,-1,1,5,-30
1501882137664198,8,-3,-2,85,15,5,-1,-24
1501882137664198,17,7,29,-60,-14,0,-1,6
1501882137673199,-10,-5,-4,113,10,-5,-3,31
1501882137673199,19,1,-24,-35,-11,2,1,36
1501882137688241,-34,-5,15,6,-10,-7,-5,-15
1501882137688241,19,1,-26,-37,2,2,3,33
1501882137689200,-88,-1,34,-71,-5,-2,0,-72
1501882137689200,-22,-6,5,24,5,4,4,-22
1501882137710208,22,2,26,-34,3,-3,-4,55
1501882137710208,16,-2,0,68,-1,-3,-9,5
1501882137712211,19,-5,-52,-53,-6,-3,-1,76
1501882137712211,19,-1,6,2,-1,-6,-6,-14
1501882137733227,-27,-7,8,22,3,4,0,-17
1501882137733227,-40,4,5,11,10,2,6,-7
1501882137734223,7,-9,-12,-45,-12,-5,-3,-2
1501882137734223,-12,-6,-11,9,-5,-3,-1,40
1501882137748203,-45,-2,7,74,11,1,-2,-49
1501882137748203,6,-3,-22,-45,0,0,4,11
1501882137750206,5,0,59,77,-2,2,0,25
1501882137750206,-20,10,-9,-11,11,-1,-4,-20
1501882137770204,31,-1,-13,49,3,-1,2,-8
1501882137770204,-10,-18,-27,-26,-19,-8,-7,-17
1501882137772208,-15,2,-5,-84,-12,-8,0,9
1501882137772208,40,1,11,29,6,7,1,28
1501882137793205,-3,-2,0,-82,-9,-5,-1,29
1501882137793205,-2,3,18,57,9,1,-3,6
1501882137794220,-1,2,-4,-4,0,2,3,10
1501882137794220,-4,-5,-2,-29,-7,-4,-8,-35
1501882137808205,15,4,1,16,-2,-1,-5,-1
1501882137808205,-4,-6,-11,-1,2,-1,5,61
1501882137809213,-9,2,-1,-20,-4,2,1,-10
1501882137809213,74,-7,-17,4,1,-4,1,47
1501882137830213,-41,-4,-18,-26,-9,-1,-1,-30
1501882137830213,12,1,4,30,6,-1,2,14
1501882137832212,15,4,-15,-65,2,-2,0,-2
1501882137832212,-34,-14,13,42,-2,-1,-4,-27
1501882137853267,36,6,-17,11,-3,-1,5,25
1501882137853267,3,2,7,36,1,0,1,-11
1501882137854241,-2,1,20,-36,-6,0,-3,-35
1501882137854241,-19,-14,-34,-35,0,-3,-4,33
1501882137867211,8,5,13,64,3,2,4,-23
1501882137867211,17,-1,-2,-39,-2,2,1,16
1501882137874211,9,5,4,83,18,4,2,11
1501882137874211,6,4,3,-39,-6,-3,-6,22
1501882137890249,-3,1,-2,18,-14,-1,-1,2
1501882137890249,-10,-5,-6,-47,-5,-2,-8,-92
1501882137892212,-12,-6,-9,21,2,-5,1,-21
1501882137892212,-14,3,11,-10,-8,0,3,-6
1501882137913214,30,-6,-28,-32,9,-1,-3,25
1501882137913214,0,6,14,12,0,3,-1,6
1501882137914215,-4,-7,-7,57,-1,-4,-4,21
1501882137914215,-22,1,10,-31,-6,5,0,-31
1501882137927215,8,6,12,65,12,-2,0,28
1501882137927215,-35,-2,13,-31,-15,-2,-2,-46
1501882137934253,15,1,17,30,8,4,0,3
1501882137934253,-29,-4,-17,20,-11,-8,1,5
1501882137950236,-13,6,18,-6,4,-2,-3,25
1501882137950236,-15,-2,-6,62,9,7,10,-48
1501882137952215,-8,-11,-39,-53,1,-2,-2,-3
1501882137952215,14,11,26,1,-11,-4,0,15
1501882137973234,-19,-2,4,-16,6,-2,-7,-111
1501882137973234,-5,5,-8,15,-7,-6,-8,20
1501882137974216,15,-3,-6,-5,-6,3,4,10
1501882137974216,-16,-3,4,-7,9,3,2,-19
1501882137987252,5,-9,-20,5,-5,-5,-4,26
1501882137987252,-14,12,12,-50,-6,-3,-2,-1
1501882137994227,-12,-5,-28,97,6,1,0,4
1501882137994227,6,-2,-3,-3,-5,-2,1,-24
1501882138010262,-14,7,33,38,15,7,2,-2
1501882138010262,-5,-15,-53,-63,-12,-5,-2,49
1501882138012222,19,2,1,8,-4,-2,0,12
1501882138012222,-10,-1,6,-30,-1,-4,-5,-36
1501882138033221,12,-4,-3,26,5,3,4,33
1501882138033221,37,1,12,44,7,2,2,71
1501882138034219,-16,-4,-17,-61,-9,-3,-7,-17
1501882138034219,9,9,30,70,-3,0,1,0
1501882138047240,-10,-4,-24,-63,-15,-3,-2,-25
1501882138047240,-15,0,6,47,5,-4,-2,-8
1501882138054276,-12,-9,3,-21,-4,-1,-4,-27
1501882138054276,-24,-6,-14,17,-4,-3,-1,-23
1501882138070221,8,-6,-30,-29,-6,-1,-4,-4
1501882138070221,-4,5,25,36,5,1,1,-4
1501882138072222,-3,5,3,9,6,0,5,-9
1501882138072222,11,1,29,20,-5,-6,-5,26
1501882138093230,-12,-4,-6,-7,-1,1,1,-18
1501882138093230,-11,-7,-18,-64,-2,2,-1,8
1501882138095232,13,3,-8,46,5,1,-3,-12
1501882138095232,1,-12,-37,-102,-18,-5,-4,2
1501882138107226,10,4,21,75,1,-9,-3,27
1501882138107226,6,-8,-47,24,5,2,-3,-20
1501882138114228,23,5,43,-84,-15,-6,-1,85
1501882138114228,-11,-2,-25,42,11,5,3,-33
1501882138130230,20,-8,-27,14,-3,-3,-3,-9
1501882138130230,-46,-2,8,-67,-12,-5,-6,-32
1501882138132226,-10,0,22,19,5,3,-1,-1
1501882138132226,6,4,7,22,7,0,-4,68
1501882138153278,36,-5,-2,-73,7,7,4,42
1501882138153278,38,5,-2,57,-9,-2,0,28
1501882138154231,2,0,-8,10,-3,-6,-6,-17
1501882138154231,-21,4,-7,-4,-4,5,4,-10
1501882138167227,-17,-12,-8,-7,2,-2,-3,-31
1501882138167227,18,9,28,7,8,4,3,8
1501882138174229,2,2,-14,-9,-2,0,0,22
1501882138174229,1,11,20,12,5,3,0,-34
1501882138190269,-18,-8,-20,69,4,-3,0,55
1501882138190269,-9,-5,2,-106,-6,1,0,-56
1501882138192231,-4,-3,-1,34,-1,-4,0,-14
1501882138192231,7,7,35,23,2,-1,-2,-26
1501882138213243,6,4,11,-38,1,4,1,-11
1501882138213243,-22,-11,-15,54,5,-2,2,-1
1501882138214230,4,4,-15,2,9,1,0,-16
1501882138214230,23,-1,20,-13,4,2,3,13
1501882138226234,-18,-2,4,-58,-21,-10,-5,-18
1501882138226234,38,-6,-16,94,5,1,-3,38
1501882138236236,-30,3,9,-74,-10,-1,1,-41
1501882138236236,13,-5,-40,7,10,3,2,-7
1501882138250232,35,4,-16,31,1,0,-3,7
1501882138250232,-24,0,46,26,2,-3,-5,-57
1501882138252232,-2,-8,-5,-25,-15,-3,-2,15
1501882138252232,-9,-2,-11,12,12,0,1,11
1501882138273233,-25,0,5,-43,-21,2,-5,-40
1501882138273233,22,1,-4,1,-3,-7,-6,84
1501882138274233,11,4,6,10,6,6,11,30
1501882138274233,1,-5,6,15,-4,-6,-5,-19
1501882138286235,27,3,20,-30,2,1,-2,14
1501882138286235,-62,-7,-38,-32,-5,-6,-5,-45
1501882138295236,-5,-5,24,6,-2,-2,-5,-12
1501882138295236,7,7,-2,-75,-2,0,1,35
1501882138310236,-14,-5,-8,97,4,-8,0,-19
1501882138310236,29,3,37,-46,-10,5,3,1
1501882138312244,-37,-10,-27,58,2,-2,-5,-8
1501882138312244,0,3,15,-4,3,0,-2,-36
1501882138333237,-16,1,-2,-70,-4,1,0,23
1501882138333237,-15,-5,3,-21,0,-5,-4,-10
1501882138334239,-15,-2,-8,21,-4,0,-3,-35
1501882138334239,30,-7,-7,12,4,-1,0,73
1501882138347241,3,-2,-29,-19,0,0,0,-19
1501882138347241,13,-2,-21,-14,-1,-7,-4,12
1501882138355253,-4,4,31,8,0,4,3,-21
1501882138355253,-9,1,-18,-31,-3,-3,-5,11
1501882138370239,-68,-2,27,43,5,-1,-11,-101
1501882138370239,12,1,-18,-31,-10,-1,-1,25
1501882138372239,29,-4,-23,-10,3,-4,-4,41
1501882138372239,-22,-7,-14,14,-10,-2,-2,26
1501882138392240,-5,4,6,40,3,1,1,5
1501882138392240,38,2,10,-8,-1,0,10,39
1501882138399255,-3,2,-5,-70,-13,-4,-7,-40
1501882138399255,5,0,29,30,5,-3,0,12
1501882138406240,39,0,-47,-46,0,8,5,25
1501882138406240,16,-5,16,35,1,-3,-3,23
1501882138415245,14,9,10,-2,3,2,5,24
1501882138415245,-3,1,8,-29,0,1,-3,-23
1501882138430244,6,-7,-12,85,4,4,6,15
1501882138430244,-3,9,30,-23,7,-3,-5,-10
1501882138432243,9,-4,-34,-18,-2,0,0,19
1501882138432243,9,-1,16,25,-5,-5,-3,-30
1501882138453264,15,3,31,-4,-1,-3,0,3
1501882138453264,-14,-2,-8,8,6,3,2,-15
1501882138454264,10,1,5,67,10,3,-1,28
1501882138454264,-11,-1,-13,-41,-18,-3,-3,-4
1501882138466245,-11,0,14,26,10,-2,-1,18
1501882138466245,-39,-10,-15,-67,-24,-3,-4,-46
1501882138475268,51,1,11,49,5,-4,1,82
1501882138475268,-7,3,-29,-3,0,2,2,-1
1501882138490286,-7,-3,-4,-42,-10,-5,-2,28
1501882138490286,-14,-1,-12,41,8,3,1,-48
1501882138496249,-25,-1,-16,-8,-1,0,0,-30
1501882138496249,1,-6,-3,5,-5,-10,-3,21
1501882138513248,3,6,20,19,4,4,-6,-17
1501882138513248,-21,1,-8,-17,9,8,1,-2
1501882138519253,-11,-8,15,-4,-17,-4,-2,-24
1501882138519253,13,3,-16,10,3,2,0,3
1501882138526290,-11,3,-16,-67,-8,-6,-1,-23
1501882138526290,-1,-6,2,17,-4,-2,-2,3
1501882138535249,17,1,-2,21,7,0,0,19
1501882138535249,-59,-11,-8,-39,2,2,-2,-1
1501882138550249,21,4,16,-21,-11,-5,-1,8
1501882138550249,-19,3,-15,7,5,5,3,-18
1501882138552251,-19,2,21,-3,10,-3,-2,-4
1501882138552251,3,2,-1,0,-15,0,1,-49
1501882138573271,27,-2,-4,-31,0,0,-3,-30
1501882138573271,35,-4,15,22,1,-2,2,45
1501882138574289,-19,-1,-14,-31,1,0,-2,-11
1501882138574289,-22,-3,-16,54,5,0,-2,-34
1501882138586268,-10,-1,7,23,1,1,1,5
1501882138586268,-7,-2,27,38,3,-5,-4,21
1501882138595252,13,-4,-5,-50,-14,-3,1,-7
1501882138595252,-9,1,-1,-25,-8,-7,1,-17
1501882138610253,14,2,2,-19,2,7,1,14
1501882138610253,1,-4,-3,33,5,0,2,6
1501882138612274,-14,7,35,21,-3,-2,1,1
1501882138612274,1,-5,-26,-66,-1,0,-7,10
1501882138640301,0,4,26,89,10,0,-1,9
1501882138640301,-2,-14,-30,-65,-4,-4,1,5
1501882138642255,-4,5,8,12,9,5,-1,-10
1501882138642255,28,0,10,2,-3,-1,1,14
1501882138646263,-42,-11,-12,-19,-4,-5,-3,-36
1501882138646263,-5,6,9,12,6,1,-4,1
1501882138655297,-18,-3,-28,5,1,-1,-1,2
1501882138655297,18,0,15,16,3,5,3,-17
1501882138670256,0,4,-2,-14,5,0,0,17
1501882138670256,20,2,9,50,0,-1,-1,-16
1501882138676258,-2,-4,21,-37,-9,-7,-5,15
1501882138676258,-16,3,18,57,13,5,1,-1
1501882138693258,-11,-1,-15,-55,-17,-1,1,-16
1501882138693258,-6,3,1,-33,-5,-3,-3,-27
1501882138694260,15,5,-3,45,6,0,0,-2
1501882138694260,3,-18,-26,-32,-3,-1,-5,63
1501882138715259,26,1,6,15,-3,-5,0,-2
1501882138715259,-14,2,1,-16,-7,-6,-4,-11
1501882138717261,10,0,-2,-5,-5,3,0,-12
1501882138717261,3,-1,-17,34,11,-1,-1,10
1501882138730263,-1,1,20,-54,-10,1,1,17
1501882138730263,22,4,-14,-44,-5,1,-1,9
1501882138732261,4,0,4,46,2,-1,1,10
1501882138732261,-6,3,17,60,2,0,5,-35
1501882138753272,-31,-9,1,-31,-2,-6,-7,-16
1501882138753272,18,10,16,13,0,2,2,29
1501882138754262,-2,-2,-23,-29,0,3,-2,-4
1501882138754262,-7,6,17,-21,2,2,1,-81
1501882138775267,-8,-6,-38,50,-5,-3,-1,-3
1501882138775267,14,-9,-7,20,-4,-5,0,3
1501882138777265,-21,-4,-13,-87,-13,-3,-4,-14
1501882138777265,23,10,34,-25,-6,-1,-1,17
1501882138790302,-1,1,-5,13,12,3,2,43
1501882138790302,4,0,6,6,-3,-1,-2,-20
1501882138792264,5,1,-5,-18,0,-1,0,-6
1501882138792264,-6,-7,-16,-19,-10,-2,-1,26
1501882138813268,12,-7,8,-10,2,-2,-5,-13
1501882138813268,-35,-7,-28,47,1,2,3,36
1501882138814267,-16,0,-14,-41,-5,-4,-3,-50
1501882138814267,23,0,1,43,-5,-1,-1,81
1501882138835308,-36,-3,-1,-6,-1,-2,-1,-62
1501882138835308,7,5,18,-4,5,3,-2,1
1501882138837268,-18,-9,10,31,2,-7,-4,-10
1501882138837268,3,0,-25,-24,1,5,1,-4
1501882138850273,12,2,22,-4,-5,-7,-2,26
1501882138850273,-6,0,15,11,-5,-1,-3,-46
1501882138856284,-4,-6,-6,27,5,3,2,-3
1501882138856284,-2,0,-2,-51,-11,-7,-2,6
1501882138873279,17,5,-2,15,3,1,-1,9
1501882138873279,-6,-6,-27,-29,-5,-2,-4,-17
1501882138874269,-2,-6,-10,-19,-10,-8,-4,5
1501882138874269,15,-5,6,2,-2,0,-8,-48
1501882138895296,-2,8,12,2,6,4,3,-1
1501882138895296,-3,-3,-12,8,-5,-4,-1,7
1501882138897270,24,4,15,2,1,1,1,20
1501882138897270,-3,-7,-23,32,5,-5,0,-21
1501882138910270,-15,-6,7,-36,-6,0,3,0
1501882138910270,-25,1,-8,25,2,-2,-5,-1
1501882138916291,28,0,-9,-66,-11,-2,1,30
1501882138916291,-10,-1,5,15,0,-2,-1,-38
1501882138933273,22,-5,-8,-9,-2,-3,-5,21
1501882138933273,23,5,-2,13,-1,-1,5,15
1501882138934272,21,1,10,13,2,2,-3,60
1501882138934272,-10,-12,-21,-7,-9,-6,-3,7
1501882138955274,-1,7,13,90,11,2,2,-14
1501882138955274,20,-7,-22,-67,-8,-3,-3,10
1501882138957273,-51,-5,7,29,1,-2,3,-55
1501882138957273,15,16,15,14,5,3,-1,1
1501882138970330,-30,-14,-21,-38,-11,-6,-3,2
1501882138970330,16,3,-1,16,7,3,1,49
1501882138976279,-5,-3,7,42,2,2,1,-14
1501882138976279,-14,1,10,-79,-3,1,0,9
1501882138993277,11,1,-16,-34,0,1,3,49
1501882138993277,-3,-10,3,-45,-17,-7,-8,-63
1501882138994276,31,0,-5,1,4,0,-1,-4
1501882138994276,-20,3,7,64,4,-1,1,2
1501882139015297,19,0,-5,17,2,-1,-1,15
1501882139015297,-21,-5,-28,-12,-1,-3,-2,-8
1501882139017297,-1,3,25,22,6,3,0,-3
1501882139017297,-1,-2,-22,2,-4,-2,2,-6
1501882139030294,4,5,9,-34,-8,0,-2,11
1501882139030294,-5,-2,-6,-6,6,4,4,-8
1501882139036315,-13,-4,1,31,6,-1,-3,-22
1501882139036315,2,-3,-10,18,3,1,-2,32
1501882139053279,-3,1,25,26,-4,-3,-1,-56
1501882139053279,11,-5,7,-5,-7,-4,-4,44
1501882139054291,1,0,-4,4,-2,4,-1,25
1501882139054291,-21,-7,-17,-37,-10,-4,-1,-6
1501882139075280,43,3,23,11,-1,-1,1,36
1501882139075280,-2,9,12,71,13,7,2,-10
1501882139077286,29,-8,-42,-94,-19,-9,-3,-8
1501882139077286,-2,2,28,39,5,-1,-1,-7
1501882139090286,-63,-2,-25,-27,2,3,0,-46
1501882139090286,6,-13,-8,-1,-1,-3,1,12
1501882139096290,-1,4,1,20,5,1,-2,31
1501882139096290,-16,-6,4,-4,-4,-1,-4,-48
1501882139113299,46,-1,-6,7,6,1,1,51
1501882139113299,-2,9,4,-23,-7,-4,-3,-3
1501882139114285,-27,-4,-11,12,6,1,-5,-37
1501882139114285,11,-6,-12,2,-6,-2,0,30
1501882139135299,-10,1,-2,-60,-9,0,-2,-16
1501882139135299,-16,2,30,16,-1,-3,-3,-16
1501882139137321,-7,-7,-51,-36,1,1,0,4
1501882139137321,1,1,23,59,6,-2,1,14
1501882139150289,2,-1,-8,16,4,3,-2,-7
1501882139150289,5,-1,-13,-23,-2,2,2,-6
1501882139156298,-48,3,17,12,4,-2,-5,-32
1501882139156298,14,4,17,-35,-10,0,0,-9
1501882139173287,0,-1,-27,7,-4,-5,-2,7
1501882139173287,-3,1,29,-1,0,1,2,5
1501882139174286,2,1,11,39,2,-1,1,26
1501882139174286,6,0,-1,-13,3,-1,-4,-45
1501882139196291,4,-1,-12,6,0,-1,3,-6
1501882139196291,-8,0,37,-24,1,2,0,6
1501882139197288,32,6,-20,94,5,1,4,18
1501882139197288,-18,-1,22,-80,-5,-3,-4,8
1501882139209288,-3,-14,-27,-11,-5,-2,-1,-11
1501882139209288,-18,0,-3,11,8,-1,-2,-16
1501882139218289,20,1,9,-17,-3,0,2,18
1501882139218289,-6,5,2,19,8,1,0,10
1501882139233317,-27,-9,1,-32,-8,1,1,-45
1501882139233317,7,-2,1,10,-1,-5,-6,14
1501882139234290,-7,-2,-5,-19,-6,-4,-4,-13
1501882139234290,8,2,-1,-4,5,3,2,24
1501882139255290,-6,-2,-17,16,2,-6,-1,-9
1501882139255290,3,1,17,-10,-15,2,0,7
1501882139257292,0,0,7,-28,-3,-1,-1,-65
1501882139257292,-2,-3,-32,-9,-5,-1,-1,5
1501882139269293,-5,3,19,40,1,-5,-2,5
1501882139269293,-11,6,8,8,7,2,4,-7
1501882139278292,25,-10,-15,2,-2,0,2,27
1501882139278292,-2,-2,-4,18,1,0,-2,-22
1501882139293296,7,4,8,40,-2,-2,-5,-31
1501882139293296,-22,-9,-28,7,-4,-6,-1,-16
1501882139295303,20,-2,11,-68,5,5,2,76
1501882139295303,-13,-6,4,9,-16,-6,-4,-16
1501882139315296,8,-2,-3,-66,-6,-2,-4,3
1501882139315296,-6,2,22,-21,-7,-3,-6,-21
1501882139317295,-27,-5,-21,58,2,-3,-10,-16
1501882139317295,5,-3,-1,-14,-1,-1,4,22
1501882139329296,-23,4,-6,11,5,0,-1,-21
1501882139329296,39,-5,-7,3,0,4,0,15
1501882139338296,-37,-3,5,-40,-6,-2,-1,-22
1501882139338296,4,4,2,3,0,2,0,9
1501882139360299,5,-4,5,87,12,3,2,21
1501882139360299,-17,-7,-34,-48,-13,-6,6,67
1501882139362299,0,7,32,4,1,2,2,-5
1501882139362299,14,2,-14,0,-2,0,3,2
1501882139374299,5,-4,26,34,-2,-4,-6,54
1501882139374299,-9,-1,-25,-7,-5,-3,-5,-20
1501882139383300,-7,2,19,-22,3,0,-2,-7
1501882139383300,-7,-8,9,30,-16,-7,-3,19
1501882139389300,18,-4,-32,-24,1,6,4,36
1501882139389300,-18,-4,-1,49,11,-2,-6,50
1501882139398300,8,-5,-8,-72,-18,-3,-1,-9
1501882139398300,6,2,6,-8,11,1,-4,-27
1501882139413302,-18,-5,-10,8,-10,-9,0,4
1501882139413302,-11,-4,-4,-1,2,1,-2,-13
1501882139414303,-12,10,14,65,10,3,1,-15
1501882139414303,5,-2,-6,-50,-5,-2,-1,27
1501882139435303,-22,0,-9,-10,-2,1,-2,-29
1501882139435303,-13,0,8,-42,-6,-4,0,50
1501882139437304,7,0,18,97,-2,-11,-3,-31
1501882139437304,-3,-2,-17,-42,7,10,3,-16
1501882139449303,17,0,3,50,3,-1,-4,-5
1501882139449303,7,6,13,5,6,1,0,-36
1501882139458304,-11,-7,-34,-10,-3,-1,1,5
1501882139458304,4,-3,19,0,2,-2,1,51
1501882139473305,6,6,4,-5,6,5,1,-30
1501882139473305,0,0,0,-3,0,-1,2,-26
1501882139474307,11,0,-3,-5,4,4,-3,11
1501882139474307,-9,-9,-24,-76,-16,-9,-1,-5
1501882139495308,-12,2,28,61,3,-2,0,2
1501882139495308,25,0,14,40,1,-7,-8,-38
1501882139497305,13,2,-19,-52,-6,0,4,25
1501882139497305,-21,-5,-21,-15,3,2,-1,-18
1501882139509327,1,0,-9,-51,-3,0,0,-8
1501882139509327,2,-3,-4,-9,1,-1,-2,7
1501882139518326,-52,0,5,24,-6,-3,-5,-48
1501882139518326,9,5,46,69,7,-1,-1,11
1501882139532309,-1,-3,-24,-52,-18,-2,-1,5
1501882139532309,15,5,-12,7,2,1,4,37
1501882139533316,16,-8,-10,-26,-5,-1,-3,-50
1501882139533316,2,1,-8,22,2,-6,-4,-25
1501882139555327,-11,4,39,23,10,7,-3,-11
1501882139555327,27,2,-10,-89,-12,0,5,2
1501882139557310,-19,-1,10,5,-4,-3,-1,-5
1501882139557310,33,-3,-14,29,-2,-5,-5,1
1501882139569310,46,1,-15,-43,7,2,3,45
1501882139569310,-31,-2,48,91,1,4,0,-87
1501882139578310,-1,-5,-16,-10,-3,-2,-2,23
1501882139578310,-22,-4,0,-28,-7,-6,-4,1
1501882139593316,11,-1,-13,-45,-1,0,-1,-51
1501882139593316,-10,5,6,35,-4,-2,-3,-17
1501882139594317,9,-2,-5,-39,-4,-2,2,41
1501882139594317,-5,-5,-19,-20,0,4,-1,7
1501882139615312,-12,3,23,-18,1,-2,0,-3
1501882139615312,3,-6,-12,69,2,-2,-3,-30
1501882139617314,14,3,0,-62,-10,-1,0,5
1501882139617314,-1,-2,-11,41,1,-2,-2,27
1501882139638327,-11,-5,-18,-7,-4,-1,1,7
1501882139638327,-5,-3,-16,-35,-5,-4,-3,-6
1501882139639315,13,2,-2,19,10,4,-6,19
1501882139639315,28,4,13,30,-2,1,4,30
1501882139652329,-6,-3,14,0,-3,-3,3,32
1501882139652329,-59,-4,-8,48,-1,-3,-5,-45
1501882139660316,4,-3,-4,41,4,-3,-1,-24
1501882139660316,-14,5,17,-26,3,4,3,-7
1501882139675319,30,6,6,-36,-11,-3,-2,18
1501882139675319,25,-10,-44,-41,-1,-5,-3,59
1501882139677318,-2,6,18,-6,-2,3,4,21
1501882139677318,-4,-7,10,35,0,6,2,-7
1501882139698331,-17,4,-28,14,5,0,-1,-30
1501882139698331,7,7,34,-31,3,2,0,11
1501882139699316,-22,-9,-13,17,-2,-3,-3,-17
1501882139699316,18,1,-2,32,11,2,-2,-5
1501882139712328,-19,-10,-14,-8,-10,-8,-8,-32
1501882139712328,14,3,2,-97,-7,-1,4,21
1501882139713331,3,-1,6,39,4,0,0,9
1501882139713331,-18,2,-4,2,0,2,-4,-22
1501882139734334,-15,-3,2,-10,-8,-3,-2,7
1501882139734334,21,-1,-17,30,-2,1,-4,-7
1501882139735321,3,2,12,-49,-2,-5,-2,18
1501882139735321,-24,-1,-12,9,-1,2,0,-32
1501882139757334,21,-6,23,51,2,0,-1,8
1501882139757334,-1,-3,-5,-13,1,-2,-1,-7
1501882139758321,8,0,-20,32,6,1,0,-4
1501882139758321,-5,1,11,-55,-18,-9,-8,-7
1501882139771323,-2,-4,-14,-12,-3,-2,0,8
1501882139771323,-26,2,5,24,5,4,1,-15
1501882139779322,-12,-4,4,-13,-7,-5,-2,-37
1501882139779322,7,1,-6,3,6,2,2,12
1501882139794326,0,3,2,-22,-8,-1,-1,-2
1501882139794326,4,-1,-13,-28,-2,-3,0,11
1501882139795323,-4,-1,10,88,5,-1,-3,12
1501882139795323,10,9,24,12,-1,1,2,11
1501882139817329,-38,-10,17,1,-4,-3,1,4
1501882139817329,29,-7,-34,10,-3,-1,-3,33
1501882139818324,0,2,18,-60,7,0,3,23
1501882139818324,6,-9,-32,-6,-18,-11,-8,-27
1501882139832348,27,5,22,62,12,6,2,11
1501882139832348,-33,3,4,-102,-7,-4,-2,-25
1501882139833325,13,-3,-17,16,-2,2,-1,12
1501882139833325,-19,-1,20,-5,7,1,0,0
1501882139854367,-11,0,-10,-6,-4,-3,0,9
1501882139854367,7,-1,-3,77,10,2,0,1
1501882139855331,10,-2,-1,-4,-5,-6,-4,1
1501882139855331,-29,-4,-18,-42,-8,-2,1,-13
1501882139885371,6,7,-2,-12,5,3,-3,-47
1501882139885371,5,-3,34,15,-1,0,-1,-2
1501882139886329,-2,-10,-64,-31,-1,0,-2,-2
1501882139886329,0,0,12,36,-3,-3,0,-55
1501882139891334,4,4,-5,72,14,2,-3,-65
1501882139891334,-7,3,20,-27,-13,-3,-4,-1
1501882139900334,-27,-6,4,-52,-14,-3,-1,-20
1501882139900334,14,-9,-26,-18,2,-1,-1,17
1501882139914350,9,2,3,3,1,0,1,29
1501882139914350,3,-1,-6,-8,1,0,-1,-8
1501882139915329,-2,0,11,-6,-6,-5,-3,-1
1501882139915329,7,1,-14,45,7,1,1,17
1501882139937372,-19,-2,17,-22,-3,-1,0,4
1501882139937372,5,-2,-14,25,2,0,0,11
1501882139938336,7,3,0,-15,1,0,0,5
1501882139938336,5,-3,-6,-25,-1,-5,-2,23
1501882139951372,-8,-6,-16,19,2,3,1,17
1501882139951372,9,3,-7,-17,1,2,-6,-49
1501882139960336,3,1,-19,3,1,2,-2,-8
1501882139960336,9,1,46,70,3,-3,-6,18
1501882139974351,18,-10,-26,-33,-10,-6,1,19
1501882139974351,-29,0,-9,22,3,-4,5,18
1501882139975333,-1,-4,9,12,-1,1,4,7
1501882139975333,18,5,-11,-3,6,4,0,-14
1501882139997335,3,0,-1,-43,-9,-4,-9,18
1501882139997335,-2,-1,1,45,2,1,-2,12
1501882140005335,17,2,20,45,5,-3,-4,9
1501882140005335,-28,1,6,-52,-3,5,9,13
1501882140011374,-8,-6,-14,-9,-2,-2,2,8
1501882140011374,1,1,-20,-44,-3,-1,0,-6
1501882140027335,-4,-8,0,36,1,-3,-2,11
1501882140027335,2,-3,-20,-59,-6,-2,-5,13
1501882140034376,-6,4,33,61,3,-5,-2,9
1501882140034376,9,3,13,-23,6,6,0,-13
1501882140035337,5,-5,-28,-31,-11,-1,3,12
1501882140035337,-8,-8,-8,32,0,-2,-4,-16
1501882140057340,-14,1,-12,-29,-4,-4,-1,-9
1501882140057340,20,-1,11,-11,0,2,1,19
1501882140058338,-3,3,19,86,-1,-2,-4,-20
1501882140058338,1,1,4,-68,-1,0,1,-12
1501882140071380,-5,-3,-10,1,-10,0,0,51
1501882140071380,-16,-10,-12,12,1,-2,-2,-17
1501882140079339,-7,3,25,-102,-10,0,5,-10
1501882140079339,3,5,1,53,6,0,8,-52
1501882140095343,-15,-3,-10,2,-1,1,-3,-11
1501882140095343,-3,3,10,-27,-5,-3,-4,13
1501882140095343,17,2,-8,24,2,3,-4,-9
1501882140095343,-46,-6,28,6,0,1,2,13
1501882140117347,3,-1,-4,-42,2,1,-3,-11
1501882140117347,-2,-1,4,61,4,-1,2,-3
1501882140118345,-1,5,5,-15,-2,-2,-5,-46
1501882140118345,-7,-3,-13,39,-5,-5,-8,-20
1501882140131366,18,2,3,-75,-11,-4,2,5
1501882140131366,-25,-15,-26,29,2,1,0,-32
1501882140139384,8,-1,26,-31,-7,-3,-1,26
1501882140139384,-5,0,-13,19,1,4,0,11
1501882140154384,5,-6,-39,33,-5,-7,-7,-21
1501882140154384,27,9,25,-19,1,-2,6,-9
1501882140155344,-1,-8,-11,42,8,1,5,22
1501882140155344,12,1,-17,-50,1,0,-2,-3
1501882140177362,-37,-3,22,9,-4,2,-4,36
1501882140177362,4,8,4,5,-2,-6,-5,-42
1501882140178349,-4,0,1,-26,-2,0,0,1
1501882140178349,48,0,23,29,4,-3,-5,31
1501882140191345,8,-2,0,12,5,0,2,20
1501882140191345,-10,-4,-10,-34,-5,-2,-6,10
1501882140199347,-11,5,-14,25,5,4,3,-2
1501882140199347,-6,-3,-3,25,5,-3,-3,7
1501882140214367,9,3,7,-5,-4,0,0,-36
1501882140214367,9,-4,2,11,-8,-5,-5,30
1501882140215348,-9,-3,-22,-26,-3,1,-1,-3
1501882140215348,-9,5,2,-41,2,-1,0,19
1501882140237368,10,-1,-6,64,2,0,-8,-26
1501882140237368,-5,0,41,71,11,2,2,9
1501882140238349,-4,0,-24,-81,-7,-2,0,-10
1501882140238349,11,1,19,-39,-7,-3,-5,-12
1501882140251351,-17,1,6,10,-2,-4,-2,-16
1501882140251351,39,-4,-14,-42,-13,-2,9,45
1501882140259353,-23,10,29,94,14,4,-5,-79
1501882140259353,-7,-3,-21,-62,2,0,3,15
1501882140275351,5,-4,-2,-4,-4,-1,0,7
1501882140275351,-1,-7,-9,26,-2,-2,0,-2
1501882140276351,29,-4,-7,44,2,-6,-4,30
1501882140276351,-6,0,3,-5,-9,-3,-4,28
1501882140297372,1,-3,1,-3,5,-1,3,-13
1501882140297372,-10,0,-3,-61,-5,0,-9,5
1501882140298354,-1,-6,6,71,4,-2,-2,16
1501882140298354,-5,-4,-3,-20,-3,2,-3,-4
1501882140311353,-9,2,-9,-41,-2,1,2,-17
1501882140311353,-17,-4,8,43,2,-3,1,-6
1501882140319357,-4,-6,-8,19,0,2,-1,10
1501882140319357,8,0,-12,7,-13,-3,-1,-8
1501882140334354,-4,-6,-24,-37,1,-2,-1,4
1501882140334354,-10,0,-27,-3,3,1,-1,14
1501882140335356,-9,-2,7,-41,-10,-6,-1,-41
1501882140335356,-6,-5,-12,2,-3,-4,-1,52
1501882140357369,3,2,19,32,5,1,3,17
1501882140357369,-11,6,13,22,2,-1,1,-1
1501882140358356,-7,-4,12,-34,-2,-2,-3,14
1501882140358356,13,1,7,41,0,-4,-8,-7
1501882140371356,-4,3,0,-21,2,3,9,1
1501882140371356,11,-5,-10,-15,5,2,-1,15
1501882140379357,-1,-8,-28,-38,-4,-1,-1,6
1501882140379357,-4,2,1,-12,-4,-5,2,-18
1501882140396358,0,2,9,62,7,9,-2,-9
1501882140396358,-2,4,16,2,0,0,-1,-8
1501882140397359,-9,4,-14,-9,4,1,3,-4
1501882140397359,3,-8,1,47,1,0,-2,-29
1501882140417360,6,-3,3,-11,-2,-10,-8,9
1501882140417360,-5,-5,-17,-45,-18,-2,-1,-6
1501882140418361,-16,3,21,3,-1,-2,-4,2
1501882140418361,6,6,3,17,4,6,1,9
1501882140431363,7,-2,-16,-9,-1,-1,-6,-41
1501882140431363,-1,-6,19,16,2,-5,-1,-5
1501882140439376,8,-10,-16,-60,-15,-9,-5,22
1501882140439376,-25,-5,-21,-27,2,1,2,-28
1501882140454375,-7,2,24,-8,-4,-1,-1,-17
1501882140454375,29,4,-13,-2,3,-1,-1,41
1501882140455361,-9,-2,3,60,4,0,0,-9
1501882140455361,11,1,31,-50,-6,-1,1,-12
1501882140477379,-16,-16,-47,-53,-14,-6,-7,0
1501882140477379,-2,6,9,1,2,-3,-5,7
1501882140478362,0,7,21,67,14,7,3,-7
1501882140478362,2,-4,-6,26,6,-2,-3,1
1501882140491384,17,1,2,-51,-1,-2,3,64
1501882140491384,12,-6,-18,-9,-3,3,3,1
1501882140500373,-18,2,19,6,1,-3,-5,-21
1501882140500373,6,1,-6,46,6,2,6,19
1501882140514383,-5,1,11,-24,-13,-1,0,-10
1501882140514383,-9,0,-4,14,2,0,-2,-12
1501882140515364,13,3,12,-27,0,-2,2,5
1501882140515364,-1,-3,-16,-9,-15,0,-2,1
1501882140537429,-30,-1,23,31,4,-3,-5,-13
1501882140537429,-6,1,-25,-41,1,1,3,-29
1501882140538386,9,3,-6,6,-5,0,-2,16
1501882140538386,-2,-7,-19,-33,-3,-2,-1,-3
1501882140560370,21,3,18,61,9,-3,0,12
1501882140560370,-8,5,18,-26,3,3,-2,-18
1501882140561368,-9,-12,-39,-96,-20,-7,-8,13
1501882140561368,10,-5,25,78,3,-7,-3,4
1501882140574373,-14,3,-2,-11,2,8,11,-8
1501882140574373,0,-2,-3,33,3,-2,-4,-25
1501882140575368,8,0,9,-10,-5,0,1,11
1501882140575368,-5,-3,-4,-31,0,2,1,2
1501882140597427,5,5,0,22,5,-1,-1,-2
1501882140597427,-18,-6,-8,51,-1,-3,-5,-10
1501882140598389,17,0,-4,-50,-3,1,3,9
1501882140598389,11,9,14,12,2,1,-4,-6
1501882140620431,6,-2,5,-31,-1,-2,-2,-10
1501882140620431,-3,-3,-17,-13,-5,-2,-1,12
1501882140621377,-9,-5,3,30,7,4,7,6
1501882140621377,-11,-1,-20,-13,-3,0,0,-5
1501882140634440,13,2,22,22,6,-1,0,70
1501882140634440,5,1,-4,-50,-6,1,-2,-14
1501882140635380,-5,-3,6,-5,-17,-11,-3,8
1501882140635380,-7,3,7,-5,7,3,-1,16
1501882140657374,-4,0,-25,37,2,2,-5,-29
1501882140657374,-4,-9,-8,-45,-8,-1,-1,-1
1501882140658392,6,2,6,41,18,7,3,4
1501882140658392,-9,1,-31,-60,-18,-6,-3,16
1501882140680395,3,2,9,-5,-9,-6,-5,-17
1501882140680395,4,0,8,11,2,-2,3,6
1501882140681375,6,-2,-13,4,0,2,-3,-13
1501882140681375,-18,-5,4,10,2,-1,1,-10
1501882140695391,2,7,16,9,6,2,-1,-2
1501882140695391,10,0,11,66,2,-2,-3,5
1501882140695391,-16,1,-8,-29,-13,-6,-6,-9
1501882140695391,3,-1,-2,10,4,3,3,55
1501882140717397,-34,-6,-8,3,-2,-2,-2,-40
1501882140717397,30,6,22,-72,-2,3,2,-18
1501882140718379,39,-1,-13,33,-2,-9,-7,3
1501882140718379,7,-3,6,33,-1,1,-1,1
1501882140740380,-9,-3,-11,-19,-5,-2,-2,-4
1501882140740380,-13,3,14,22,6,-6,-3,2
1501882140741378,17,0,-18,-7,9,12,3,14
1501882140741378,-43,-5,3,-23,-19,-9,-6,-66
1501882140754413,28,-2,-29,-20,0,-1,7,8
1501882140754413,5,1,7,4,-2,-1,-1,5
1501882140755379,-18,-4,-7,-4,3,-4,-2,2
1501882140755379,10,0,2,14,0,2,-3,-1
1501882140777396,1,-3,3,15,-1,0,3,34
1501882140777396,-13,-3,-25,-40,-6,-1,-2,18
1501882140778383,14,2,31,55,10,6,2,-6
1501882140778383,-6,-7,-33,-29,-10,-7,-5,-16
1501882140800442,4,2,34,-5,-3,-4,-1,-9
1501882140800442,-2,-3,-14,9,-2,-2,-3,2
1501882140801385,-10,2,8,-4,3,3,3,-8
1501882140801385,3,-4,-10,4,8,2,0,-13
1501882140814385,11,-1,-10,11,2,-1,-4,3
1501882140814385,-19,-4,1,23,-5,-2,0,1
1501882140815382,0,2,2,-24,-3,-4,-2,-33
1501882140815382,-17,6,7,25,2,-1,2,-2
1501882140837421,27,-10,-26,-14,-3,-1,-4,-63
1501882140837421,-3,4,10,20,-7,5,0,-9
1501882140838404,-6,-3,9,14,0,-2,6,-4
1501882140838404,-24,-2,-13,-13,2,0,-3,-44
1501882140860389,-10,9,25,-20,6,1,1,1
1501882140860389,3,-9,-16,28,-4,-4,-3,-19
1501882140861386,-5,-5,-7,-28,-11,-7,-3,4
1501882140861386,29,3,18,25,8,2,3,21
1501882140874388,-9,-17,-28,-20,-7,-2,-4,54
1501882140874388,-5,5,5,18,12,2,-2,7
1501882140875386,-15,-3,-3,-66,-21,-5,-5,7
1501882140875386,2,3,20,48,9,-1,1,-13
1501882140897424,3,-1,-10,4,-9,-3,-1,12
1501882140897424,-2,-1,-15,-57,-6,-1,-1,4
1501882140898407,5,0,6,50,9,0,0,3
1501882140898407,-19,0,24,47,6,-2,-4,-23
1501882140920393,-5,-2,-18,-13,-2,-1,-1,35
1501882140920393,6,10,8,29,7,1,4,5
1501882140921389,-50,-21,-29,-71,-13,-5,3,-20
1501882140921389,20,10,26,-15,4,3,0,-10
1501882140934419,2,-9,-33,-48,-10,-7,-1,-3
1501882140934419,6,0,11,6,2,5,-3,-13
1501882140935389,3,5,11,38,8,2,-3,18
1501882140935389,10,-3,-13,-11,-8,-8,-1,9
1501882140957410,-7,3,20,-14,5,6,1,-20
1501882140957410,-6,-8,-19,6,-7,-7,0,-9
1501882140958391,16,7,17,31,6,2,-2,-6
1501882140958391,5,-4,-17,-60,-7,-2,-3,8
1501882140980397,-7,7,30,127,8,0,-4,-48
1501882140980397,5,-6,-5,-71,-11,-4,1,7
1501882140981392,-2,0,13,-7,-7,0,-3,15
1501882140981392,12,-4,-25,-26,-5,-2,3,-17
1501882140994413,15,5,16,15,0,3,3,29
1501882140994413,-22,-6,-13,-14,2,-1,0,-42
1501882140995393,0,0,-8,24,-4,-4,-3,1
1501882140995393,21,1,7,-29,0,0,-2,12
1501882141017395,17,3,7,34,5,1,4,-8
1501882141017395,-29,-5,1,-6,-1,-1,-5,5
1501882141018416,0,3,2,-21,2,-2,-2,5
1501882141018416,-5,-8,-23,-11,-10,-3,-1,0
1501882141040433,5,5,7,28,4,-4,-5,13
1501882141040433,-11,-1,9,-51,2,5,1,8
1501882141041396,2,2,-4,12,3,1,1,0
1501882141041396,-5,-4,-13,13,0,1,1,14
1501882141054456,-5,-2,-4,-22,-3,-4,-8,-33
1501882141054456,-22,-5,-22,-5,-8,-9,0,-1
1501882141062436,-8,6,13,-21,0,0,-1,-12
1501882141062436,0,-7,19,44,3,0,-2,-13
1501882141077397,-2,-4,-23,49,4,3,0,4
1501882141077397,-2,1,13,-71,-8,-2,-2,8
1501882141078397,4,1,-3,8,-2,-3,1,5
1501882141078397,-5,-1,13,9,1,-3,-5,15
1501882141100459,12,-3,-11,-75,-7,-4,-1,2
1501882141100459,11,7,28,111,11,-1,0,-4
1501882141101399,3,-5,-23,-15,-2,-1,-1,-3
1501882141101399,3,4,-2,-10,-6,-5,-1,-4
1501882141114420,-27,-5,-4,11,5,9,3,10
1501882141114420,13,0,2,-8,-2,0,0,-19
1501882141115399,22,0,6,-22,-10,-3,-5,22
1501882141115399,9,-7,-28,18,6,2,2,3
1501882141137440,-14,4,15,-18,-1,1,0,1
1501882141137440,-4,-4,-20,32,4,-4,-1,14
1501882141138421,-1,-4,1,-22,-2,2,-1,-10
1501882141138421,-6,1,11,31,-1,-3,-4,-7
1501882141160403,-7,-4,-1,-12,-7,-8,-4,1
1501882141160403,3,3,0,-30,-1,8,2,0
1501882141161409,-2,0,8,69,5,-2,0,-13
1501882141161409,-22,2,0,20,3,1,-3,-47
1501882141174403,-3,0,1,-97,-10,-5,-3,0
1501882141174403,-5,-3,-5,48,1,-1,0,-17
1501882141182405,-29,-2,5,-41,-2,0,-3,-16
1501882141182405,-9,-3,-3,59,0,-3,-2,-12
1501882141197415,13,-1,6,22,7,2,2,2
1501882141197415,16,-3,-42,-39,-5,0,-1,4
1501882141198404,6,-1,10,33,1,1,3,33
1501882141198404,9,4,5,-50,-1,0,-4,-22
1501882141219425,-18,-2,-4,23,-8,-6,-3,-17
1501882141219425,10,-1,8,-32,-2,-3,-2,9
1501882141220407,9,1,-13,26,7,3,1,-5
1501882141220407,4,1,14,11,2,-1,3,24
1501882141234408,-1,-5,-7,-33,-11,1,-2,-11
1501882141234408,7,4,32,111,5,-4,1,31
1501882141242407,-20,-3,-22,-88,-13,-4,-6,-34
1501882141242407,3,0,4,-45,-4,-1,3,39
1501882141257411,-7,1,-3,21,7,5,6,-73
1501882141257411,-7,-1,23,-38,-9,-5,-6,10
1501882141258408,2,0,9,116,11,-6,-2,3
1501882141258408,-27,-10,-18,-24,-1,6,-1,5
1501882141279412,7,3,-8,-22,-3,-2,2,38
1501882141279412,-9,-1,1,6,-8,1,0,-17
1501882141280409,6,5,13,-7,3,1,2,6
1501882141280409,1,-5,-8,-2,-1,1,-2,-15
1501882141294428,-2,-2,-16,-27,-3,-7,-3,-16
1501882141294428,8,-3,-1,-44,0,0,-2,-5
1501882141302411,-18,-3,-7,-18,-6,2,1,-1
1501882141302411,0,4,16,17,-1,-5,-3,19
1501882141317412,6,1,7,19,5,2,-1,18
1501882141317412,-22,3,14,4,4,-1,0,-2
1501882141318414,22,-3,-26,18,2,3,2,-6
1501882141318414,-4,-4,-1,-8,7,2,0,-31
1501882141339413,5,-3,-7,-29,-17,-4,-3,-1
1501882141339413,6,-3,-29,-36,-2,-1,0,25
1501882141341429,-2,0,23,30,6,0,0,9
1501882141341429,-14,-4,-2,7,-6,-8,-3,1
1501882141354415,0,-1,0,21,5,3,1,16
1501882141354415,3,0,-6,1,-4,-1,-1,-7
1501882141362428,-5,-1,-4,-55,0,2,1,-3
1501882141362428,5,3,2,82,9,0,-4,48
1501882141377415,-29,-5,1,-53,-19,-5,-3,-12
1501882141377415,36,5,11,58,6,-1,-2,21
1501882141378417,-19,0,0,-41,-3,-2,-2,-59
1501882141378417,3,-2,-18,-33,-5,1,0,16
1501882141399429,13,2,9,7,2,0,-1,6
1501882141399429,1,-6,-4,39,4,-1,-4,-6
1501882141400416,19,2,9,-1,-1,2,-2,18
1501882141400416,9,-3,-16,-15,-6,-2,-1,15
1501882141414418,19,5,6,55,12,1,2,15
1501882141414418,-4,-11,-34,-25,-10,-7,-4,-45
1501882141422417,-22,0,7,6,-3,-4,-6,3
1501882141422417,-1,3,16,-10,0,3,4,-17
1501882141437435,3,2,-4,-35,-3,-3,-1,12
1501882141437435,-4,0,10,16,6,-4,-2,16
1501882141438418,15,-2,-13,5,3,7,1,31
1501882141438418,-5,1,-14,-39,-7,0,-1,-22
1501882141459424,-13,-1,2,-3,1,-4,-3,3
1501882141459424,-5,-5,-10,-10,-4,2,0,-7
1501882141460425,7,-4,-4,13,-3,-5,-1,32
1501882141460425,15,0,5,29,4,-1,-1,-15
1501882141474422,-8,-4,6,-69,-9,-3,-4,-2
1501882141474422,-13,-2,-3,59,1,2,1,-9
1501882141482422,7,-4,-5,-44,-6,-3,-1,-8
1501882141482422,10,-2,-7,-8,0,-1,2,11
1501882141497436,0,-5,-27,2,-1,0,-1,1
1501882141497436,-16,7,31,31,4,0,-1,8
1501882141498423,34,-4,-12,-16,-1,0,-1,3
1501882141498423,-1,-1,2,-26,-4,-4,0,0
1501882141519427,-10,-3,-4,33,7,5,-2,-35
1501882141519427,4,8,0,-29,-7,-8,0,-3
1501882141520424,-8,-3,18,66,10,6,-2,-11
1501882141520424,-4,-2,9,-53,-5,-4,-4,-13
1501882141543423,37,-1,-2,-61,-10,-5,0,54
1501882141543423,-28,-3,-17,-8,0,1,2,-12
1501882141543423,-5,-2,-15,3,-4,-4,-2,-9
1501882141543423,0,3,11,24,4,0,1,-9
1501882141557441,-13,-2,0,38,2,-2,-1,-8
1501882141557441,7,-3,-2,-29,-4,0,-2,0
1501882141558426,-6,2,-9,-27,-4,-2,0,-7
1501882141558426,-2,1,1,32,11,5,2,26
1501882141579427,-12,-6,-1,2,-13,-6,-8,-11
1501882141579427,25,4,10,-36,-9,-4,-5,2
1501882141580427,1,7,10,-2,5,0,5,1
1501882141580427,-23,-11,-51,-16,-8,3,2,38
1501882141603435,2,-4,2,31,6,-2,-7,-36
1501882141603435,23,-1,9,-9,1,-1,-1,14
1501882141603435,-14,1,-8,-16,-10,-3,-3,20
1501882141603435,-2,2,20,0,5,2,-1,-16
1501882141617429,15,2,0,21,3,2,1,4
1501882141617429,-12,-3,-11,-1,0,1,3,-2
1501882141624433,0,-1,2,-40,-5,-5,-2,-9
1501882141624433,14,2,5,36,0,-2,-2,-4
1501882141639485,-41,-5,-3,-15,1,0,0,-11
1501882141639485,0,-2,-5,4,-2,-4,-4,-3
1501882141640434,-2,1,10,21,-3,1,1,-2
1501882141640434,-6,-8,-3,-2,-10,-10,-7,-15
1501882141662432,28,8,-19,21,4,5,4,18
1501882141662432,-20,-4,13,1,6,3,3,-4
1501882141663433,-7,-3,12,56,0,-5,-1,-27
1501882141663433,25,6,13,8,1,7,2,-2
1501882141677433,4,-7,0,-3,-5,-7,2,29
1501882141677433,-6,4,-7,-59,1,-2,-1,-1
1501882141678451,1,-5,-3,8,-15,0,-4,-27
1501882141678451,2,6,9,1,4,1,-1,3
1501882141699466,0,-3,0,-67,-6,-1,1,-69
1501882141699466,-13,-6,0,32,-3,-2,-3,-22
1501882141700433,6,1,3,-4,7,-4,-1,19
1501882141700433,-4,-6,-3,-10,-5,-5,-2,4
1501882141723436,0,6,11,12,3,2,1,15
1501882141723436,-22,-6,-17,3,-7,0,-3,10
1501882141723436,-6,-1,-11,-29,6,-1,0,-33
1501882141723436,-11,4,1,23,-4,0,-5,-39
1501882141737475,-13,2,11,7,2,0,0,-2
1501882141737475,13,-3,15,10,-1,0,1,4
1501882141738456,-24,-9,-7,-2,-1,0,-1,18
1501882141738456,4,-1,-25,-18,0,-3,0,3
1501882141759439,-11,0,11,7,-2,-3,-4,1
1501882141759439,4,3,0,17,5,1,1,-2
1501882141760439,8,-1,-15,42,7,2,2,35
1501882141760439,15,-5,-5,-20,-5,-2,-2,-9
1501882141783469,-6,2,28,-36,-1,-2,0,-2
1501882141783469,-6,-5,-15,7,-2,4,-1,11
1501882141783469,-3,-2,4,10,2,-2,-3,-17
1501882141783469,-2,3,-7,-20,-1,2,6,22
1501882141797461,13,-7,-9,47,-5,-4,-2,13
1501882141797461,-43,0,8,-29,1,2,-2,-37
1501882141798462,23,-1,-1,-28,-9,-5,-5,18
1501882141798462,-20,-1,19,-25,2,3,-1,-21
1501882141819457,-8,-4,-22,78,5,1,-1,-12
1501882141819457,13,-2,-11,-63,-11,-3,0,5
1501882141820441,-17,0,5,25,3,-4,0,-26
1501882141820441,7,-1,-6,-40,-10,-1,-2,15
1501882141842442,-2,1,8,28,3,2,-2,16
1501882141842442,6,-1,7,36,1,-1,-3,-19
1501882141843448,5,-2,-6,-14,1,-1,-2,19
1501882141843448,9,-2,8,12,-1,-4,-2,19
1501882141857508,-26,-2,-18,-30,0,3,1,-23
1501882141857508,22,7,-7,19,-1,-7,0,23
1501882141858443,-1,3,-6,48,1,8,2,-8
1501882141858443,-27,-16,17,-61,-5,-4,-2,-4
1501882141879479,17,-1,3,-9,-2,-4,-2,-11
1501882141879479,33,0,-15,-12,0,0,0,4
1501882141880445,-30,-4,3,-11,-13,-4,-4,-2
1501882141880445,-14,1,-10,17,3,-1,-1,-15
1501882141903455,0,0,9,-5,4,3,0,24
1501882141903455,3,-3,-22,7,0,-4,-3,0
1501882141903455,10,3,26,44,-1,0,-2,14
1501882141903455,17,-4,-16,-13,-4,0,-1,-17
1501882141917466,-11,1,-2,-3,3,-1,1,-3
1501882141917466,14,5,6,-37,-2,2,0,-32
1501882141918467,-14,-8,1,18,1,0,0,-9
1501882141918467,-6,-3,-38,-8,-3,-3,0,10
1501882141939489,-1,5,31,14,1,3,2,-10
1501882141939489,-19,-7,-10,-2,-1,-4,-3,1
1501882141940448,25,3,8,-17,0,1,3,-2
1501882141940448,-1,3,4,15,-1,3,-1,3
1501882141962457,5,-2,-12,-2,4,-2,-2,30
1501882141962457,-6,1,21,33,-4,-2,-1,-12
1501882141963450,-2,-5,-4,-50,-4,-5,-4,-3
1501882141963450,-27,4,3,-11,-1,-2,1,-2
1501882141977469,-3,-5,-26,20,2,0,-2,-7
1501882141977469,7,-1,4,30,3,-4,-3,15
1501882141978468,5,3,-17,-87,-21,-4,1,-9
1501882141978468,-13,-6,1,-5,2,0,-2,-22
1501882141999510,7,-4,-3,12,-3,-2,-3,0
1501882141999510,-26,4,42,27,7,1,1,-6
1501882142000470,7,3,-16,13,7,1,-2,-1
1501882142000470,10,1,14,32,3,-4,-3,3
1501882142023453,-17,-3,-2,-23,-8,-6,-1,-3
1501882142023453,35,2,-19,17,-1,4,1,62
1501882142023453,-12,-2,6,-41,4,1,0,-20
1501882142023453,-8,-3,-13,-9,-9,-4,-1,2
1501882142037493,-14,-5,-9,2,3,1,1,-9
1501882142037493,20,4,4,-16,-4,-2,0,12
1501882142038475,-6,-3,-13,-2,2,-4,-4,10
1501882142038475,27,3,16,72,6,5,3,10
1501882142059465,-27,-4,-7,-74,-10,-7,-4,-27
1501882142059465,-11,-3,-8,34,3,0,-4,-17
1501882142060455,4,-11,-1,40,-7,-3,-2,11
1501882142060455,7,2,7,-7,4,0,-4,-1
1501882142083458,-13,-3,-12,28,-1,-3,3,42
1501882142083458,5,1,-16,-15,-2,3,2,-20
1501882142083458,1,-6,-9,-29,-1,-1,-1,-7
1501882142083458,19,10,5,16,0,1,0,4
1501882142097517,-23,-4,7,-10,-1,1,-1,13
1501882142097517,-4,-4,-17,-22,-7,-2,-2,-22
1501882142098459,-4,1,16,68,8,-1,-1,-5
1501882142098459,0,-9,-36,-12,-5,-5,-1,5
1501882142119479,28,7,15,-10,1,1,-3,8
1501882142119479,-8,-4,2,9,-5,-3,-1,7
1501882142120462,17,1,-16,-34,-6,-4,0,-1
1501882142120462,-14,-10,3,1,1,-3,-2,-8
1501882142142462,10,4,0,-8,2,1,0,-13
1501882142142462,0,-8,7,-6,0,1,-1,5
1501882142143460,-20,3,14,35,2,-1,-2,17
1501882142143460,11,3,-21,-47,-12,-3,-1,-1
1501882142156484,19,2,7,30,3,1,-3,-7
1501882142156484,-2,-2,3,-37,-6,-9,0,16
1501882142164468,-1,-1,0,11,3,5,1,19
1501882142164468,-11,0,-7,-12,4,2,1,-30
1501882142179462,-27,-3,19,55,2,-2,-6,6
1501882142179462,-16,-6,-34,-40,-22,-6,-5,-59
1501882142180462,29,5,17,18,4,-1,1,-7
1501882142180462,7,-5,-30,-55,-7,-5,-3,14
1501882142202482,14,-2,13,37,1,0,1,-11
1501882142202482,-38,-5,-1,10,7,2,-2,13
1501882142203463,1,0,-20,-11,2,-1,1,-8
1501882142203463,-3,3,32,52,3,1,0,-2
1501882142216467,12,1,-12,-39,-11,-6,-3,-9
1501882142216467,-15,-4,-5,12,3,-2,-2,-12
1501882142224465,10,2,4,-19,3,3,-1,-1
1501882142224465,-26,4,17,-2,-7,-4,1,10
1501882142239466,17,-4,-32,-38,-8,-3,-2,-3
1501882142239466,10,1,21,17,-1,-3,0,10
1501882142240466,-4,-3,-4,-21,5,3,2,6
1501882142240466,8,0,16,7,4,2,-2,3
1501882142262498,-26,-3,12,60,2,1,1,-26
1501882142262498,11,1,2,-26,-1,-3,-1,2
1501882142263466,-3,-4,-23,-102,-15,-9,-7,-3
1501882142263466,7,-6,24,81,-2,-4,-1,3
1501882142276471,20,7,-7,-44,1,2,0,7
1501882142276471,-6,-1,18,18,8,3,2,20
1501882142284470,-10,-3,-22,22,0,-3,-3,-14
1501882142284470,-3,-3,9,-15,3,-1,-2,-5
1501882142299470,14,-1,0,0,1,-1,0,32
1501882142299470,26,1,-15,0,3,3,0,8
1501882142300470,6,4,27,8,0,1,1,6
1501882142300470,-9,-5,-22,13,-2,-10,-5,11
1501882142322470,0,-2,-8,-22,-1,4,-4,-12
1501882142322470,7,2,-8,6,3,3,2,4
1501882142323472,-20,-5,1,0,0,-4,-4,-16
1501882142323472,11,1,-2,-36,-13,-3,1,8
1501882142336485,-4,-1,-6,-36,1,0,0,-14
1501882142336485,-9,1,18,18,-1,-1,0,41
1501882142344473,10,-6,-7,54,11,4,0,-24
1501882142344473,15,5,8,-28,-1,0,0,-8
1501882142360475,-11,-11,-34,-10,-6,-6,-4,8
1501882142360475,-6,0,4,11,2,0,2,-11
1501882142360475,-17,-4,-9,-7,-12,-3,-1,7
1501882142360475,-2,0,-5,-7,-1,1,-3,-10
1501882142382474,7,0,15,12,-1,-2,0,11
1501882142382474,6,5,12,37,5,-1,-2,-13
1501882142383474,-8,-10,-26,-22,-14,-4,0,-1
1501882142383474,-5,0,-6,-72,0,10,2,-1
1501882142396476,4,3,5,30,1,-3,0,-5
1501882142396476,-3,-1,7,35,1,0,-3,-6
1501882142412481,0,4,13,30,4,0,1,1
1501882142412481,-1,-3,-8,-1,-3,-3,-1,3
1501882142419480,-8,-4,-3,-2,-1,-1,2,-10
1501882142419480,1,0,-14,-45,-3,-1,-1,3
1501882142420475,-1,1,12,0,-3,-1,-3,-1
1501882142420475,6,0,18,72,3,-2,-3,7
1501882142442480,-1,0,-4,-5,1,1,-1,-5
1501882142442480,-3,-6,-5,0,1,-3,-1,-15
1501882142443476,4,2,0,-33,-10,0,-1,4
1501882142443476,-6,1,1,7,5,4,2,2
1501882142465479,-1,0,2,-10,-1,-4,-2,-3
1501882142465479,-1,-4,-2,24,2,2,-1,-5
1501882142466480,3,3,16,21,1,-1,0,2
1501882142466480,13,-2,1,-23,-5,-6,-3,9
1501882142479479,-13,2,11,36,0,0,1,-14
1501882142479479,-3,-1,-2,-35,-9,-1,-2,-1
1501882142480480,-5,-3,0,-5,-2,-2,-2,-4
1501882142480480,-7,1,-14,-40,4,3,1,-8
1501882142502495,8,-1,21,69,-1,-3,-1,12
1501882142502495,1,2,8,0,-4,-1,-1,-14
1501882142503480,-3,-1,2,-5,2,-1,-1,0
1501882142503480,-2,-2,-5,7,5,0,0,-2
1501882142525483,3,-2,-9,-37,-4,-4,-5,-3
1501882142525483,-2,0,1,-23,-1,1,0,4
1501882142526484,3,-1,-2,51,10,1,-2,-32
1501882142526484,4,-3,-8,-50,-23,-4,-1,7
1501882142539497,-14,1,-3,-16,-3,-4,-4,2
1501882142539497,9,-4,-13,8,-2,-1,0,-15
1501882142540483,-12,-3,4,-13,2,-1,0,1
1501882142540483,-9,-1,7,28,10,4,6,-58
1501882142563489,39,0,-8,-8,-5,-2,-2,17
1501882142563489,1,5,-2,-13,2,-2,1,36
1501882142563489,-21,-5,-5,27,-5,1,-2,11
1501882142563489,-25,-3,-6,19,-1,-5,-5,-44
1501882142585505,6,2,-18,-37,1,6,3,6
1501882142585505,-6,-1,22,38,3,-2,0,-8
1501882142586486,-4,-2,-2,-28,1,3,-2,17
1501882142586486,-15,-4,-6,10,-5,-2,-1,52
1501882142599527,-10,3,26,-21,-5,-6,-3,-67
1501882142599527,6,-5,-2,-7,-8,-7,-2,3
1501882142600491,7,6,2,23,7,2,4,28
1501882142600491,4,-4,10,56,8,2,-3,3
1501882142622506,16,-3,-20,-84,-7,7,4,23
1501882142622506,-20,-4,-9,24,-2,-7,-8,-23
1501882142623487,14,-4,-2,-44,-17,-12,-3,78
1501882142623487,-9,-4,6,37,7,1,-1,17
1501882142645493,0,0,-6,-23,0,-3,0,26
1501882142645493,-11,1,-11,-41,-3,3,-7,-74
1501882142646490,1,-3,-3,19,-1,2,0,-17
1501882142646490,-1,6,14,7,4,1,-1,-2
1501882142659490,-19,-4,5,28,1,-2,0,-17
1501882142659490,15,-4,-11,-2,1,1,1,48
1501882142660499,14,1,-7,-42,3,3,-1,-25
1501882142660499,-20,2,8,26,4,1,3,5
1501882142682517,-19,-6,-6,-2,-1,-4,-10,-86
1501882142682517,-1,2,-3,61,12,5,6,11
1501882142683492,14,-7,-7,-57,-19,-4,-3,-14
1501882142683492,11,-7,-34,-54,-9,-4,-3,5
1501882142705531,-14,0,-5,59,8,1,5,50
1501882142705531,22,9,17,-23,1,2,-2,-9
1501882142705531,-9,-2,-10,-14,5,0,2,-36
1501882142705531,31,4,11,6,-3,-6,-3,5
1501882142719496,-6,-5,0,3,-1,2,0,26
1501882142719496,2,1,14,-30,-4,-1,-4,-67
1501882142720494,12,3,-4,43,7,2,3,15
1501882142720494,-6,-3,-23,-25,-5,0,0,9
1501882142742494,25,1,33,40,1,-2,-1,42
1501882142742494,-4,1,-8,28,4,-1,0,20
1501882142743495,-7,-1,26,-48,-4,-5,-1,-15
1501882142743495,-6,-8,-34,-20,-1,1,-3,-10
1501882142765517,-10,2,1,24,7,5,0,-25
1501882142765517,1,-6,-21,-70,-10,-3,-1,34
1501882142766515,-7,4,1,45,0,-3,-1,1
1501882142766515,15,7,22,35,5,-2,-2,1
1501882142779497,-15,-7,-9,10,-5,-7,-5,37
1501882142779497,5,0,-3,-44,-13,-4,2,61
1501882142780497,-26,-1,-19,12,-4,0,-4,-76
1501882142780497,-17,-4,57,-10,-2,-2,-1,-15
1501882142802560,4,-5,-44,-31,-6,-2,-3,-31
1501882142802560,-9,-2,6,7,-1,-5,-3,0
1501882142803520,-1,2,-12,-4,2,2,1,13
1501882142803520,-3,1,11,28,4,0,1,-2
1501882142825501,1,-2,3,-26,0,1,-3,-10
1501882142825501,9,1,-2,-18,-5,-2,-1,22
1501882142826500,9,-2,5,-12,-2,-2,0,19
1501882142826500,6,6,1,10,5,1,1,-15
1501882142839569,0,2,11,15,3,2,5,2
1501882142839569,-21,-5,-8,3,3,3,2,24
1501882142840500,36,5,2,35,1,2,-3,-2
1501882142840500,-45,1,-18,6,-6,-8,-3,-58
1501882142862510,-8,0,10,-15,-4,3,2,11
1501882142862510,0,-3,8,-6,-4,-6,-3,0
1501882142863502,-4,-3,-10,-14,3,2,0,10
1501882142863502,10,-5,-24,-12,-2,-2,-3,19
1501882142885534,7,-3,-21,-14,-4,-4,-1,-5
1501882142885534,-6,0,20,39,1,2,0,-38
1501882142886508,-7,2,16,8,0,-2,-2,8
1501882142886508,9,-4,-19,-21,-3,-3,-2,7
1501882142899507,2,0,1,1,0,-2,-1,10
1501882142899507,6,0,-9,3,4,-4,0,11
1501882142900505,-8,-3,3,-4,-3,4,1,2
1501882142900505,8,-3,-4,-33,-2,0,-2,17
1501882142922570,1,3,11,-5,1,-2,0,-8
1501882142922570,-2,-4,-14,-3,-2,0,-3,-7
1501882142923505,-3,0,-2,6,-1,-5,0,2
1501882142923505,4,-1,-2,-4,3,9,1,2
1501882142945532,2,0,-6,13,1,0,-1,-1
1501882142945532,0,-3,7,10,-4,-1,-2,-11
1501882142946507,-9,-1,-2,1,0,-3,-3,-4
1501882142946507,6,-1,0,-4,-5,-3,-2,9
1501882142959530,-4,1,-5,-3,-3,-3,-2,-9
1501882142959530,-3,-1,-8,-14,0,2,0,-8
1501882142967529,-2,-3,9,9,-1,0,0,-2
1501882142967529,3,0,-3,-3,1,-1,1,5
1501882142982532,3,2,13,14,0,1,0,-8
1501882142982532,-3,-1,-9,-35,-7,-10,-4,-2
1501882142983511,-6,-1,-10,-9,4,2,1,-8
1501882142983511,3,-1,-12,26,-3,1,-2,-4
1501882143005574,-1,1,32,-7,-2,-3,-2,-5
1501882143005574,-4,-4,-6,11,3,4,1,-1
1501882143006512,1,-1,2,-11,-6,-5,-3,-6
1501882143006512,-1,-4,-16,-2,-7,-6,-4,-6
1501882143019514,1,2,-7,11,2,-1,0,4
1501882143019514,-3,-4,-3,-2,-3,2,-3,-18
1501882143020510,-12,1,8,5,1,-2,-1,-16
1501882143020510,49,1,3,-14,0,-1,4,96
1501882143042513,-25,0,-6,-1,1,5,2,-12
1501882143042513,-11,2,5,8,2,-2,2,-12
1501882143043516,-8,-7,-23,-20,-4,-2,-8,-6
1501882143043516,-2,5,-2,-8,3,3,3,13
1501882143065516,0,-3,16,33,1,-3,-6,-68
1501882143065516,-18,3,4,2,-3,2,-1,-19
1501882143066535,12,4,16,37,3,-1,1,25
1501882143066535,-18,-12,-1,26,3,-2,-5,-36
1501882143079515,-16,-2,-12,-64,-8,2,0,3
1501882143079515,0,-2,-5,-5,4,0,1,-34
1501882143087534,0,3,3,10,-1,-3,1,5
1501882143087534,-5,4,19,-34,-1,3,0,-22
1501882143102554,13,-4,-21,36,1,-2,-1,25
1501882143102554,7,-2,12,-7,-2,0,-1,15
1501882143103537,0,-4,-12,-35,-4,-3,-3,-5
1501882143103537,-8,2,-1,46,5,2,2,-23
1501882143125522,15,-1,2,-5,-3,-3,-3,47
1501882143125522,-30,-3,8,2,-3,-9,-6,-20
1501882143126518,26,3,4,13,-4,3,5,84
1501882143126518,-15,-8,-12,20,2,3,3,-40
