timestamp,emg1,emg2,emg3,emg4,emg5,emg6,emg7,emg8
1501880518288815,-9,-3,-33,-92,-4,-1,2,-4
1501880518288815,-8,-3,10,5,3,-5,-3,-3
1501880518295832,10,0,-1,-34,1,0,-6,-1
1501880518295832,-3,2,-3,69,1,0,-1,2
1501880518311830,8,7,22,56,6,1,1,1
1501880518311830,-6,-7,2,1,-1,-1,7,11
1501880518313822,-51,1,-1,-62,7,1,-7,-20
1501880518313822,-13,-3,-1,124,8,-3,-4,7
1501880518334817,6,1,-44,-93,-25,-6,0,-4
1501880518334817,80,4,2,-23,6,5,9,22
1501880518336821,-18,-6,22,81,-2,-4,-15,-15
1501880518336821,-22,-7,10,16,-2,0,12,-3
1501880518348817,2,1,40,81,6,1,9,-30
1501880518348817,-61,-2,-86,-118,-24,-4,-3,37
1501880518355818,62,9,5,101,6,7,20,-13
1501880518355818,-16,-13,2,-56,-7,-4,-15,21
1501880518379820,-57,3,5,32,15,2,-25,-44
1501880518379820,11,-6,12,62,-8,-9,30,1
1501880518381822,33,19,-9,-25,18,3,-11,11
1501880518381822,43,-6,18,-70,-34,-4,1,1
1501880518395825,-27,-20,-26,68,5,-5,-18,12
1501880518395825,-20,5,17,-63,9,1,2,-25
1501880518396821,-63,-13,0,6,-8,-4,-12,1
1501880518396821,40,14,9,60,28,7,13,-2
1501880518408822,39,-7,-30,-118,-20,-5,-5,25
1501880518408822,1,14,27,-24,7,4,-16,-25
1501880518415822,-30,-16,-24,-56,2,-2,6,0
1501880518415822,-2,7,25,-32,0,1,-12,-5
1501880518431824,18,2,-38,-28,-4,-3,13,-10
1501880518431824,49,-21,6,-21,-16,-6,-12,-8
1501880518433825,-5,12,6,-83,-20,-2,-10,12
1501880518433825,-35,4,-17,54,14,-5,-5,-17
1501880518454826,-4,-3,52,111,20,2,13,-1
1501880518454826,24,8,3,23,-13,1,12,-9
1501880518455826,5,-11,-56,-86,-14,-5,-6,-14
1501880518455826,26,3,44,35,-8,-6,-6,1
1501880518469826,-3,16,41,10,-4,0,3,5
1501880518469826,3,-6,-17,120,24,7,-9,13
1501880518475827,-21,-1,4,-43,-27,-2,0,3
1501880518475827,-61,6,-47,24,15,-1,-6,0
1501880518491826,1,1,-58,-83,-9,1,-21,44
1501880518491826,-33,-30,9,-94,-27,-19,15,-38
1501880518497837,6,3,42,66,16,7,-3,12
1501880518497837,9,-10,-20,6,-1,-4,-5,-11
1501880518514829,2,8,29,20,3,9,19,22
1501880518514829,-2,24,29,-84,-16,-5,-23,8
1501880518515829,-10,-24,-3,27,20,0,15,24
1501880518515829,8,-10,-91,-128,-15,-3,-3,-68
1501880518528830,34,10,87,110,3,-13,-13,7
1501880518528830,61,-9,-53,-48,-22,-1,-16,-21
1501880518535832,-67,17,94,104,14,-3,6,-37
1501880518535832,-3,-11,-61,-62,-6,1,-21,-7
1501880518551832,-54,16,16,-22,-2,8,38,2
1501880518551832,40,-1,-22,79,25,-8,-45,-34
1501880518553831,63,2,-51,-73,-17,4,46,52
1501880518553831,-34,-16,56,76,0,-1,-3,4
1501880518574838,2,-9,-14,40,-8,-3,0,-17
1501880518574838,-26,0,-1,-28,8,6,-16,-4
1501880518576841,-51,-12,-19,89,2,-8,2,-23
1501880518576841,27,14,28,-65,-6,1,2,37
1501880518588831,38,-8,-45,-128,-13,0,-4,-18
1501880518588831,-79,-1,71,127,16,-1,-7,-44
1501880518595833,0,-7,-53,-103,-7,0,-23,1
1501880518595833,56,19,38,-45,-5,4,49,6
1501880518612833,-6,-11,26,81,15,-1,-13,9
1501880518612833,40,13,-49,-107,4,7,15,95
1501880518613834,110,2,34,67,5,1,0,37
1501880518613834,-99,-24,-28,61,-24,-7,-20,21
1501880518634834,13,-7,5,-61,2,-4,7,-17
1501880518634834,-61,7,5,71,14,3,-6,27
1501880518637838,74,3,9,89,16,7,25,17
1501880518637838,18,16,118,42,1,-8,-8,-2
1501880518656839,38,-8,-27,-24,-9,-8,-16,8
1501880518656839,-84,-20,-58,26,-16,-3,11,-56
1501880518658837,-4,0,4,5,0,0,-15,4
1501880518658837,12,-1,-39,-55,10,6,12,-15
1501880518671853,-62,7,34,-30,7,0,-27,-63
1501880518671853,40,-2,-6,91,3,5,53,44
1501880518673838,-40,-4,28,13,-12,-8,-42,-15
1501880518673838,-60,-5,-47,-87,-7,-1,19,-61
1501880518694844,12,-3,28,63,-3,-1,-12,6
1501880518694844,-24,1,26,69,2,-3,8,-9
1501880518695839,-13,-9,-53,-13,-8,0,-4,-26
1501880518695839,-12,-4,-27,-13,8,1,0,39
1501880518708841,13,-12,-25,31,-1,-4,-5,26
1501880518708841,0,6,11,-41,-29,-4,-16,-58
1501880518715848,-6,-3,9,61,9,-7,-2,-6
1501880518715848,44,3,31,40,14,-1,-5,8
1501880518731848,-25,-7,-3,26,-1,3,22,6
1501880518731848,38,16,45,-65,15,5,-6,19
1501880518733843,45,-16,-23,-93,-3,-3,1,-6
1501880518733843,-28,-5,-33,23,-7,-8,-6,-7
1501880518754843,21,2,19,14,4,5,10,25
1501880518754843,-40,-11,-20,-70,-4,-6,-6,13
1501880518755846,20,11,-24,-74,-1,3,-9,15
1501880518755846,18,0,12,-42,3,6,-6,-14
1501880518768852,37,-7,27,-39,-7,-1,19,12
1501880518768852,-11,8,22,30,1,2,-9,3
1501880518776844,10,16,11,44,9,2,13,24
1501880518776844,10,-21,-54,-68,-13,-3,-9,-39
1501880518791846,-45,0,-19,22,-4,-4,-10,-7
1501880518791846,51,-6,1,78,9,5,7,3
1501880518793848,-40,-7,-8,17,-7,-3,-5,-15
1501880518793848,26,22,95,127,2,-5,-8,23
1501880518822885,-6,-5,-11,79,24,4,8,40
1501880518822885,32,-18,-89,-107,-51,-11,-6,-38
1501880518823866,-58,3,8,-26,5,3,2,-15
1501880518823866,-14,8,-10,35,5,4,-3,22
1501880518827846,-25,4,-37,-30,9,-5,-9,-47
1501880518827846,-19,19,104,-14,4,1,25,62
1501880518836852,28,-23,-39,-85,-27,-12,2,3
1501880518836852,86,7,18,67,22,11,2,39
1501880518851848,3,-5,-7,-64,-48,-8,-6,0
1501880518851848,-14,-2,-7,44,12,1,-14,25
1501880518853852,-31,10,4,-44,4,0,-22,-61
1501880518853852,10,-4,-2,47,-1,2,53,22
1501880518874890,26,0,5,90,6,-4,-5,4
1501880518874890,14,-13,-11,19,18,3,5,6
1501880518875850,-44,8,72,42,-19,2,-4,6
1501880518875850,8,-26,-112,42,-5,-8,-23,-12
1501880518887890,6,-3,-35,-69,-10,-3,-3,4
1501880518887890,31,0,-38,-34,8,4,8,86
1501880518897859,-26,-5,0,-47,13,1,10,-24
1501880518897859,-46,9,-2,54,-19,-8,-20,-53
1501880518911852,21,3,39,51,16,5,8,-21
1501880518911852,-45,-11,-46,-6,-33,-11,-17,-62
1501880518913852,21,6,8,54,14,0,3,14
1501880518913852,22,0,42,-128,-11,4,-7,32
1501880518934891,-13,-4,-7,46,2,-9,4,-8
1501880518934891,-65,0,-47,-47,7,2,-3,-23
1501880518936854,25,6,24,49,1,-1,8,6
1501880518936854,-28,-17,-9,33,-1,-4,-10,-15
1501880518947883,-16,-9,-61,-101,-1,4,-7,-54
1501880518947883,5,8,54,-56,-6,-1,0,0
1501880518956853,24,-5,-37,9,-12,-7,-18,32
1501880518956853,-19,-2,2,7,-2,-1,49,40
1501880518971874,43,6,-6,-34,1,0,-4,64
1501880518971874,-15,-6,6,65,15,4,3,-46
1501880518973871,15,2,-37,-14,9,-2,-13,-20
1501880518973871,37,-3,74,93,-2,-4,-8,54
1501880518993857,-76,0,-16,-59,-13,2,0,-50
1501880518993857,3,22,83,4,11,5,-6,-15
1501880519001857,17,-25,-20,1,-13,-12,-5,49
1501880519001857,21,18,21,-23,16,4,-7,32
1501880519007874,-26,-4,9,20,-12,0,8,-25
1501880519007874,-9,-2,36,22,4,0,-7,-27
1501880519016862,-14,-2,-21,-24,-4,3,4,-71
1501880519016862,-25,-2,-77,-95,-11,-9,-10,-19
1501880519031880,25,-4,26,-17,2,-2,-9,15
1501880519031880,18,0,-10,-31,-11,-2,1,42
1501880519033858,-54,1,45,55,10,6,6,-37
1501880519033858,-9,1,-35,-79,-2,-1,-2,-43
1501880519054878,28,7,22,61,11,2,-7,23
1501880519054878,85,-2,-25,-21,-3,0,2,66
1501880519056859,-3,4,-9,-61,2,1,10,46
1501880519056859,-8,1,-16,10,-1,2,-4,-15
1501880519067861,-41,7,-11,58,8,3,5,-30
1501880519067861,-23,-13,13,6,-11,-10,-11,-25
1501880519076861,15,9,43,106,14,6,7,14
1501880519076861,-18,-14,-39,-105,-20,-7,-15,-73
1501880519099885,68,13,6,-6,1,3,4,32
1501880519099885,-66,-17,22,25,-7,-4,2,-5
1501880519100862,-42,-6,-61,-36,-14,-10,-7,-18
1501880519100862,4,-4,-18,-16,-4,-2,-8,-8
1501880519114864,3,-5,4,98,9,-1,1,-33
1501880519114864,10,-1,-8,-78,-28,-4,-1,3
1501880519120882,-19,-9,-12,34,9,4,0,-32
1501880519120882,21,9,57,3,0,0,-2,33
1501880519127863,-2,8,33,31,2,2,3,4
1501880519127863,14,-6,-32,42,10,1,6,-7
1501880519136876,34,8,-4,-107,-11,0,-2,28
1501880519136876,-4,-13,-4,112,11,-2,-9,-18
1501880519151864,-32,1,6,-57,-1,0,1,-9
1501880519151864,24,4,-11,45,7,-3,-5,-45
1501880519153869,25,-4,12,-17,-2,3,18,114
1501880519153869,29,13,44,1,-3,1,-1,-30
1501880519174905,-23,-22,-56,-64,-12,-6,-1,35
1501880519174905,-8,3,8,33,10,-3,-10,-7
1501880519175868,-19,1,-1,18,0,-6,-10,-5
1501880519175868,38,5,-13,-26,5,3,4,6
1501880519196898,9,3,54,-10,-6,-3,-6,12
1501880519196898,50,-7,-13,26,-1,-2,0,49
1501880519198875,-13,13,32,39,7,-1,1,-30
1501880519198875,-30,-14,-34,51,1,4,6,5
1501880519211869,-7,3,-23,-45,-1,-4,-11,-27
1501880519211869,-54,-11,-39,-4,0,-3,6,-17
1501880519213869,37,12,16,-24,-9,-3,-5,-32
1501880519213869,-4,-1,31,41,11,3,7,11
1501880519234911,10,-7,25,-79,-25,-4,-5,21
1501880519234911,-31,6,22,24,2,-4,-7,-78
1501880519236870,5,-3,-25,-4,1,2,1,0
1501880519236870,-8,5,2,6,3,2,-2,3
1501880519257871,1,5,13,0,12,2,4,-16
1501880519257871,-6,-3,-3,19,1,-1,2,48
1501880519262875,-27,-3,6,34,11,0,-4,-10
1501880519262875,36,7,2,22,-13,-3,-1,13
1501880519271886,-16,1,-2,54,-3,-4,2,31
1501880519271886,-6,-5,14,8,-6,0,1,-1
1501880519273891,-66,-9,-30,27,3,-5,-8,-59
1501880519273891,-9,0,47,41,9,1,0,15
1501880519294877,-1,-7,-89,-50,-7,-4,-4,-3
1501880519294877,3,5,67,79,13,5,6,23
1501880519295882,85,3,-9,-102,-12,0,-4,42
1501880519295882,-37,-14,-40,25,-13,-16,-17,-30
1501880519316898,54,10,29,-23,-1,5,16,24
1501880519316898,-63,-12,-37,-28,-3,-1,-4,-42
1501880519318877,21,11,54,22,6,2,0,22
1501880519318877,-20,-9,-8,49,7,5,-2,12
1501880519331880,-3,11,0,-45,-23,-10,-3,-27
1501880519331880,114,-4,-15,-24,8,3,4,90
1501880519333876,-71,-10,-26,-49,-22,-7,4,3
1501880519333876,-20,-5,-59,-78,-4,-2,-1,-18
1501880519354878,7,-7,29,57,0,0,-6,41
1501880519354878,25,5,-6,-36,3,6,5,-16
1501880519355879,16,2,-30,15,-3,0,1,-17
1501880519355879,16,-8,-2,-92,-8,-3,0,-25
1501880519376879,-10,5,21,82,11,1,0,10
1501880519376879,-27,0,-22,-107,1,-1,-2,-20
1501880519378879,20,-4,9,109,-11,-3,-6,5
1501880519378879,-35,11,51,-17,11,7,8,26
1501880519390879,-7,-30,-82,-9,-16,-9,-9,-23
1501880519390879,8,18,75,73,14,4,2,-14
1501880519397886,9,-6,-48,49,4,2,-2,-10
1501880519397886,10,-3,-24,-82,-15,-2,-2,13
1501880519414881,-17,6,20,2,7,4,1,-23
1501880519414881,-4,-7,-8,26,-16,-8,-4,14
1501880519415881,6,-6,14,81,15,2,4,23
1501880519415881,19,1,11,-19,-19,-4,-5,-31
1501880519436882,2,4,-13,-57,-16,0,4,0
1501880519436882,-5,-10,-12,21,-4,-3,-3,25
1501880519438882,31,3,53,53,10,2,-2,-2
1501880519438882,-36,-9,-42,-12,-6,-7,9,-18
1501880519450885,-12,17,30,2,6,6,2,5
1501880519450885,-21,-20,-48,28,-6,-7,-10,-21
1501880519465884,27,3,20,-45,-5,0,6,39
1501880519465884,-24,-4,-10,60,7,0,-13,-34
1501880519474888,-9,4,16,-78,9,5,4,-31
1501880519474888,53,11,7,82,6,3,5,88
1501880519476887,-64,-5,-17,-100,-16,-7,-4,-26
1501880519476887,17,-1,1,42,8,2,-4,22
1501880519496886,0,4,53,56,19,4,12,-4
1501880519496886,-31,-9,-41,39,-8,-2,-4,-18
1501880519498886,44,-19,18,-67,-18,-8,-2,24
1501880519498886,-10,11,13,60,18,9,9,54
1501880519511896,-6,-6,-12,-25,-11,-6,-11,4
1501880519511896,-7,7,0,-32,-2,-1,3,-37
1501880519517887,-12,8,-14,-19,-3,0,-2,-25
1501880519517887,23,2,42,4,2,3,5,49
1501880519534888,39,-5,15,100,13,0,-3,4
1501880519534888,-28,5,-11,10,10,0,-6,-55
1501880519536888,8,-6,-6,3,-19,-6,-4,28
1501880519536888,0,2,67,110,12,2,-14,-57
1501880519556891,-20,-6,-34,-19,2,-1,5,-12
1501880519556891,38,4,-19,53,2,-5,0,57
1501880519558889,-6,0,-2,3,13,3,-4,-43
1501880519558889,-8,-6,-19,-72,-14,-8,-4,30
1501880519570890,-10,-5,-12,10,5,1,-4,-69
1501880519570890,25,3,12,-62,-11,1,-1,3
1501880519577891,-35,-2,5,-25,-3,0,-4,-28
1501880519577891,13,6,-8,5,1,-2,2,13
1501880519594893,35,-12,-11,17,-2,-2,-10,33
1501880519594893,-18,11,26,-67,2,6,10,-7
1501880519595893,0,-5,-51,28,-2,-3,2,-18
1501880519595893,-15,-2,-16,0,-14,-6,4,-47
1501880519616919,-9,-12,-41,96,10,0,-4,-2
1501880519616919,0,11,2,-97,-22,-5,-6,-8
1501880519618893,-10,-12,7,-32,7,-2,1,-6
1501880519618893,7,2,-8,57,-3,2,6,2
1501880519630895,-20,-1,25,67,2,-2,-3,22
1501880519630895,4,-7,-8,-63,-5,2,0,-4
1501880519637908,-22,1,-8,-9,-9,-6,-8,-5
1501880519637908,29,0,-31,7,8,1,4,21
1501880519654895,2,-1,-8,-40,-13,-3,-1,16
1501880519654895,-28,-7,-16,-33,0,-2,0,7
1501880519655896,36,8,35,125,21,7,-1,-8
1501880519655896,13,-8,3,-114,-25,-10,-4,51
1501880519676896,-5,12,-13,-13,-4,0,3,3
1501880519676896,-4,-10,8,9,-8,-4,-3,-82
1501880519678895,-3,6,38,39,11,6,-1,28
1501880519678895,-2,2,34,-18,11,3,-2,2
1501880519699899,-15,-3,-15,-55,-4,-2,2,19
1501880519699899,68,2,-11,20,2,2,4,19
1501880519700898,6,-6,-6,5,-3,-1,-1,-5
1501880519700898,-30,-7,9,-9,4,0,-3,-24
1501880519714899,-10,4,-17,-39,-13,-5,-7,-5
1501880519714899,-24,-4,17,10,-4,-1,-1,-50
1501880519716899,-16,6,-11,-27,-10,-5,-3,-14
1501880519716899,37,-4,-28,3,7,2,4,12
1501880519736914,11,-9,28,71,6,-2,-6,-38
1501880519736914,-22,8,44,-4,-2,-1,-1,44
1501880519744900,13,0,-1,-23,-5,-2,-1,-1
1501880519744900,-15,-7,-22,-15,-7,-5,-2,-47
1501880519750901,9,3,-46,3,0,1,5,6
1501880519750901,-14,2,-11,-28,6,1,-3,-7
1501880519759902,-14,-1,9,76,-1,-1,0,4
1501880519759902,-13,-2,-9,-93,-8,-4,-6,8
1501880519774943,-15,-6,2,-36,-10,-2,-5,-15
1501880519774943,14,-1,14,71,10,-4,10,30
1501880519775907,0,0,-26,-6,-12,-1,-8,11
1501880519775907,-4,19,38,-33,-4,2,0,-8
1501880519796903,-26,-21,-19,-94,-22,-5,-2,-50
1501880519796903,-41,-1,-18,11,7,1,2,-14
1501880519798914,8,0,-20,-76,2,0,0,-14
1501880519798914,30,-3,22,127,2,-3,-4,45
1501880519810903,-14,6,-7,-12,7,3,-3,21
1501880519810903,41,7,21,-12,3,2,-3,-42
1501880519819906,-1,-1,-1,51,6,-1,2,-13
1501880519819906,-27,-12,-27,-85,-16,-7,-6,8
1501880519834942,10,0,27,43,10,2,2,16
1501880519834942,-13,-4,-13,-24,-11,-4,-7,27
1501880519836906,-16,-5,11,-46,-3,1,1,-36
1501880519836906,-21,3,-31,69,10,3,4,-40
1501880519856927,18,1,69,88,6,2,0,-12
1501880519856927,-25,0,-49,-58,-19,-6,-5,0
1501880519858910,6,8,22,31,-2,1,0,26
1501880519858910,-16,-5,-21,-25,-1,1,6,-2
1501880519879909,-1,0,51,3,12,0,1,12
1501880519879909,30,9,-10,91,7,4,-1,39
1501880519880912,-15,-1,8,-31,-8,-3,6,40
1501880519880912,-10,-3,-5,-10,6,-1,-3,-19
1501880519894909,-2,6,16,20,4,0,4,82
1501880519894909,10,-9,-14,-6,-1,-3,-4,14
1501880519895908,-25,-9,-26,-15,4,-1,-7,-46
1501880519895908,21,7,43,2,-3,2,1,-15
1501880519916927,25,-2,-46,-97,-11,1,1,11
1501880519916927,-42,-9,16,27,6,3,0,-11
1501880519918928,9,-10,-17,32,-1,-8,-1,14
1501880519918928,-27,5,15,-28,6,4,1,-4
1501880519930932,52,-2,-34,46,-6,-5,-3,-15
1501880519930932,14,2,24,-89,-17,-1,1,-10
1501880519939933,31,4,14,56,11,4,3,45
1501880519939933,25,0,10,-63,-6,1,11,56
1501880519954912,13,11,21,92,-9,-5,-3,-18
1501880519954912,-36,-29,-78,-9,-4,-7,-4,0
1501880519955914,9,8,-2,-42,-6,1,0,-8
1501880519955914,3,1,12,-22,8,1,-2,2
1501880519976970,-21,-13,-27,33,-2,-4,-5,-10
1501880519976970,23,5,45,125,4,-2,-2,13
1501880519978917,37,2,-3,-96,-19,-6,1,26
1501880519978917,-9,1,-5,84,7,1,-9,-18
1501880519990917,-21,-10,-3,-108,-9,-3,-3,-17
1501880519990917,35,9,16,3,19,8,3,14
1501880519999917,-23,-5,-20,22,-12,-3,-3,-48
1501880519999917,19,1,26,36,-2,-2,-2,-13
1501880520015929,-8,3,12,10,3,2,4,12
1501880520015929,30,-2,-28,-17,-1,-1,-1,29
1501880520020957,-11,1,-7,1,7,-2,-3,-12
1501880520020957,7,1,10,-2,2,-1,4,15
1501880520036955,-22,-8,13,55,-4,-1,-4,-22
1501880520036955,-22,-1,-39,-90,-12,-4,-1,-33
1501880520042917,25,-1,5,46,3,5,-1,-10
1501880520042917,-94,-6,11,3,-2,-1,0,-95
1501880520050918,19,-3,-40,-36,8,-6,-4,24
1501880520050918,7,3,8,4,2,-2,0,-39
1501880520066920,-27,8,58,-33,5,2,0,-11
1501880520066920,29,-11,-83,-75,-11,-2,0,37
1501880520074955,-13,5,32,103,9,-5,-3,-18
1501880520074955,-13,1,36,11,-4,-1,-7,-18
1501880520075921,1,8,3,-10,4,-2,0,28
1501880520075921,20,-3,-40,-27,-9,-3,0,23
1501880520096938,-6,-12,-45,-39,-2,3,2,11
1501880520096938,55,0,33,43,6,-2,0,28
1501880520098942,4,3,-27,-8,2,0,-2,-10
1501880520098942,-13,4,14,93,3,0,-1,13
1501880520110921,18,4,12,-45,-10,-5,-3,-39
1501880520110921,-54,-5,-20,-20,-1,1,4,-13
1501880520119926,-27,-14,-6,45,7,-3,-8,13
1501880520119926,17,2,31,10,1,3,4,-9
1501880520134959,11,-2,-39,-21,-12,-3,1,42
1501880520134959,-36,6,56,35,5,0,0,-32
1501880520136943,13,-13,-13,50,2,0,-1,0
1501880520136943,4,-3,-2,-42,-5,0,-7,-2
1501880520156944,-21,9,41,13,7,3,-1,4
1501880520156944,34,-8,-68,-43,-5,-1,6,61
1501880520158924,-4,-2,31,38,-7,-5,-1,2
1501880520158924,15,1,6,-22,2,-2,-3,25
1501880520179926,-9,-2,-1,22,6,6,1,-7
1501880520179926,7,4,-8,-46,-3,0,-1,0
1501880520180927,-6,0,-2,-17,-3,2,-1,37
1501880520180927,10,-1,14,31,1,-3,-3,-5
1501880520194933,-10,-2,-28,-18,2,-1,2,-32
1501880520194933,-4,6,19,17,3,-1,1,57
1501880520195926,-13,-4,17,1,-12,-3,1,-23
1501880520195926,2,-2,-45,-22,2,0,-2,-10
1501880520216935,-43,-3,33,60,1,-3,-5,-19
1501880520216935,-10,4,3,-35,-12,-5,-5,-5
1501880520218928,1,-4,-10,25,3,0,1,1
1501880520218928,-31,3,10,-4,-2,-3,-12,-64
1501880520239958,11,4,1,-15,-3,-2,0,-19
1501880520239958,-21,-3,-18,38,13,5,2,-33
1501880520240929,-16,8,8,-62,-7,1,-1,-24
1501880520240929,-36,-16,-20,52,-9,-9,-8,14
1501880520254931,21,3,-55,-128,-7,-1,-2,-2
1501880520254931,-29,-4,86,115,13,2,1,-12
1501880520255929,13,-6,-49,-73,-8,2,1,6
1501880520255929,6,3,31,44,14,4,6,13
1501880520276994,3,-8,-20,-44,-2,-3,-5,1
1501880520276994,34,-1,-20,-50,-12,-3,-3,26
1501880520278931,-35,1,15,10,1,-1,-3,-72
1501880520278931,31,-1,-9,-12,-3,-2,0,3
1501880520306934,-12,3,29,13,3,4,4,17
1501880520306934,-2,0,-35,63,0,-2,-5,-35
1501880520308933,0,-12,-20,-91,-19,-7,-2,21
1501880520308933,51,4,12,67,2,0,-1,63
1501880520321972,-4,5,-2,61,8,0,5,-25
1501880520321972,-13,-4,6,-35,-19,-5,-7,-7
1501880520323934,22,-5,-24,-11,0,-3,0,18
1501880520323934,-4,3,32,3,3,4,2,8
1501880520337991,11,-1,-3,1,-1,2,-3,24
1501880520337991,-16,-1,-12,-2,2,1,2,-38
1501880520339973,16,0,-33,-20,7,-2,3,41
1501880520339973,-47,-10,-42,-86,-21,-8,-9,-37
1501880520359936,29,8,36,47,12,4,0,6
1501880520359936,6,-5,11,-64,-12,0,1,27
1501880520360936,-5,9,33,-74,2,1,-3,-16
1501880520360936,-24,-6,-27,53,-1,-2,-1,-17
1501880520373989,-20,5,4,-10,-3,1,-2,0
1501880520373989,2,-9,2,-34,-1,-8,-7,-5
1501880520380939,5,-6,-2,83,3,-2,-4,-4
1501880520380939,28,-4,-10,8,6,2,7,11
1501880520396942,-13,-3,19,26,-7,-2,-3,-5
1501880520396942,-8,0,-15,-74,1,2,0,-18
1501880520398944,-3,-2,-15,-11,-12,-4,-3,56
1501880520398944,-27,1,16,51,5,-1,-2,-49
1501880520419952,-5,-5,-3,9,-5,-3,-3,-21
1501880520419952,51,8,8,40,2,0,-1,20
1501880520420942,3,0,1,-9,6,3,4,16
1501880520420942,-8,1,8,78,-5,0,-1,-22
1501880520441943,-23,-2,3,-34,3,-3,-2,24
1501880520441943,-13,-6,0,-3,-7,-4,-8,-15
1501880520443941,17,9,18,100,9,6,3,-13
1501880520443941,15,2,6,11,-4,0,6,15
1501880520456941,-15,-9,-30,-35,-5,-6,-5,-10
1501880520456941,0,4,28,44,4,1,5,-9
1501880520458942,-25,-4,4,-21,-2,1,-2,-19
1501880520458942,23,4,-7,-22,4,0,1,5
1501880520479944,0,-6,-17,3,-7,-1,1,55
1501880520479944,17,1,22,46,9,1,2,-2
1501880520480943,-9,-11,-70,-56,-13,-7,-1,-12
1501880520480943,-5,-5,13,-56,-3,-2,-5,-5
1501880520493944,17,-3,-25,-4,0,1,5,31
1501880520493944,-22,5,-7,-36,-2,1,-3,-67
1501880520507950,0,5,21,49,15,4,4,-16
1501880520507950,-2,-20,-34,-65,-18,-11,-5,31
1501880520516944,11,1,0,-25,-11,-2,-1,-35
1501880520516944,-8,-1,3,22,8,2,3,26
1501880520518955,17,3,14,28,7,0,-1,3
1501880520518955,-9,6,5,31,11,5,2,-11
1501880520538945,7,-4,11,-89,-10,-4,0,56
1501880520538945,12,-3,-32,-16,4,2,4,26
1501880520540946,26,-4,8,67,-5,-5,-6,4
1501880520540946,-33,-3,-11,-96,-21,-6,-5,7
1501880520553949,-2,2,16,125,9,1,-5,-15
1501880520553949,-11,-9,-18,-71,-12,-3,-4,-22
1501880520560947,-10,-6,-21,-4,-2,0,1,5
1501880520560947,10,7,18,41,7,3,-2,-12
1501880520576948,-1,-8,-23,-62,-8,-5,-4,-5
1501880520576948,27,5,5,4,-7,0,6,87
1501880520578950,-2,-3,14,37,13,0,-2,-60
1501880520578950,6,5,28,-71,-13,-2,-5,16
1501880520599954,3,-3,-19,-29,-2,3,4,33
1501880520599954,-34,0,11,66,4,-1,2,-39
1501880520600949,-19,-2,-5,-18,-3,1,1,2
1501880520600949,21,3,2,42,13,2,2,6
1501880520621966,13,-3,27,-50,-3,0,-2,-20
1501880520621966,4,-3,-38,-46,0,-2,-6,-6
1501880520623953,-6,2,24,5,-10,-6,-4,11
1501880520623953,-21,-1,8,55,11,4,-1,-5
1501880520636965,20,6,17,-10,-17,-3,1,-22
1501880520636965,21,-3,-14,38,1,1,-2,-15
1501880520638953,-41,-2,-18,-95,-1,0,0,49
1501880520638953,9,8,54,90,2,-1,0,-12
1501880520658955,-41,-10,-28,-9,5,-3,-3,-34
1501880520658955,9,1,31,43,2,-2,-5,-12
1501880520660954,17,5,17,-36,11,6,4,24
1501880520660954,11,-4,-2,-57,-29,-10,-6,-11
1501880520672968,19,6,-43,70,14,3,0,20
1501880520672968,-41,-8,-11,16,-14,-7,1,10
1501880520681955,-8,-9,2,2,-2,-1,-4,-38
1501880520681955,5,5,2,-28,7,1,1,-12
1501880520696957,-9,2,13,14,3,0,-2,22
1501880520696957,-23,-4,-7,40,7,-1,1,-39
1501880520698956,17,6,13,2,2,-3,-1,-21
1501880520698956,-2,-3,-27,-45,-5,0,3,7
1501880520718971,4,-3,-12,1,-5,-1,0,4
1501880520718971,1,2,15,-70,11,2,1,11
1501880520720960,7,-1,5,77,-7,-4,-2,-21
1501880520720960,17,-4,-17,12,4,0,-2,-2
1501880520732972,-28,2,29,33,7,0,-4,-34
1501880520732972,-6,-5,-17,-51,-5,-2,-4,8
1501880520741958,19,6,1,14,5,5,8,5
1501880520741958,-23,-17,-23,0,-15,-6,-4,-5
1501880520756959,-10,-18,-62,-78,-22,-10,-7,-79
1501880520756959,24,21,43,42,7,1,1,13
1501880520758959,-9,-1,6,86,-1,-1,-4,8
1501880520758959,19,6,-5,-50,1,5,7,7
1501880520786975,-27,5,71,22,3,1,2,-11
1501880520786975,-6,-16,-75,-48,-18,-2,-7,-52
1501880520788962,-6,1,6,-60,-4,-4,-1,8
1501880520788962,3,-4,10,87,21,0,0,2
1501880520792962,12,4,-7,-16,-4,2,2,4
1501880520792962,2,6,1,16,6,1,0,24
1501880520801961,-2,-5,-10,48,7,3,1,35
1501880520801961,16,2,-1,-10,-11,-5,-3,5
1501880520815963,-27,-1,2,-48,3,-2,3,-1
1501880520815963,-4,-1,42,49,2,-1,-3,-90
1501880520824964,-23,-6,-33,33,-4,-3,-7,-15
1501880520824964,7,0,-19,-78,1,-1,3,7
1501880520838963,20,-4,19,52,-4,-3,-3,29
1501880520838963,1,3,25,-17,-9,-2,0,1
1501880520840963,12,-5,-21,-12,-6,-2,-4,-5
1501880520840963,8,7,7,-15,1,-2,-4,-4
1501880520852965,-6,-4,-15,12,4,3,2,6
1501880520852965,-12,-8,-17,-55,5,-1,-2,16
1501880520861965,4,15,31,49,-9,0,1,-6
1501880520861965,-13,-26,-65,-65,-20,-9,-9,-11
1501880520877967,-2,5,-32,72,2,0,-2,-52
1501880520877967,8,2,23,42,6,-1,-3,22
1501880520878966,-18,-10,-9,-44,3,0,-2,-18
1501880520878966,-11,5,-13,10,15,4,3,11
1501880520906969,-20,-5,-22,-64,-13,-4,-3,4
1501880520906969,73,-3,-15,-17,-8,-3,-2,21
1501880520908971,-3,2,16,14,2,2,1,-12
1501880520908971,17,5,32,48,10,1,0,6
1501880520912968,-20,-13,-10,38,-3,-4,-3,15
1501880520912968,16,10,17,28,5,0,3,24
1501880520921969,-32,-5,-15,-108,-15,-4,-2,-3
1501880520921969,22,-8,6,15,3,0,-2,13
1501880520936984,-19,2,31,-5,-7,-3,-4,-23
1501880520936984,-8,-10,-28,28,-8,-6,-2,-1
1501880520938986,3,-4,-16,-34,0,1,-3,-3
1501880520938986,-16,6,23,9,-2,2,0,-9
1501880520958972,6,1,-9,15,9,2,1,23
1501880520958972,3,-3,-17,91,-1,-1,-1,11
1501880520960971,14,-3,16,-25,0,-1,0,11
1501880520960971,-9,-6,14,-18,-3,-2,-5,-22
1501880520972971,-11,2,3,-15,4,1,2,10
1501880520972971,13,7,4,-14,0,0,-1,4
1501880520981973,12,6,29,45,10,7,4,-5
1501880520981973,-36,-4,-20,27,-5,0,0,6
1501880520996976,25,14,32,28,7,2,1,-29
1501880520996976,21,-18,-31,-16,-2,-4,-6,10
1501880520998973,10,2,-8,-2,-5,-5,0,12
1501880520998973,-8,-2,-5,16,4,1,1,7
1501880521018990,22,1,4,-43,0,-2,-2,6
1501880521018990,-60,3,43,26,8,4,3,-2
1501880521020977,25,-7,-40,-21,-1,-6,-4,-4
1501880521020977,1,2,7,3,1,-1,4,20
1501880521032977,20,1,-7,-33,1,1,-1,5
1501880521032977,-10,2,-2,29,-3,0,-1,-7
1501880521041975,-4,-8,31,9,1,-3,-5,9
1501880521041975,-40,1,-8,12,-5,-2,-1,-15
1501880521056981,26,1,-16,-26,-8,-1,-1,8
1501880521056981,-17,-2,20,-9,-4,-8,-5,0
1501880521058977,-1,6,-7,37,-4,-2,1,-4
1501880521058977,17,-4,1,-43,1,2,1,-1
1501880521079984,2,0,17,-2,5,2,0,4
1501880521079984,-33,-5,-19,-5,-10,-3,-5,-6
1501880521081978,5,-2,-1,-23,-2,-5,-4,2
1501880521081978,-41,7,26,-14,2,3,2,-12
1501880521101979,29,-1,-18,41,-3,-4,0,14
1501880521101979,-11,-6,-15,-58,-2,2,0,-8
1501880521104000,2,-3,3,48,9,-1,1,-4
1501880521104000,1,-2,14,-51,-21,-2,-2,4
1501880521117025,-12,-5,-4,23,-1,-3,-2,-12
1501880521117025,11,7,4,-78,1,1,2,10
1501880521119017,-12,-11,-34,15,-9,-4,-3,-24
1501880521119017,27,4,15,15,9,0,-6,23
1501880521139998,16,1,14,12,0,-1,0,3
1501880521139998,-13,-5,-21,-27,1,-1,0,-12
1501880521140999,-16,-2,5,29,-4,-2,-4,-34
1501880521140999,-2,2,-4,59,14,3,2,13
1501880521161984,-1,-1,-6,-29,-28,-6,-6,-3
1501880521161984,-3,-7,1,-13,-3,-2,2,-36
1501880521163983,-19,8,6,-104,-4,3,4,6
1501880521163983,-5,-9,-13,15,1,-1,0,-12
1501880521176019,21,0,4,21,10,-2,-1,40
1501880521176019,-21,-12,-22,96,-2,-5,-5,-5
1501880521182984,-26,9,-25,-25,-17,-3,0,-44
1501880521182984,-20,-10,2,2,0,-4,-7,-15
1501880521198985,2,-1,-40,-73,-1,0,0,15
1501880521198985,14,8,-12,22,12,6,5,11
1501880521200987,8,-4,36,65,-12,-4,-2,9
1501880521200987,-2,4,-11,-2,-6,-1,0,-14
1501880521222039,15,-4,-18,-36,-11,-3,-2,-8
1501880521222039,-54,-8,15,48,8,1,-1,-7
1501880521223986,40,1,5,-19,6,0,0,83
1501880521223986,12,-3,18,78,10,2,-1,-30
1501880521237007,-8,-10,-21,-79,-13,-5,-3,-7
1501880521237007,53,8,9,-46,-9,-2,2,77
1501880521238989,-10,2,-2,17,6,3,6,-26
1501880521238989,18,-1,-7,-27,-10,-3,0,0
1501880521259010,-25,0,8,16,17,5,3,48
1501880521259010,-10,1,13,99,0,-2,-4,-42
1501880521265989,-3,2,34,-51,1,0,-3,-55
1501880521265989,-17,1,-22,17,3,-5,-6,-18
1501880521281992,2,1,27,17,-2,1,1,-29
1501880521281992,14,4,-14,-20,-7,-2,0,21
1501880521284006,-6,-7,3,0,5,2,3,77
1501880521284006,-23,13,19,60,12,3,3,-54
1501880521295992,14,-7,-7,6,-8,-5,-3,9
1501880521295992,-35,-3,9,-54,-12,-7,-8,-61
1501880521303011,29,-3,9,10,8,0,-5,75
1501880521303011,9,-1,-22,22,-4,1,4,43
1501880521319992,-24,2,1,50,7,-2,-3,-52
1501880521319992,20,2,2,-65,-12,-1,3,42
1501880521326032,-25,0,11,50,6,0,1,-51
1501880521326032,14,-1,10,-81,-17,-5,-7,-25
1501880521341996,-27,-6,-25,57,6,1,1,-23
1501880521341996,10,-1,2,-28,-1,0,-1,-9
1501880521343993,-33,0,-10,-6,1,-2,-8,-55
1501880521343993,9,2,-9,9,-7,-3,-4,33
1501880521355993,-35,-1,26,-13,3,2,1,-44
1501880521355993,40,-1,1,105,5,-4,-3,85
1501880521362996,7,-1,-35,-79,-20,-3,-3,-9
1501880521362996,1,5,29,10,7,4,3,9
1501880521379995,60,-3,-15,-53,-13,-4,-3,18
1501880521379995,-13,-3,-15,4,4,0,1,-1
1501880521381997,-2,-7,1,10,-11,-3,-1,-29
1501880521381997,18,10,-2,-80,12,3,0,12
1501880521408998,-12,-8,11,101,-2,-3,2,23
1501880521408998,5,9,43,31,9,1,1,-1
1501880521410997,18,-8,-39,-68,-4,-3,-3,-16
1501880521410997,4,0,27,98,7,3,4,0
1501880521423998,-56,-3,-23,-67,-10,-5,-7,-97
1501880521423998,14,4,-1,-38,0,4,8,25
1501880521425999,9,-1,8,28,9,0,-1,36
1501880521425999,61,-5,-14,-11,-7,1,5,33
1501880521438999,-9,4,18,57,8,2,4,59
1501880521438999,-9,5,8,-41,-5,0,-4,-57
1501880521441000,14,-2,21,38,6,2,7,70
1501880521441000,-21,-10,-15,24,7,0,-2,-32
1501880521462000,55,18,9,-29,-16,1,5,-1
1501880521462000,-19,0,-8,34,2,1,-1,-21
1501880521464000,-19,-3,0,1,-1,-4,-2,-7
1501880521464000,-4,-7,2,-12,3,-2,-1,33
1501880521476002,-51,-1,-11,-29,-2,-2,-4,-6
1501880521476002,-3,-6,-14,-12,1,-1,-1,-16
1501880521483005,28,13,38,-11,5,3,2,-6
1501880521483005,-23,-8,-36,-3,-17,-3,-3,14
1501880521499004,-7,-4,44,40,19,-1,-5,7
1501880521499004,16,5,-30,18,2,1,1,-5
1501880521501002,29,3,-8,-57,-7,-5,-4,-4
1501880521501002,-35,-11,-8,73,-15,-9,-8,-45
1501880521522005,-7,1,24,-6,11,3,3,34
1501880521522005,13,-19,-37,0,-19,-9,-8,18
1501880521524005,-41,7,3,30,5,3,0,-62
1501880521524005,5,5,-10,-51,-1,0,-1,-32
1501880521536005,13,8,13,27,10,1,-1,18
1501880521536005,0,-3,-15,-20,1,2,2,-15
1501880521543007,-11,-3,-17,75,6,1,-3,-20
1501880521543007,-1,-9,-17,-82,-17,-4,0,8
1501880521559006,13,1,23,45,6,0,-2,2
1501880521559006,18,-5,-16,-59,2,-1,1,-6
1501880521561006,-20,0,-11,-35,-7,-4,-2,60
1501880521561006,19,0,-1,64,1,1,4,1
1501880521582007,29,2,31,34,4,2,1,6
1501880521582007,-15,5,8,-44,-4,0,1,-6
1501880521584009,-31,-7,0,47,-6,-4,-3,4
1501880521584009,21,5,22,3,-1,-3,-2,80
1501880521596010,23,0,2,62,9,-2,1,10
1501880521596010,-9,-1,29,24,-4,-3,-4,0
1501880521605009,4,-5,-33,-2,2,1,-1,-3
1501880521605009,-3,1,-18,-114,-14,-2,1,3
1501880521619023,-16,-6,-2,-48,4,0,-1,-15
1501880521619023,-33,6,8,14,7,1,-2,-15
1501880521621010,14,-6,-2,-8,-7,-3,-2,4
1501880521621010,42,5,4,52,8,0,1,31
1501880521642012,-40,-6,4,1,-5,1,-1,-57
1501880521642012,26,3,23,2,-1,-2,-4,-26
1501880521644014,-47,-1,5,53,0,-2,-13,-97
1501880521644014,-1,-3,-11,-55,0,-4,0,5
1501880521665013,13,-1,-12,-41,-7,-6,-10,-58
1501880521665013,6,-13,-45,-30,4,2,5,51
1501880521667012,33,-4,12,26,-10,-7,-1,37
1501880521667012,-70,-11,-1,16,4,-2,-10,-80
1501880521679013,22,3,3,33,-1,1,-1,63
1501880521679013,-7,-1,29,-14,-3,-3,-2,3
1501880521681012,20,-1,-18,-40,0,3,4,33
1501880521681012,-12,-1,17,68,14,-1,-3,-36
1501880521709015,-6,-5,-44,4,-9,-6,-2,29
1501880521709015,-17,-8,-42,-41,-16,-4,3,-19
1501880521711037,14,3,10,-13,0,1,2,35
1501880521711037,14,11,25,-28,-1,6,6,15
1501880521716016,-8,-9,-31,66,1,-4,-5,-5
1501880521716016,-13,2,9,7,3,0,-5,-10
1501880521725033,15,-1,10,41,8,3,0,-4
1501880521725033,-27,-2,-28,-99,-8,-3,-1,-19
1501880521739057,34,-6,-7,-9,0,2,2,-22
1501880521739057,-23,-3,-2,-49,-8,-1,-3,-19
1501880521741022,33,4,12,0,-3,-2,1,-17
1501880521741022,-38,-2,-10,1,-7,-1,-5,-12
1501880521762021,-9,1,28,-11,6,4,7,24
1501880521762021,-14,-9,-1,-9,-6,-3,-4,-16
1501880521764018,-48,9,30,37,13,6,3,-19
1501880521764018,13,-6,-45,-39,-8,-4,-6,-9
1501880521776054,-19,0,6,-5,-3,-1,9,45
1501880521776054,-6,3,-1,127,9,-1,-7,-81
1501880521785020,18,3,-7,-73,-5,-3,-3,-17
1501880521785020,5,2,17,53,8,4,4,28
1501880521799041,-16,-6,-26,-89,-18,-5,-7,-60
1501880521799041,23,-3,-4,-1,1,-5,-2,24
1501880521806020,-20,3,15,-15,-3,-1,-2,-6
1501880521806020,13,-8,6,-22,3,-6,-4,22
1501880521822059,-32,-6,-14,-1,-8,-9,-16,-64
1501880521822059,-2,10,24,43,7,7,8,58
1501880521824055,-11,-1,-34,52,6,0,-7,-77
1501880521824055,-1,-10,6,28,-23,-5,-3,10
1501880521845046,-10,0,-1,-23,-2,-1,-1,-13
1501880521845046,-41,-3,12,-53,-10,-5,-6,-3
1501880521847025,45,-1,-4,-17,1,-1,-3,9
1501880521847025,-10,1,-11,80,8,3,4,-4
1501880521859023,16,-3,-3,-32,-3,-2,1,40
1501880521859023,17,-1,9,13,-4,1,1,-5
1501880521861023,-20,-10,-15,-35,-4,-3,-1,-8
1501880521861023,23,2,10,10,5,-1,0,-1
1501880521882026,4,-3,-13,-54,-6,-3,-5,6
1501880521882026,12,9,19,73,25,5,7,74
1501880521884027,2,-11,14,-12,-36,-9,-2,65
1501880521884027,-12,1,-14,6,3,0,-1,-22
1501880521896025,-5,-2,-13,-50,-1,1,2,60
1501880521896025,9,5,16,46,4,2,-1,-35
1501880521905030,-22,-8,-9,-65,2,-5,-6,-5
1501880521905030,-2,0,7,7,3,0,4,6
1501880521920040,20,3,6,10,-5,0,2,34
1501880521920040,1,1,-23,30,12,8,13,70
1501880521921049,27,7,37,-8,-4,-3,-3,31
1501880521921049,-25,-10,-42,-42,-3,-3,-6,-33
1501880521942029,-2,4,13,4,-7,-2,0,-25
1501880521942029,11,-2,13,-59,-1,-1,0,-2
1501880521944028,4,-1,-32,86,-5,1,3,49
1501880521944028,-12,6,30,2,2,-1,-1,14
1501880521956031,-8,-10,-34,38,2,-2,-1,17
1501880521956031,7,5,8,-1,3,-3,-6,-2
1501880521965032,4,-12,-13,-63,-20,-7,-4,-1
1501880521965032,4,-1,-13,15,0,-1,-3,15
1501880521979052,9,7,25,-1,4,3,3,-10
1501880521979052,16,-2,-12,12,3,-1,3,67
1501880521981030,-29,6,12,-91,14,6,4,-18
1501880521981030,-36,-8,-5,18,-10,-3,-7,-46
1501880522002036,13,1,-10,29,-1,-7,-6,-3
1501880522002036,12,-5,0,-45,-7,-2,-2,16
1501880522008032,-11,0,-24,90,8,2,0,7
1501880522008032,39,3,30,64,-6,-2,-1,16
1501880522016039,-3,2,-19,-52,1,6,0,-6
1501880522016039,-18,-9,-26,-70,-21,-10,-9,-86
1501880522025034,-4,3,-25,27,4,2,3,6
1501880522025034,11,3,38,13,11,5,7,67
1501880522039069,-2,6,8,34,2,3,-1,-3
1501880522039069,-13,-6,-17,24,-7,-3,0,36
1501880522041034,19,1,17,-7,2,0,1,15
1501880522041034,-6,7,-15,-13,3,2,2,-56
1501880522062051,-24,1,25,28,12,6,1,-39
1501880522062051,0,-2,34,-28,-8,-7,-2,13
1501880522064035,-41,-5,-13,25,0,-2,-2,-76
1501880522064035,29,6,-1,-11,2,0,6,98
1501880522084073,48,-4,-3,25,1,-5,-2,72
1501880522084073,-18,0,-24,-25,12,7,1,-60
1501880522086037,3,-9,4,16,-4,-5,-3,35
1501880522086037,13,6,9,-42,-1,-2,1,-6
1501880522099058,-40,-5,-33,-79,-19,-4,-5,-57
1501880522099058,3,-10,22,67,-4,-2,-2,13
1501880522101042,15,6,7,40,8,0,-3,-25
1501880522101042,-4,-2,-8,-37,-1,2,-3,-32
1501880522122106,5,-3,-14,10,2,0,0,7
1501880522122106,-3,4,-13,-7,-5,-2,-2,-34
1501880522124048,8,2,19,14,5,0,4,14
1501880522124048,-41,-8,-22,-43,0,-6,-6,-50
1501880522144040,0,3,5,25,0,1,1,-9
1501880522144040,-4,0,-11,-23,-8,-3,-5,6
1501880522146041,13,-3,14,35,4,1,3,35
1501880522146041,8,7,1,23,2,5,8,53
1501880522159041,33,-14,-15,-23,-8,-5,0,38
1501880522159041,-16,7,2,61,3,-1,-1,-21
1501880522166045,-2,0,-24,-72,-11,-5,-1,-17
1501880522166045,-7,0,25,43,4,0,-4,-46
1501880522190097,-13,-7,-17,-28,-8,-3,-1,2
1501880522190097,4,4,26,-11,2,2,2,-8
1501880522192045,3,4,-36,23,9,4,2,-4
1501880522192045,3,-7,26,7,-17,-11,-10,16
1501880522204048,32,-1,-9,42,12,3,2,31
1501880522204048,-35,2,13,-24,-1,0,-2,-18
1501880522206044,-22,-8,-25,32,4,1,0,-21
1501880522206044,1,-2,-23,-46,-4,-2,-4,-33
1501880522227108,-3,1,-4,-37,-19,-4,-4,-8
1501880522227108,22,-5,16,-8,-6,-4,-1,22
1501880522228051,-13,-2,-5,-71,-2,-1,-8,-56
1501880522228051,-1,2,19,90,7,2,2,35
1501880522242048,-16,-1,3,-57,-14,-6,-6,-53
1501880522242048,13,-3,-6,25,0,-1,-2,-6
1501880522244052,15,1,0,-36,-4,-1,2,0
1501880522244052,1,-3,-12,4,3,0,-1,-10
1501880522265050,-14,0,37,28,7,0,-5,-8
1501880522265050,-14,-2,-12,5,0,-3,-1,4
1501880522266048,34,0,9,7,-5,-4,-1,24
1501880522266048,30,6,-1,-103,7,6,7,87
1501880522287048,-27,-5,-2,40,-1,-1,2,-53
1501880522287048,-7,2,7,32,5,-2,-5,-22
1501880522289052,-27,0,17,-74,-7,0,0,-8
1501880522289052,-24,-2,-29,74,-4,-4,-1,16
1501880522302051,-14,4,12,-33,4,5,5,19
1501880522302051,21,-4,1,17,0,-1,-2,-38
1501880522303071,-12,-3,-15,21,2,-3,-2,-14
1501880522303071,2,0,22,6,0,0,0,-6
1501880522325052,0,0,27,22,-3,-4,-2,25
1501880522325052,-7,-2,-36,7,0,0,-2,-76
1501880522326051,9,-5,-4,-12,-7,0,1,42
1501880522326051,6,-5,-12,-44,-4,-4,-2,-36
1501880522339106,17,2,6,26,0,-2,-4,-30
1501880522339106,-4,-1,15,-1,8,3,2,42
1501880522346077,9,-4,-5,72,-15,-5,-4,8
1501880522346077,-20,2,1,-32,3,2,-1,-31
1501880522362053,10,2,14,22,2,0,0,-2
1501880522362053,12,-8,-29,-45,-12,-2,-2,21
1501880522364055,5,3,5,10,-1,-1,-1,21
1501880522364055,-3,-10,-36,26,3,-2,-2,-12
1501880522384057,-3,9,5,-82,-15,2,0,17
1501880522384057,-3,3,22,11,2,-2,-2,-9
1501880522386054,-8,-9,-22,-47,1,1,0,-6
1501880522386054,37,3,9,24,-2,1,-2,-8
1501880522399055,-7,5,21,63,21,3,2,2
1501880522399055,1,-7,-21,-31,-5,0,0,14
1501880522406056,-24,6,17,4,1,0,0,-32
1501880522406056,-28,-4,-2,-59,-9,-3,-6,-45
1501880522422057,-11,-5,-14,63,8,-1,0,0
1501880522422057,17,0,-19,-53,-7,-2,-1,2
1501880522423085,-16,2,23,92,6,-2,-1,19
1501880522423085,11,3,7,3,-6,0,-1,-7
1501880522444066,2,-3,-13,-60,-1,0,-1,1
1501880522444066,9,-1,14,-26,-8,-3,-2,43
1501880522446058,13,9,6,-39,-5,1,1,15
1501880522446058,-16,-15,-29,-17,-11,-8,-7,-22
1501880522458058,-7,-4,-15,24,6,-2,-1,24
1501880522458058,14,3,37,42,3,2,0,26
1501880522467059,18,0,-3,-32,-13,-1,0,20
1501880522467059,-2,-1,-24,-29,-4,-1,-1,-26
1501880522482060,8,0,-4,-18,3,2,4,11
1501880522482060,5,-5,10,42,1,-4,-1,-4
1501880522483059,-12,2,19,-76,-1,-2,-6,-37
1501880522483059,1,0,14,-26,-2,1,1,32
1501880522504062,-24,-17,-52,14,-2,-4,-5,-17
1501880522504062,-8,6,-21,36,-2,1,2,-16
1501880522506061,-5,-2,10,-2,6,0,0,-36
1501880522506061,7,-3,-7,32,-1,-3,-4,29
1501880522519063,40,3,1,-32,-3,-1,-2,73
1501880522519063,-33,-2,0,-11,-3,0,0,-10
1501880522526064,-8,-8,-31,6,2,0,-1,31
1501880522526064,25,9,28,60,6,0,1,-18
1501880522542064,-18,-5,18,65,-13,-5,-5,-15
1501880522542064,-15,-3,-36,-70,-6,-4,-4,14
1501880522543065,15,3,8,25,5,2,1,-30
1501880522543065,-4,1,18,-11,2,4,4,7
1501880522564066,1,1,-7,-27,-3,-2,2,-6
1501880522564066,-6,-4,-7,3,2,-2,-4,-38
1501880522566065,-13,0,29,21,4,2,0,-1
1501880522566065,-7,-4,-25,-27,-5,-1,-3,38
1501880522587080,1,-1,-1,9,-1,1,1,-2
1501880522587080,3,0,-3,85,10,-1,-3,9
1501880522589066,10,-6,-16,-52,-4,-2,1,12
1501880522589066,5,0,21,36,8,2,1,2
1501880522602069,-5,2,0,-51,-9,-1,0,31
1501880522602069,14,7,-8,-25,4,2,-2,-31
1501880522608070,-27,-4,17,52,-15,-6,-2,-53
1501880522608070,15,5,9,7,3,-4,-4,10
1501880522624082,-9,-7,-22,-41,0,-2,-2,0
1501880522624082,-44,-2,9,32,0,-1,-1,-37
1501880522626075,11,-1,-16,-4,6,3,1,22
1501880522626075,-1,-4,-14,-30,-9,-4,-3,-15
1501880522638082,-2,0,0,33,5,-1,-1,-23
1501880522638082,23,-1,-3,-6,0,0,4,42
1501880522647071,15,4,13,11,5,1,-2,-41
1501880522647071,-22,-3,-7,28,-12,-1,0,-19
1501880522662071,12,-3,-16,-69,-14,-4,-2,4
1501880522662071,20,0,6,-28,-4,1,0,-2
1501880522663072,-14,1,11,21,5,-1,-1,19
1501880522663072,11,-7,0,44,2,-1,-3,6
1501880522684086,-7,7,9,45,16,4,2,-25
1501880522684086,0,-5,6,-42,-15,-4,-3,20
1501880522686072,3,1,15,80,1,-3,-4,22
1501880522686072,-1,-8,-39,-110,-9,-3,1,-4
1501880522698096,-21,3,5,47,4,-2,-4,-9
1501880522698096,11,-5,-8,24,6,0,0,11
1501880522715077,0,1,-12,-49,-3,1,0,-3
1501880522715077,12,9,40,17,3,2,5,8
1501880522722088,-6,-8,-2,10,-2,-4,-5,-16
1501880522722088,29,-3,5,-10,4,-4,-3,-23
1501880522723076,-16,1,-3,-6,0,-2,-4,-7
1501880522723076,-28,-6,-11,71,0,-4,-3,-16
1501880522744076,16,5,12,-44,-2,4,2,-19
1501880522744076,-5,0,-1,39,5,3,4,13
1501880522746076,10,0,15,-65,0,1,3,24
1501880522746076,6,1,-36,-58,-5,1,1,20
1501880522767076,14,-5,30,87,-1,-2,-6,-11
1501880522767076,-39,5,-8,-38,-4,-3,-1,-30
1501880522769077,21,-5,3,-11,-3,-3,-2,-11
1501880522769077,-21,-4,-5,-15,0,-1,0,6
1501880522781077,16,0,-17,9,1,2,3,-2
1501880522781077,4,7,41,-8,1,1,2,9
1501880522797088,4,-3,-5,73,3,-2,-1,11
1501880522797088,-7,0,15,-58,-1,-1,-4,-33
1501880522804078,-12,-2,8,-3,5,3,3,-19
1501880522804078,-14,0,5,36,-6,-1,-2,0
1501880522806080,-9,-4,-48,-52,-3,-1,0,12
1501880522806080,-22,-3,16,36,5,-1,-3,-37
1501880522818083,10,7,13,10,4,-1,-3,-45
1501880522818083,-7,-4,3,34,-9,-4,-4,8
1501880522827080,2,1,1,-55,1,-1,-1,-5
1501880522827080,48,-6,-18,8,-3,0,3,31
1501880522842082,-6,-8,-40,-30,-4,0,-1,26
1501880522842082,-18,5,14,-27,4,3,0,-4
1501880522843080,12,-1,18,114,11,-3,-2,6
1501880522843080,-23,-1,-15,-45,-16,-5,-6,4
1501880522865082,-10,0,22,5,-4,0,3,4
1501880522865082,29,-3,-27,-3,1,-1,0,32
1501880522866083,-8,-6,-15,-25,-11,-4,2,26
1501880522866083,32,8,23,32,11,2,0,25
1501880522878083,1,-3,5,0,7,3,1,-25
1501880522878083,-25,-6,-30,-15,-16,-5,-2,-33
1501880522887084,-1,1,30,-5,-1,0,1,14
1501880522887084,1,-4,-18,-15,-5,-4,-4,1
1501880522902088,-11,-2,-13,-12,2,-1,0,-1
1501880522902088,24,1,24,0,4,3,0,13
1501880522903086,1,-7,-49,24,0,-1,-3,-7
1501880522903086,-13,0,18,-29,-5,-3,-2,-37
1501880522924086,-3,2,16,40,2,-6,-5,0
1501880522924086,-31,1,5,4,2,-2,0,-9
1501880522926086,0,-5,-30,-26,-9,-1,-3,-25
1501880522926086,-7,10,24,11,17,5,4,4
1501880522938086,6,-7,-22,20,-7,-3,0,2
1501880522938086,5,1,-14,-21,1,3,1,-4
1501880522947089,23,-5,29,23,-5,-2,2,80
1501880522947089,-10,-2,-3,32,-3,-3,-3,-26
1501880522962089,-3,-1,-19,-85,-2,1,3,6
1501880522962089,-1,-1,-1,-5,9,2,2,18
1501880522963089,-9,2,2,8,-4,0,-2,-5
1501880522963089,-9,-3,-4,51,5,2,3,6
1501880522984103,0,-1,3,-39,-7,-4,-5,8
1501880522984103,3,-4,0,12,-1,-3,-4,-18
1501880522986090,3,3,-12,-49,-1,2,2,10
1501880522986090,13,5,14,20,-2,0,1,-11
1501880523007091,-13,1,11,49,1,0,-2,-15
1501880523007091,-9,-7,-4,-15,-5,-2,-3,9
1501880523008093,-6,0,-4,13,3,2,-1,-33
1501880523008093,-5,-5,-8,18,2,-2,-1,31
1501880523022105,30,3,-4,15,-1,-2,-2,4
1501880523022105,26,8,-16,-81,-11,1,4,54
1501880523023093,-34,-6,34,94,11,-4,-8,-41
1501880523023093,-17,-7,-4,-6,-12,-5,-4,-13
1501880523045093,-12,6,14,46,5,0,0,23
1501880523045093,11,-8,-31,-59,-10,-2,-2,-4
1501880523047102,0,4,-3,-51,3,0,-1,-6
1501880523047102,10,-1,0,-64,-1,0,2,-5
1501880523068105,-10,0,21,31,2,-3,-4,49
1501880523068105,-8,2,12,72,5,-2,-3,-45
1501880523068105,9,7,2,-87,-3,5,4,4
1501880523068105,-11,-3,-2,91,7,2,1,-9
1501880523082095,-8,-13,-8,20,-10,-9,-5,4
1501880523082095,2,1,-16,26,2,0,0,6
1501880523083096,-7,-5,-23,-35,1,0,-1,-11
1501880523083096,1,2,10,2,-8,-4,-3,5
1501880523119101,-8,-4,-11,-88,-6,1,0,-24
1501880523119101,-3,0,6,10,-3,-3,-4,7
1501880523121097,-8,-1,0,27,2,-4,-2,-5
1501880523121097,1,-1,11,3,1,0,-2,40
1501880523127098,13,4,0,-47,-10,-3,-7,-61
1501880523127098,4,-10,-32,-27,-8,-4,-2,-15
1501880523128097,1,5,35,11,-3,1,-2,-2
1501880523128097,9,-6,-22,-15,3,1,-1,2
1501880523141112,-4,6,25,91,20,4,4,25
1501880523141112,-1,-2,2,-55,-6,-5,-5,-2
1501880523148108,7,-3,-10,24,-12,-2,0,16
1501880523148108,-23,-3,-4,-4,3,0,1,-17
1501880523164101,-22,-1,-3,-48,-16,-2,-3,-44
1501880523164101,4,-2,-8,14,6,1,2,12
1501880523166099,7,7,60,15,6,1,2,26
1501880523166099,-6,-16,-62,-41,-18,-7,-8,-36
1501880523187100,1,-3,-29,0,5,0,2,45
1501880523187100,27,4,19,28,7,0,-1,-33
1501880523188101,-3,1,3,9,-10,-4,-3,-17
1501880523188101,13,1,11,13,3,2,2,12
1501880523201102,-12,3,0,-27,-3,0,-4,-30
1501880523201102,-28,-5,12,49,2,-1,-1,-3
1501880523208102,-2,-10,-35,-17,-1,-3,-3,-4
1501880523208102,-15,1,-10,-95,-9,0,-1,-15
1501880523225112,41,6,19,12,2,2,4,33
1501880523225112,-1,-1,-15,-5,-2,1,1,-15
1501880523226104,-18,-7,-24,15,1,-4,-4,-1
1501880523226104,-9,5,14,36,11,2,5,33
1501880523247107,1,-4,8,6,-2,-2,-5,-8
1501880523247107,17,6,7,42,5,5,4,10
1501880523249105,-15,-14,-45,-86,-16,-6,-2,-14
1501880523249105,13,9,48,29,7,-2,-2,5
1501880523261107,-5,-5,-19,-8,-2,0,2,4
1501880523261107,1,-9,-15,-8,-8,-3,-2,8
1501880523268106,-21,4,7,3,3,3,1,-26
1501880523268106,7,1,7,22,-3,-3,-2,9
1501880523284109,-15,-7,-25,-23,-3,-2,-2,-28
1501880523284109,-12,0,19,31,6,1,1,-2
1501880523292108,5,4,4,9,-1,-2,-2,-6
1501880523292108,-4,-4,-5,-29,-6,-1,-4,-18
1501880523307108,16,9,35,-2,8,1,1,12
1501880523307108,-21,-13,-54,-25,-8,-3,4,49
1501880523308108,18,-6,8,63,4,-4,-6,-16
1501880523308108,-5,7,11,49,8,2,3,9
1501880523321123,-7,-5,-5,-7,-11,0,-1,-3
1501880523321123,0,5,8,3,10,2,-1,-3
1501880523328111,4,-3,3,-36,-14,-4,0,15
1501880523328111,0,-4,-16,-36,-11,-5,-3,-19
1501880523344110,5,-1,-2,36,10,-1,1,17
1501880523344110,-11,4,14,-19,0,2,1,-2
1501880523346111,-4,-3,-19,22,4,0,-1,1
1501880523346111,6,2,17,25,4,1,0,1
1501880523367113,15,-6,-22,-44,-1,-1,0,12
1501880523367113,-14,-4,-8,13,-5,-6,-8,-2
1501880523369112,5,2,-2,-5,5,1,0,-16
1501880523369112,-7,-3,-17,-14,0,2,1,2
1501880523381112,16,8,38,8,4,0,1,5
1501880523381112,-8,-7,2,77,2,-1,-3,-16
1501880523396115,14,3,-3,-105,-10,3,1,9
1501880523396115,-8,-2,23,32,4,0,-3,-19
1501880523404115,-11,-13,-54,-10,-12,-6,-5,0
1501880523404115,10,-1,3,-4,-5,-3,-3,-6
1501880523406114,12,9,19,14,-3,2,-1,4
1501880523406114,8,-6,-29,-20,-4,0,-1,-1
1501880523427117,-13,0,8,-15,0,0,2,0
1501880523427117,-16,-3,3,-59,-7,-2,-1,-12
1501880523428115,1,1,-27,66,5,1,2,33
1501880523428115,-2,-2,14,22,-1,-2,-4,-37
1501880523441115,-6,-5,-5,23,-1,-2,-1,-1
1501880523441115,3,-2,-12,-16,-9,-3,-3,-3
1501880523448131,-14,4,25,-2,9,1,3,1
1501880523448131,-5,-6,-21,-25,-7,0,-1,-19
1501880523465120,-4,-7,-12,32,0,-2,-3,-5
1501880523465120,6,1,25,18,5,-1,-3,-8
1501880523470119,8,-3,-15,-30,-4,-4,-4,8
1501880523470119,9,-1,11,9,-3,-2,0,19
1501880523487118,-1,4,14,31,3,1,3,0
1501880523487118,0,-1,-4,-44,-1,2,1,3
1501880523488119,6,-3,2,36,7,0,1,21
1501880523488119,16,5,3,3,-2,-1,2,3
1501880523500119,-9,1,12,-35,3,3,4,-1
1501880523500119,3,-4,-3,8,-4,-2,0,17
1501880523515122,-19,2,-5,-10,-1,0,-4,-44
1501880523515122,34,-1,-11,-5,1,-1,-1,3
1501880523524122,14,0,-18,28,2,-1,0,20
1501880523524122,15,4,19,21,-3,-3,1,-3
1501880523526122,3,-7,-8,-13,-1,-1,-1,16
1501880523526122,15,6,21,0,3,0,2,73
1501880523547142,-24,-4,-20,-11,-7,-4,-10,-85
1501880523547142,0,1,8,-22,-2,-1,-2,-3
1501880523548132,2,6,-7,12,4,3,2,-5
1501880523548132,-15,-6,31,-19,-3,-1,0,5
1501880523560124,2,-3,-20,1,-7,-3,0,23
1501880523560124,-25,5,12,32,8,3,1,-4
1501880523569124,9,-10,-23,-54,-12,-3,-1,-35
1501880523569124,-6,3,-8,41,7,0,-1,-13
1501880523584138,-3,0,15,-65,-1,-1,0,21
1501880523584138,17,-4,-34,-36,-17,-6,-4,-15
1501880523586124,6,1,11,34,4,0,1,50
1501880523586124,-12,-9,-48,-26,-8,-3,-5,5
1501880523607125,1,0,30,25,2,1,2,0
1501880523607125,-7,-2,9,36,8,-1,0,4
1501880523608129,-4,0,-11,-53,-16,-3,-3,5
1501880523608129,-9,-1,4,-44,-4,1,1,-22
1501880523620127,-20,7,21,63,11,5,0,-27
1501880523620127,-17,-5,-17,44,8,-1,-1,-9
1501880523629129,35,-2,14,18,-7,-6,-5,87
1501880523629129,-9,1,-10,9,3,-3,-3,-24
1501880523644130,-12,-7,-19,-43,-18,-2,0,4
1501880523644130,-3,-4,-5,-27,3,0,-2,-21
1501880523646131,-38,-2,-12,-64,1,-1,0,-4
1501880523646131,12,2,18,72,-5,-5,-3,-3
1501880523674131,7,-2,-7,-9,0,-3,-2,19
1501880523674131,-9,5,-4,-31,-1,2,2,3
1501880523676131,-10,-8,11,39,-1,0,-2,-27
1501880523676131,-2,4,14,-4,6,2,0,15
1501880523680133,-10,2,12,12,-3,0,-1,-13
1501880523680133,26,-1,9,-55,-8,-3,-4,29
1501880523697133,13,1,3,60,4,0,0,-16
1501880523697133,-3,-2,0,-58,-2,2,1,0
1501880523704132,3,1,-8,-24,-6,-3,-2,3
1501880523704132,-33,-3,-9,17,-2,-1,-3,-18
1501880523706132,10,3,13,-5,6,1,1,-12
1501880523706132,-11,-6,-2,-12,-5,0,-1,-9
1501880523727134,0,1,7,-17,-3,-4,-1,7
1501880523727134,20,0,1,14,-1,2,1,8
1501880523728132,-8,0,-9,25,1,-1,0,-26
1501880523728132,-7,1,0,18,9,0,1,-6
1501880523740148,-5,-3,-20,-88,-12,-1,-3,-1
1501880523740148,23,3,22,89,3,-2,3,30
1501880523749134,-14,-2,-6,14,3,0,-2,-34
1501880523749134,10,5,17,-7,-2,-4,-2,-7
1501880523764134,24,2,23,48,12,4,2,16
1501880523764134,-14,-9,-34,-27,-10,-5,-4,-3
1501880523766135,-22,2,10,4,1,0,0,0
1501880523766135,6,-1,15,-20,-8,0,-1,-1
1501880523787137,2,-3,-24,20,5,1,1,-12
1501880523787137,-5,1,12,3,6,1,0,2
1501880523794136,14,-2,-17,-28,-14,-2,-1,-13
1501880523794136,-3,2,6,72,-2,-3,-2,7
1501880523800139,-22,-14,-27,-80,1,-4,-4,-6
1501880523800139,22,12,38,18,4,3,2,-4
1501880523809139,-7,-10,-25,-10,0,-1,-1,12
1501880523809139,10,2,-18,-38,-1,-4,-1,2
1501880523824151,-8,1,-2,15,-6,-3,-3,-8
1501880523824151,-14,2,3,-39,3,1,0,-14
1501880523826139,6,-3,27,25,0,-2,-3,1
1501880523826139,-9,-2,-7,-22,-12,-3,-5,-3
1501880523847150,-5,3,9,61,13,2,0,-6
1501880523847150,33,-10,-19,-121,-17,-3,1,21
1501880523849151,-14,5,10,62,6,0,1,2
1501880523849151,-12,-7,-10,-14,-2,0,0,-16
1501880523860142,13,6,3,3,3,1,0,2
1501880523860142,-5,-6,-1,65,4,-4,-7,-9
1501880523870148,20,-2,-24,-75,-7,-3,0,-12
1501880523870148,43,4,2,12,7,-1,6,90
1501880523884146,-23,-6,-40,17,-1,-2,-4,-47
1501880523884146,12,6,14,85,2,-2,0,-3
1501880523886143,-39,-3,-23,-68,-4,-2,-3,-42
1501880523886143,-27,-8,-13,22,-1,-1,-4,-3
1501880523907144,17,8,31,-22,1,6,4,24
1501880523907144,-2,-9,-13,11,-6,-3,-2,8
1501880523908145,-8,-4,5,41,2,-4,-1,6
1501880523908145,0,2,-15,-6,0,1,2,-14
1501880523920158,-3,-12,-17,-18,-5,-1,-3,5
1501880523920158,-5,3,6,7,5,2,-1,-12
1501880523929145,11,6,10,-8,-12,3,1,1
1501880523929145,-66,-5,4,38,8,-5,-3,-3
1501880523945146,19,-3,23,25,-2,-1,1,23
1501880523945146,27,3,9,54,16,5,7,32
1501880523950147,12,-6,-56,-111,-12,-5,-8,-71
1501880523950147,-29,-6,13,70,-2,1,-1,-40
1501880523974163,-9,-4,-31,24,-7,-5,-3,8
1501880523974163,-5,4,-1,-29,3,3,2,-4
1501880523976147,-29,0,7,0,10,4,3,-21
1501880523976147,8,0,6,11,-5,-1,-3,-6
