timestamp,emg1,emg2,emg3,emg4,emg5,emg6,emg7,emg8
1501881546549705,98,-5,-28,18,19,8,35,24
1501881546549705,-38,-17,-4,-56,-37,-20,-57,61
1501881546558717,-51,6,19,13,20,17,43,-22
1501881546558717,38,-10,-13,76,6,0,-26,-47
1501881546581708,73,16,37,34,-5,-1,47,48
1501881546581708,20,-3,-16,-74,-2,0,-47,-2
1501881546582706,7,35,52,115,28,7,23,7
1501881546582706,-50,-37,-42,-44,-58,-18,11,-7
1501881546596708,-77,-9,-8,-37,2,4,-5,-10
1501881546596708,24,17,33,116,33,7,-36,-21
1501881546597708,41,-40,-64,10,-31,-12,19,85
1501881546597708,20,26,47,23,34,12,2,-66
1501881546609709,56,16,-1,-28,-6,9,16,63
1501881546609709,-17,-3,43,49,-7,-4,3,-19
1501881546618713,61,-1,-60,-57,-5,9,16,-17
1501881546618713,2,-4,-13,-1,15,-5,-52,56
1501881546648712,-78,-28,-9,-67,-33,-14,17,-50
1501881546648712,71,22,25,94,30,4,-71,87
1501881546649711,-76,2,5,-55,10,2,63,-76
1501881546649711,-7,14,53,-92,14,7,-6,5
1501881546656713,75,-4,5,-54,-16,-9,1,21
1501881546656713,-128,-14,-70,-41,-23,-11,-7,-18
1501881546657723,110,-17,-3,-27,-15,-5,-9,95
1501881546657723,-43,22,21,28,17,10,56,-74
1501881546669715,-9,-6,25,48,10,1,-51,12
1501881546669715,-32,-4,-24,-81,-7,3,52,-29
1501881546678712,34,-4,8,74,19,0,3,13
1501881546678712,-9,8,13,31,12,1,-32,19
1501881546696713,-14,-12,-42,-16,-19,-18,-49,-43
1501881546696713,42,-10,-40,-81,5,11,41,42
1501881546700719,-83,11,60,123,27,5,-28,-42
1501881546700719,-26,-5,-23,-116,-23,1,17,-14
1501881546716716,15,4,16,127,22,3,71,-9
1501881546716716,32,1,4,-94,-41,-12,-31,12
1501881546717715,8,2,-32,-66,-15,-6,13,10
1501881546717715,34,-2,8,101,3,-4,-29,23
1501881546737725,-30,0,2,63,16,8,-3,-9
1501881546737725,-50,-16,-38,37,-1,-10,14,-16
1501881546745716,56,14,26,-83,-4,8,14,46
1501881546745716,-80,-8,-9,85,-1,-5,-34,11
1501881546753718,18,2,1,-14,3,5,-3,-9
1501881546753718,5,-16,-35,20,-10,-18,-21,-27
1501881546753718,-9,-17,16,-12,-3,1,21,-4
1501881546753718,36,19,30,54,16,5,2,59
1501881546776719,6,11,-47,-108,-4,7,18,35
1501881546776719,30,-2,25,71,1,-9,-40,-60
1501881546777717,-4,-13,-62,22,-7,-5,38,-2
1501881546777717,22,-17,-11,5,-37,-3,7,31
1501881546806719,27,4,-40,-7,10,1,-19,-6
1501881546806719,-1,6,-8,-107,-16,-7,2,3
1501881546807721,-21,7,67,-52,-17,-3,-15,-24
1501881546807721,26,17,-23,-13,23,6,3,63
1501881546813721,-36,-32,0,65,-13,-16,-26,-70
1501881546813721,36,-2,19,47,9,10,-26,36
1501881546813721,-81,-4,7,36,1,5,3,14
1501881546813721,-32,8,38,28,34,11,45,-4
1501881546836721,35,11,22,-6,-43,-11,-1,-65
1501881546836721,-8,-4,-22,101,11,5,2,-25
1501881546837721,16,2,7,-26,4,2,-18,10
1501881546837721,-35,-20,-17,-80,-13,-19,-41,9
1501881546888762,-31,8,-6,-53,0,-1,19,3
1501881546888762,-24,0,46,86,9,1,25,28
1501881546889726,32,15,26,81,15,12,6,-48
1501881546889726,-6,-4,-11,-121,-11,-10,-25,-18
1501881546904725,-5,-7,-37,-37,3,-1,-5,1
1501881546904725,-6,16,52,-74,-21,-6,6,82
1501881546905728,42,-25,-98,21,-8,-4,-9,43
1501881546905728,-25,-2,1,-46,-1,3,-14,-16
1501881546920767,62,3,31,-25,-5,-10,-4,17
1501881546920767,-48,8,19,88,27,21,18,37
1501881546921747,20,4,9,48,1,-4,-11,-8
1501881546921747,15,4,21,33,-7,-1,7,-18
1501881546942728,40,-6,-10,-39,-3,-3,-7,8
1501881546942728,-13,-7,-34,19,17,10,38,-15
1501881546943739,-8,8,11,-39,-4,-5,-22,-24
1501881546943739,-10,-14,-10,-41,-15,-7,-7,-22
1501881546944728,-18,1,11,-14,15,11,-1,-20
1501881546944728,-6,5,43,104,9,-5,-6,-12
1501881546948750,-25,-9,-60,-87,-17,-7,-11,-16
1501881546948750,31,1,-31,44,10,0,0,-26
1501881546956729,-43,-3,44,53,0,1,-5,36
1501881546956729,30,9,-3,-61,0,3,0,-38
1501881546957729,-29,-11,-15,77,14,-3,4,-70
1501881546957729,43,-12,-27,-68,-43,-2,-10,13
1501881546979758,-39,25,11,85,12,6,6,-42
1501881546979758,-32,-6,-2,18,2,-2,-3,-13
1501881546979758,29,4,31,21,-6,-6,-5,82
1501881546979758,-13,-8,-26,-30,3,0,1,-58
1501881546993754,-2,-16,12,-37,-4,-10,-7,21
1501881546993754,12,1,-17,-42,-5,-1,-8,-7
1501881546993754,28,4,35,51,7,3,7,9
1501881546993754,14,0,-44,7,-7,0,6,55
1501881547016736,8,9,19,17,18,9,9,9
1501881547016736,-14,-22,-75,8,-16,-11,-13,19
1501881547017732,46,7,16,3,10,0,-10,-12
1501881547017732,-3,4,22,-5,-6,-8,-10,-5
1501881547038774,51,-3,-21,-22,-4,10,21,-6
1501881547038774,-33,1,18,8,7,4,9,-20
1501881547039733,-30,-1,-35,-52,-21,-2,-14,-20
1501881547039733,-7,9,54,103,13,-4,0,-30
1501881547053750,-17,-18,-88,-98,-14,-1,2,33
1501881547053750,-28,-2,-20,25,1,-3,-4,-25
1501881547053750,-20,-21,-2,68,0,-6,2,-16
1501881547053750,21,6,-14,-52,-7,0,-4,-10
1501881547076740,-37,0,35,-21,-14,-3,-3,-56
1501881547076740,10,-2,-6,-18,1,5,11,15
1501881547083774,15,1,-6,-13,-3,-7,5,26
1501881547083774,-76,-4,-5,79,21,7,0,-74
1501881547106758,44,12,19,1,10,2,-3,43
1501881547106758,-8,-16,0,-7,-12,-9,-5,30
1501881547107739,-19,-1,-16,-9,1,4,2,17
1501881547107739,14,0,-15,-69,-5,-7,-8,9
1501881547113761,-12,-10,5,8,-5,-2,6,11
1501881547113761,-5,6,39,-10,-4,-5,-11,-63
1501881547114738,39,6,14,7,10,3,1,23
1501881547114738,7,-11,-6,37,-5,0,10,94
1501881547136779,-46,-13,-28,14,0,-1,-9,9
1501881547136779,-2,11,10,-5,12,1,-2,-60
1501881547137757,-17,-3,2,10,-20,-10,-7,13
1501881547137757,67,12,15,77,8,12,23,87
1501881547158743,-44,-2,15,1,-8,-2,-11,-28
1501881547158743,40,-5,42,85,6,-5,10,36
1501881547159750,-1,3,-6,-51,-1,0,0,-29
1501881547159750,-58,-1,9,13,0,-4,-8,-78
1501881547173741,11,-1,7,64,13,-1,-3,7
1501881547173741,11,2,-30,-48,-10,1,5,60
1501881547173741,-55,8,22,-98,0,-4,-9,-95
1501881547173741,61,-18,-40,9,-8,-4,3,-2
1501881547196783,-10,4,26,3,7,1,-5,13
1501881547196783,2,2,-5,59,1,0,-3,-5
1501881547197762,34,2,-35,-78,5,3,-4,33
1501881547197762,19,-2,45,67,8,-4,-3,20
1501881547218762,-15,10,-17,-103,-22,-6,4,-27
1501881547218762,7,-10,-41,29,11,3,-4,62
1501881547219749,-4,3,16,20,1,5,7,-16
1501881547219749,-15,5,-4,-16,7,-1,-6,47
1501881547233744,11,-10,-16,-30,-11,-3,0,14
1501881547233744,21,1,25,-36,-13,-7,-10,-3
1501881547233744,-30,1,26,-14,-4,-2,4,13
1501881547233744,5,-7,-23,16,5,-2,-5,-46
1501881547256747,-25,4,2,14,-6,-7,-3,-20
1501881547256747,3,4,18,-121,-2,10,6,-3
1501881547257748,7,-9,-8,14,-12,-5,1,-14
1501881547257748,-12,4,36,25,-4,-2,-3,-13
1501881547278747,-2,-1,-6,90,11,-6,0,18
1501881547278747,42,10,3,15,-3,-4,-3,12
1501881547279747,-30,-15,-21,-11,-7,4,3,-16
1501881547279747,7,3,12,-36,-5,-1,0,4
1501881547293770,61,-2,-27,25,12,4,5,64
1501881547293770,-16,-1,-9,-18,-22,-4,-13,-42
1501881547293770,-6,6,1,17,6,2,-3,7
1501881547293770,-53,-7,-11,34,-2,4,3,32
1501881547316766,31,0,30,-11,12,-5,-9,-61
1501881547316766,-43,-13,-70,-88,-10,-2,-3,5
1501881547317771,26,3,16,61,-1,-4,1,16
1501881547317771,-19,-3,-2,-24,4,2,-3,-43
1501881547338790,-37,-1,-27,-70,-5,0,-1,-23
1501881547338790,7,3,48,111,6,-2,6,-3
1501881547339750,3,-10,-29,-17,-3,1,-2,-16
1501881547339750,31,5,-2,66,6,1,0,49
1501881547352752,-50,-6,2,-3,-2,-4,1,-24
1501881547352752,18,-1,-35,-34,-7,1,-2,-16
1501881547353752,2,4,28,4,3,1,0,35
1501881547353752,-29,-1,29,50,13,1,3,-93
1501881547383753,3,-13,-17,-17,-19,-1,-2,18
1501881547383753,43,19,36,59,16,0,5,15
1501881547384754,11,1,-15,-31,-4,-6,-4,6
1501881547384754,-13,-15,-47,-78,-13,-6,-4,2
1501881547414756,29,-1,19,58,2,-2,-9,28
1501881547414756,24,-4,-4,-42,2,2,6,91
1501881547415775,15,7,2,90,18,7,0,17
1501881547415775,11,8,42,-54,-7,-3,-1,59
1501881547416756,2,2,-25,-15,-11,-3,-2,-32
1501881547416756,-10,-14,-13,30,0,-1,3,3
1501881547428770,31,4,-13,-121,-10,0,0,50
1501881547428770,-14,-9,-41,48,1,-5,-4,-1
1501881547436797,-1,-2,-5,-10,-6,-2,2,19
1501881547436797,13,-1,21,7,2,2,-4,25
1501881547437777,-38,-3,-35,23,1,-2,0,-45
1501881547437777,19,-3,27,-14,-19,-7,-5,-17
1501881547458760,15,3,20,4,12,2,3,6
1501881547458760,0,6,-4,16,6,3,4,-18
1501881547459762,50,-7,0,-42,-11,-6,0,38
1501881547459762,17,11,32,16,11,5,-4,1
1501881547481789,-27,-6,-36,-24,-5,4,-1,19
1501881547481789,-37,4,12,44,2,-2,5,-38
1501881547482758,-30,-9,36,82,3,-4,-9,-49
1501881547482758,-7,4,-34,-91,-10,1,3,7
1501881547496800,7,-3,7,43,6,-3,-1,32
1501881547496800,-1,0,-9,6,2,0,1,-21
1501881547497760,-3,-1,-4,-24,-6,-1,-2,-10
1501881547497760,-20,-2,14,63,1,-5,-2,-27
1501881547518781,-4,-1,-7,-77,-4,2,2,-11
1501881547518781,-18,1,23,19,-8,-2,-5,-51
1501881547519762,-51,4,2,85,11,0,0,24
1501881547519762,-10,-4,-20,-43,-6,-3,-8,-43
1501881547532801,0,5,7,38,11,11,6,-23
1501881547532801,-8,-6,8,-79,-3,-8,-8,18
1501881547540765,15,6,13,70,6,4,-1,-2
1501881547540765,6,-1,-45,-76,3,4,7,26
1501881547556767,-2,-3,22,8,-16,-7,-1,-8
1501881547556767,-2,-4,9,41,4,-3,-4,-39
1501881547557764,-16,-4,-7,-39,-5,0,2,-27
1501881547557764,5,-3,12,47,7,2,-10,-45
1501881547578776,-4,8,12,-41,5,0,0,8
1501881547578776,-17,-9,-37,-35,-11,-2,-1,-26
1501881547579765,13,4,27,8,-4,-2,1,17
1501881547579765,-5,4,-29,-37,-8,-2,3,16
1501881547592765,12,-10,24,58,6,-5,-3,5
1501881547592765,-8,2,16,44,8,4,-2,-3
1501881547601766,13,-13,-46,-73,-11,-6,-2,49
1501881547601766,-20,7,29,73,12,2,-1,41
1501881547616767,19,4,-21,80,3,4,6,-10
1501881547616767,-7,-4,-23,-128,-21,-6,-4,74
1501881547622767,-1,-1,1,15,4,-1,0,-83
1501881547622767,-4,-1,1,-14,-1,0,2,4
1501881547638769,5,-12,-37,41,6,1,-7,-22
1501881547638769,-19,0,41,62,-7,-1,0,-31
1501881547640770,-5,0,4,-8,-2,-6,-2,5
1501881547640770,-7,2,-6,11,-5,-4,-1,-4
1501881547652769,-44,-4,-10,-26,3,-1,-1,-30
1501881547652769,3,8,-8,-90,10,4,1,11
1501881547661783,10,-2,-6,-21,-20,-6,-5,-10
1501881547661783,2,-6,18,-18,-4,-2,2,15
1501881547683772,43,4,-5,-22,-1,-1,1,92
1501881547683772,-22,-2,-15,8,4,-5,-4,-20
1501881547685772,-25,-1,6,47,8,6,-3,3
1501881547685772,21,-3,-11,-56,-11,0,4,46
1501881547698773,17,-1,12,-5,-5,-2,-2,30
1501881547698773,-9,5,4,11,-3,-2,-1,-27
1501881547700773,23,-9,-32,-8,2,-3,0,34
1501881547700773,13,10,16,63,5,1,4,3
1501881547728775,-35,2,7,-46,-12,-3,-1,-31
1501881547728775,1,-8,-23,11,-1,-2,-1,-60
1501881547730786,-2,3,27,43,1,-2,-2,-27
1501881547730786,8,1,13,26,10,4,1,-8
1501881547735774,0,1,-15,-35,-9,-1,-2,-16
1501881547735774,11,-3,6,38,8,-3,0,58
1501881547758776,11,-3,28,-30,-10,-1,9,68
1501881547758776,-11,0,-36,-46,-8,-1,-8,-20
1501881547766777,11,3,33,66,6,-3,-4,-74
1501881547766777,3,-4,3,-47,-1,6,0,12
1501881547768777,22,2,-9,4,4,-1,3,16
1501881547768777,-25,-6,-15,12,-4,-4,-2,-13
1501881547781778,0,-4,-10,-34,-4,0,0,1
1501881547781778,-19,-1,-14,56,-1,-2,-1,-5
1501881547782777,-12,3,27,-28,12,5,-3,-47
1501881547782777,-16,-13,-33,-7,-23,-8,0,13
1501881547795780,-9,6,26,41,5,-4,-5,-38
1501881547795780,-13,-2,3,17,2,2,2,-14
1501881547802780,19,0,-36,6,6,3,2,35
1501881547802780,1,4,38,-38,10,5,5,-6
1501881547826779,-12,1,-1,-4,-4,-3,-3,-2
1501881547826779,15,-12,-3,-53,-17,-14,-9,11
1501881547827780,0,3,-8,-8,4,5,-1,-19
1501881547827780,-1,5,39,22,5,1,0,-61
1501881547841784,6,-8,-44,-15,4,0,0,2
1501881547841784,3,5,16,84,14,3,2,15
1501881547842781,-60,-6,-16,-95,-30,-12,-7,-3
1501881547842781,18,-11,-21,-39,-9,-3,-3,-3
1501881547855781,13,5,15,64,9,2,3,36
1501881547855781,4,2,-6,-41,-9,-1,0,-10
1501881547863784,-15,-1,29,-31,9,1,-2,3
1501881547863784,5,-8,-23,44,4,-5,-8,-54
1501881547878784,16,0,0,-48,-8,-1,2,60
1501881547878784,6,0,-19,11,8,2,6,-51
1501881547884797,-11,1,4,-23,-6,0,-1,-29
1501881547884797,2,6,34,9,1,0,-1,12
1501881547901785,9,-5,-18,16,4,-3,-7,33
1501881547901785,3,-4,-4,-37,-8,-1,-2,4
1501881547902786,37,1,13,5,-3,-9,3,30
1501881547902786,-44,-8,-38,8,0,2,-6,-68
1501881547915786,-15,6,34,37,13,10,2,4
1501881547915786,-27,3,-1,-36,3,2,4,34
1501881547922787,8,-7,-25,16,-22,-10,-9,-48
1501881547922787,11,-1,16,-12,1,0,-1,45
1501881547939786,10,2,6,-37,-3,-7,2,33
1501881547939786,-25,3,13,11,4,8,-2,-38
1501881547940787,9,-3,-26,-34,-8,-3,-3,-2
1501881547940787,13,4,5,-22,4,0,3,40
1501881547961794,-12,4,8,-33,2,-1,-5,-75
1501881547961794,11,7,42,92,7,1,-4,-7
1501881547962790,19,-14,-32,-21,-17,-10,-2,11
1501881547962790,-3,-1,-13,9,2,1,1,11
1501881547991788,5,-5,-2,-38,-4,0,0,59
1501881547991788,24,8,23,55,4,-3,-1,14
1501881547992789,-41,-1,-2,-14,4,7,3,-37
1501881547992789,9,0,-8,-21,-6,-6,-3,17
1501881547998804,13,-2,5,91,4,3,4,-4
1501881547998804,-42,-8,-21,-20,-10,-7,-9,14
1501881548000790,6,0,-10,4,5,1,-2,-2
1501881548000790,36,8,35,68,9,0,4,42
1501881548028792,-48,-16,-75,-67,-23,-10,-7,-68
1501881548028792,19,-2,-11,-75,-3,2,5,23
1501881548030792,13,6,11,-16,-4,2,1,63
1501881548030792,-1,0,-15,-24,-6,-1,-3,59
1501881548035793,-7,3,46,31,7,-6,-4,-49
1501881548035793,2,-4,-11,22,4,0,2,-7
1501881548049806,-12,1,-6,-59,6,6,0,20
1501881548049806,13,-7,16,65,-7,-5,-6,-19
1501881548058797,-22,7,43,59,13,3,6,20
1501881548058797,31,-7,-36,-97,-25,-9,-4,51
1501881548060794,-25,8,6,82,10,-1,-2,-76
1501881548060794,11,-9,-5,-21,6,3,0,-10
1501881548081812,21,-1,-34,-28,-12,-4,-3,-7
1501881548081812,-17,-1,25,-50,-2,3,1,14
1501881548083798,22,-4,-5,62,3,-3,1,31
1501881548083798,-22,5,14,-18,4,1,-1,-37
1501881548095795,-2,-5,-17,5,-2,-4,-2,16
1501881548095795,13,-5,-9,-22,-6,-1,3,6
1501881548102795,12,4,18,48,10,7,5,46
1501881548102795,-16,-6,-36,-43,-7,-5,-1,-50
1501881548118796,8,2,14,9,-2,3,0,18
1501881548118796,-43,-3,-8,-2,1,-7,-6,-84
1501881548120797,-8,-2,-6,-18,-16,0,-1,-14
1501881548120797,2,1,17,35,2,-5,-1,-9
1501881548148797,-13,3,16,5,-1,6,3,28
1501881548148797,62,-9,-23,28,-6,-7,-13,-33
1501881548150799,6,18,45,25,19,6,7,-13
1501881548150799,-18,-2,-40,-31,-3,4,3,33
1501881548155798,4,-9,-20,21,-5,-10,-5,-72
1501881548155798,-16,3,26,-41,-9,-4,-3,14
1501881548162801,4,0,7,17,9,2,-3,29
1501881548162801,0,-3,14,-20,-7,-2,-2,5
1501881548179801,15,5,-6,-27,3,6,7,19
1501881548179801,-26,-3,5,69,9,0,-2,-16
1501881548180802,-13,-10,-15,-26,-9,-9,-7,-25
1501881548180802,-8,-4,1,37,2,1,2,15
1501881548201802,11,0,3,42,0,1,0,18
1501881548201802,-5,0,-32,-45,2,-4,2,-1
1501881548202805,14,-6,-15,9,-3,5,-1,18
1501881548202805,-31,0,-15,19,1,-3,-4,-85
1501881548214803,-21,-2,24,-33,-6,-3,-2,13
1501881548214803,11,-6,-26,-8,-10,-3,1,3
1501881548223802,-34,-4,8,39,7,-8,-1,-18
1501881548223802,31,3,1,3,4,6,0,3
1501881548238817,-36,-2,3,-57,-10,-1,-3,2
1501881548238817,-1,-1,13,-14,0,2,1,2
1501881548240806,12,-4,-6,-60,-3,-4,-3,-15
1501881548240806,13,-1,-8,-26,-3,-1,2,30
1501881548261804,15,5,-1,-58,0,-1,-4,1
1501881548261804,-17,-10,9,101,4,-3,-3,59
1501881548262805,21,5,8,-13,-1,2,2,-43
1501881548262805,-14,-4,-14,-12,-8,-3,-3,7
1501881548283820,21,0,-9,-17,9,3,2,31
1501881548283820,3,4,7,35,-5,-5,-1,-19
1501881548285808,28,-2,-6,-42,0,5,0,31
1501881548285808,-28,-1,19,7,-9,-5,0,4
1501881548306807,-2,-7,-26,-63,-6,-2,-2,-18
1501881548306807,17,2,7,20,0,0,1,0
1501881548307808,-31,-3,0,21,-6,-2,-1,-23
1501881548307808,7,3,4,-23,2,1,-3,-5
1501881548336823,-8,-7,-10,30,6,-4,-3,1
1501881548336823,7,4,5,29,-4,7,6,0
1501881548338809,-4,-1,-7,-34,-1,-2,-1,-4
1501881548338809,-11,-3,-13,55,9,1,-1,3
1501881548339811,4,-2,-4,27,-11,-2,1,3
1501881548339811,0,0,-16,-54,4,1,-2,8
1501881548343810,-1,5,31,71,4,-3,-5,-67
1501881548343810,16,4,29,32,12,8,-1,-44
1501881548358812,5,-14,-60,-29,-25,-7,-4,61
1501881548358812,-9,-8,-18,-44,-11,-4,-5,-20
1501881548360812,-5,3,-26,-24,5,2,2,51
1501881548360812,-13,1,33,34,-4,-9,-4,-9
1501881548381811,16,7,29,96,19,8,5,-7
1501881548381811,-38,1,8,-69,-3,3,0,-49
1501881548382812,3,-6,-3,37,-10,-5,0,85
1501881548382812,-12,-9,-42,-52,-2,0,0,36
1501881548403813,7,7,14,17,11,0,0,-4
1501881548403813,-8,-7,-26,40,2,0,1,4
1501881548410823,7,2,-6,-29,-13,-2,-4,-2
1501881548410823,7,4,9,-14,-3,-3,0,8
1501881548420813,-8,-5,8,-46,-2,0,-2,-44
1501881548420813,27,6,7,79,12,2,3,45
1501881548421813,-18,-7,-5,-57,-3,-1,-5,-69
1501881548421813,18,3,-12,-58,-7,-1,-1,12
1501881548441815,-12,1,14,29,-1,-4,-3,-9
1501881548441815,21,3,23,15,1,0,0,21
1501881548447816,-25,-12,-22,39,4,-1,-1,-16
1501881548447816,1,3,13,-26,-10,0,0,9
1501881548454815,10,-1,14,-11,4,-1,0,-11
1501881548454815,3,1,-25,-25,-5,0,-1,-5
1501881548469817,-15,0,5,19,-2,-7,-3,6
1501881548469817,-5,3,21,13,1,0,0,-6
1501881548478819,-4,-6,2,7,-3,-5,-2,-5
1501881548478819,1,-2,13,-23,2,-1,-1,-23
1501881548480819,8,1,7,76,8,4,1,-14
1501881548480819,20,-5,-4,-42,-6,0,0,13
1501881548501823,-24,3,-8,12,-1,-3,-2,-7
1501881548501823,-1,-6,-10,3,-4,-8,-7,11
1501881548502819,16,9,12,-35,6,8,7,85
1501881548502819,-25,-10,-22,-19,3,-3,-1,-19
1501881548515821,17,-7,-13,16,-5,-5,-4,14
1501881548515821,1,8,33,-51,-7,-6,-4,0
1501881548523820,2,-11,-13,85,6,0,-2,18
1501881548523820,-2,3,0,-57,-3,5,4,8
1501881548539822,-5,1,2,-4,0,-1,-4,-52
1501881548539822,-36,-1,9,9,2,2,0,-10
1501881548541821,9,8,-5,-26,-7,-8,0,37
1501881548541821,-4,-8,-22,25,-5,-2,-6,-61
1501881548561841,16,4,13,61,-1,-1,0,9
1501881548561841,-5,-6,-17,-21,0,3,1,3
1501881548563823,-18,0,7,-33,-3,-2,-1,-24
1501881548563823,12,4,13,49,3,-1,-1,-3
1501881548583825,9,1,-5,-11,12,5,2,37
1501881548583825,24,-8,-32,-42,-14,-2,-4,-2
1501881548585825,-4,-1,-4,-38,-2,-2,0,-21
1501881548585825,33,1,-4,-2,-1,-4,-4,39
1501881548599826,-13,-7,12,49,1,0,-1,-18
1501881548599826,12,4,1,25,7,4,4,1
1501881548600827,3,-3,-10,-49,-4,-1,-4,-21
1501881548600827,2,-4,-9,62,11,3,1,21
1501881548621830,-2,1,2,-84,-28,-8,-1,3
1501881548621830,9,-2,4,8,0,-2,-4,-1
1501881548623827,12,2,1,-10,4,-1,3,72
1501881548623827,-13,1,20,41,7,1,-2,-84
1501881548634828,-23,0,-4,-19,-4,-4,1,-15
1501881548634828,10,1,4,37,5,5,2,-5
1501881548643830,-2,0,-6,-24,-6,-4,-7,-32
1501881548643830,30,-5,-9,32,-5,-4,-1,56
1501881548658832,-6,-3,-13,48,13,2,-1,-48
1501881548658832,10,3,11,-61,-11,-4,-2,2
1501881548664830,-12,-7,4,7,-2,-3,-2,-3
1501881548664830,-16,-8,-22,-15,-13,-12,-3,-22
1501881548681830,8,7,10,-85,2,5,-2,0
1501881548681830,-16,-7,8,44,1,-2,0,10
1501881548682835,5,-2,1,37,4,1,-1,-23
1501881548682835,-20,4,5,-19,-3,-1,0,5
1501881548703830,-6,-6,-27,-29,-3,0,-3,25
1501881548703830,2,3,15,30,5,-3,0,-70
1501881548705831,-28,-5,-10,5,-3,-3,-3,-31
1501881548705831,8,4,12,-20,3,-2,3,15
1501881548718832,-6,-1,-14,5,3,5,1,-2
1501881548718832,5,-2,-11,-91,2,2,4,35
1501881548720832,-31,1,-2,35,-10,-6,-3,-79
1501881548720832,19,-3,-3,16,2,-3,-5,-2
1501881548741832,41,8,13,-23,-3,-2,-3,48
1501881548741832,11,-3,3,56,0,-5,-1,8
1501881548742832,5,-2,-2,-2,5,8,1,-7
1501881548742832,-25,-2,23,18,4,5,1,31
1501881548763834,1,-1,-11,-50,-2,-5,-1,-4
1501881548763834,-1,-3,9,36,-6,-4,-5,12
1501881548765834,1,0,-22,-35,-9,-1,-1,4
1501881548765834,-4,-7,-38,-5,-4,-2,-2,5
1501881548778837,12,2,21,25,8,4,3,-1
1501881548778837,-16,2,-11,-42,-1,-2,1,61
1501881548780835,11,1,5,33,7,-2,0,9
1501881548780835,-12,-6,-14,-47,-11,-3,-4,-21
1501881548801837,4,2,17,87,13,1,4,-3
1501881548801837,-1,-2,-11,-28,-22,-5,-5,10
1501881548802836,17,3,34,28,4,3,0,11
1501881548802836,11,-3,-53,-76,-11,-6,-2,23
1501881548823838,-19,-5,-14,-3,-2,-2,-3,-3
1501881548823838,-14,-1,1,19,3,1,2,-32
1501881548825839,-5,-1,12,-28,8,5,0,3
1501881548825839,10,0,0,10,-9,-4,-1,-23
1501881548837853,-8,0,15,48,-13,-5,-2,-13
1501881548837853,-10,2,-14,-14,6,2,-1,-12
1501881548844839,14,-4,-8,15,-4,-2,-2,-2
1501881548844839,-13,-3,24,-6,5,-3,-3,-3
1501881548861840,6,-1,-8,-25,-4,0,3,42
1501881548861840,4,-5,-8,60,6,0,0,9
1501881548862839,12,6,-7,-46,-8,-5,-1,3
1501881548862839,-11,2,9,-23,0,1,3,1
1501881548883856,6,-2,3,21,-4,-4,-5,6
1501881548883856,2,-5,-12,-2,2,-5,-5,-40
1501881548885843,-10,1,7,-9,1,3,-1,-8
1501881548885843,-16,-7,-2,-5,-2,-2,0,2
1501881548897856,-14,1,14,12,4,-1,-3,-52
1501881548897856,-16,8,-23,-53,6,6,4,9
1501881548912844,8,-19,6,59,-3,-6,-4,-7
1501881548912844,-10,1,8,9,-1,0,-3,-9
1501881548921844,0,-5,-15,-39,-2,-1,-2,1
1501881548921844,-4,4,9,12,-2,-8,-5,-12
1501881548922843,-7,8,-18,-40,10,10,3,3
1501881548922843,19,-10,5,83,-20,-1,1,38
1501881548943860,-13,-2,5,-14,-6,-1,0,6
1501881548943860,6,-7,7,22,5,-1,-3,30
1501881548945847,-9,9,-17,-8,-2,-4,-1,0
1501881548945847,12,4,22,-18,-2,0,-1,7
1501881548957848,-16,-5,-20,-21,-2,-2,-2,-4
1501881548957848,2,1,18,24,-3,-3,-2,-9
1501881548972846,10,-4,-3,-30,-5,-4,0,10
1501881548972846,-16,2,-2,30,8,3,0,40
1501881548981847,17,1,-1,-17,-2,-1,-2,16
1501881548981847,37,0,12,1,-3,2,-2,-22
1501881548982846,-9,3,26,75,8,2,0,-8
1501881548982846,8,1,-32,-69,1,-2,0,-16
1501881549003849,-11,-7,15,42,-1,-4,-4,2
1501881549003849,7,-2,-5,-24,3,7,2,1
1501881549005848,10,-5,-15,16,-4,-4,-4,-4
1501881549005848,-19,0,1,54,9,-3,-2,-22
1501881549026852,0,3,-6,-62,-13,5,1,10
1501881549026852,-10,-2,-14,-54,-8,-1,-2,-19
1501881549027861,-4,2,22,32,-2,-2,-1,7
1501881549027861,2,-17,10,55,7,1,-4,-19
1501881549041854,8,3,-2,-3,0,-5,-2,-11
1501881549041854,17,1,21,40,4,1,2,52
1501881549042850,-16,-4,-27,-61,-20,-2,-2,-15
1501881549042850,8,6,8,34,2,-2,-2,-23
1501881549062862,8,0,6,-41,-2,-2,-2,-10
1501881549062862,-17,-1,-15,47,-1,2,1,4
1501881549071853,18,7,7,-90,0,1,1,9
1501881549071853,-8,5,18,11,3,5,3,10
1501881549077853,26,-5,-6,45,-6,-4,-4,-13
1501881549077853,-31,-1,16,-19,4,-3,-1,-8
1501881549084854,1,-7,-25,9,-5,1,0,-1
1501881549084854,-21,0,-18,-50,-5,0,3,-4
1501881549101865,8,8,55,109,17,1,-2,-18
1501881549101865,11,-2,-21,-97,-11,-5,-3,-4
1501881549102855,-6,0,15,67,12,1,1,-3
1501881549102855,20,-5,-23,-34,-20,-3,-3,81
1501881549123858,-31,-11,-26,17,-6,-4,0,-19
1501881549123858,2,4,10,27,6,7,3,4
1501881549125857,-8,-3,1,-16,-3,-4,-3,-8
1501881549125857,23,3,9,-16,-2,-2,-3,13
1501881549137869,-29,-2,-28,-43,-4,2,2,-4
1501881549137869,1,-11,-3,53,0,-5,-4,-5
1501881549144857,-8,2,17,-69,-3,2,1,2
1501881549144857,8,0,31,100,19,2,0,-21
1501881549161859,17,-4,-20,-86,-26,-9,-4,31
1501881549161859,-13,5,5,-15,5,1,0,-14
1501881549163858,-11,-7,-21,0,-5,-8,-3,9
1501881549163858,-3,3,-6,-19,-1,1,-4,-14
1501881549184874,-16,-1,9,9,10,2,1,28
1501881549184874,-12,0,-5,-37,-1,2,-1,-61
1501881549185858,5,-4,-1,112,-2,0,0,3
1501881549185858,2,9,-3,-79,-6,-3,-2,-12
1501881549197874,4,-4,-3,38,1,0,1,11
1501881549197874,-7,-1,-24,-30,-3,-3,-2,17
1501881549206860,-18,2,6,-34,-6,-10,-5,-13
1501881549206860,-15,-13,-16,-15,1,8,-1,-21
1501881549221865,11,1,-18,18,6,1,-1,-2
1501881549221865,-6,3,18,8,9,1,1,-4
1501881549223870,21,2,7,37,-7,-1,-1,2
1501881549223870,-6,-2,-7,-2,-12,-9,-3,-9
1501881549243864,-9,2,25,9,16,6,1,-8
1501881549243864,23,3,1,32,-8,-2,1,43
1501881549245863,-10,-4,-28,-27,-2,-5,-3,0
1501881549245863,7,4,38,36,5,2,5,-17
1501881549257863,-35,0,-3,21,0,2,2,-29
1501881549257863,1,-7,-11,-8,-3,-1,-2,61
1501881549272866,5,-4,3,-4,1,-1,-3,-40
1501881549272866,-7,0,-12,-50,-6,-4,-2,-8
1501881549281865,17,1,-10,-21,-4,-1,-2,2
1501881549281865,-1,4,-4,54,2,-2,-1,14
1501881549282866,-46,-10,-9,-89,-8,-1,-1,-20
1501881549282866,14,1,8,62,10,2,-1,-2
1501881549304867,4,-1,-17,-18,6,0,0,-11
1501881549304867,-13,-1,6,-13,-27,-7,-4,-37
1501881549305866,25,3,28,45,2,4,2,2
1501881549305866,-12,-1,-25,-52,1,-7,-2,6
1501881549317866,10,-3,14,-3,-4,-3,-2,-3
1501881549317866,-2,-3,-10,-7,8,6,1,-12
1501881549326870,-20,-1,13,27,6,3,2,-1
1501881549326870,14,6,-5,-44,-10,-6,-5,13
1501881549340868,-4,1,-3,-51,10,4,2,14
1501881549340868,16,-8,22,63,-10,-12,-6,-11
1501881549347884,-1,-1,-10,-17,0,2,0,9
1501881549347884,4,1,6,15,3,0,1,45
1501881549363869,-9,-4,3,22,0,-2,-4,-6
1501881549363869,-2,1,-28,-73,1,5,1,-19
1501881549371869,14,0,-6,54,5,-3,-3,-2
1501881549371869,-2,-4,-4,-3,-3,-5,-1,-2
1501881549377873,0,1,5,-2,-4,2,1,-2
1501881549377873,-28,-7,-7,52,5,1,0,8
1501881549392871,18,4,7,-67,-15,-3,-1,9
1501881549392871,6,-3,-14,35,4,1,1,-2
1501881549401877,-1,-1,1,-6,-14,-6,-2,14
1501881549401877,-4,3,9,18,5,2,0,-28
1501881549402874,-18,-6,-22,-42,1,-4,-3,16
1501881549402874,-7,2,13,8,-3,-4,-5,-31
1501881549423881,20,2,6,14,6,9,3,27
1501881549423881,-47,-6,-33,-24,-4,-8,-10,-71
1501881549425872,11,2,-6,-8,-2,-1,0,13
1501881549425872,-24,-6,-12,-18,-9,-2,-3,-24
1501881549437873,0,2,9,-34,-1,-5,-2,10
1501881549437873,18,8,40,40,8,0,-2,-28
1501881549447874,3,-10,-30,18,0,3,1,10
1501881549447874,-12,-5,-25,-15,-14,-3,-2,-17
1501881549461876,-4,0,-5,24,4,3,1,-11
1501881549461876,15,-4,-13,-23,-3,0,1,30
1501881549462877,-3,2,5,-9,-1,-1,-3,-11
1501881549462877,4,-1,14,26,6,2,0,1
1501881549483890,-20,3,13,9,3,0,1,-13
1501881549483890,39,-13,-43,-35,-11,-3,-2,57
1501881549485877,-28,6,22,41,7,1,1,-16
1501881549485877,6,-1,-4,-14,2,2,4,-2
1501881549497890,-6,-3,0,-17,-2,-5,-3,-3
1501881549497890,-10,3,20,10,1,5,2,-3
1501881549506878,0,1,-3,3,1,-3,-3,12
1501881549506878,15,-2,9,-7,0,-3,-4,23
1501881549521878,-6,-4,-25,4,-8,-1,-1,-13
1501881549521878,13,5,9,2,1,-2,2,8
1501881549522879,7,-3,-3,-6,-3,-1,-1,-6
1501881549522879,-9,1,-9,-6,4,5,0,-1
1501881549543883,14,-5,9,29,4,0,-3,6
1501881549543883,6,-3,-4,-66,-15,-4,1,26
1501881549545880,-23,3,2,14,4,-1,0,-92
1501881549545880,-2,1,9,6,-1,4,1,-14
1501881549557881,7,-3,-6,1,-3,-2,-1,-6
1501881549557881,-22,10,29,81,12,0,-3,-14
1501881549566882,31,-7,-46,-74,-11,-4,0,38
1501881549566882,-11,-6,-8,9,-6,-6,-3,-40
1501881549581884,-5,-1,1,-22,-5,0,0,-14
1501881549581884,0,6,11,24,6,6,1,12
1501881549582883,-25,1,21,67,6,-3,-4,10
1501881549582883,19,-8,-9,-77,-14,-12,-5,30
1501881549603883,11,-10,-26,3,-6,2,-1,11
1501881549603883,-2,1,0,12,7,2,3,-13
1501881549605884,-5,0,4,-19,-7,-1,-2,-2
1501881549605884,15,9,0,29,14,3,4,2
1501881549625885,-26,-5,13,-35,-13,-5,-6,5
1501881549625885,-12,-12,-28,-24,-12,-11,-9,-61
1501881549633885,2,5,12,28,3,4,2,19
1501881549633885,-11,-7,-3,8,2,7,2,-13
1501881549641885,3,1,-1,9,-2,-10,-2,-12
1501881549641885,5,-3,-16,-16,3,4,0,-10
1501881549647888,2,1,-7,0,-4,-2,-1,7
1501881549647888,-19,-4,18,42,7,-2,-6,16
1501881549663888,27,6,7,-60,-15,-2,-1,24
1501881549663888,-19,0,-1,8,3,-1,0,5
1501881549665888,24,-3,5,32,4,3,1,-16
1501881549665888,-16,13,22,-29,3,2,3,5
1501881549686892,-15,-23,-43,14,-4,-6,-3,-3
1501881549686892,-1,2,16,-17,0,1,0,10
1501881549687889,23,-2,-9,-60,-12,-6,-2,6
1501881549687889,7,1,14,34,0,-1,1,4
1501881549701895,16,11,6,26,11,3,0,27
1501881549701895,-6,-8,-17,-83,-17,-6,-2,2
1501881549702889,-17,-13,-13,8,2,1,-4,0
1501881549702889,9,8,17,5,5,3,5,-13
1501881549723900,-2,6,-3,14,3,-1,-2,-60
1501881549723900,21,-16,-4,60,10,-2,2,57
1501881549725891,-1,4,21,-1,-5,0,0,-18
1501881549725891,-6,0,-5,-29,-4,0,-1,-13
1501881549746933,-12,-3,-27,16,4,1,1,10
1501881549746933,0,6,20,29,-10,-5,-1,-10
1501881549748895,24,1,-5,-38,-2,-3,0,43
1501881549748895,-68,-6,-5,4,-6,-4,-5,-48
1501881549760913,-2,0,-21,-21,2,3,0,-9
1501881549760913,4,2,4,9,4,-1,-4,3
1501881549767893,3,0,4,14,1,-2,-3,1
1501881549767893,14,2,-22,-29,-1,4,1,21
1501881549783894,-1,-6,0,25,3,-1,-1,5
1501881549783894,-15,-2,-21,-34,-3,2,-3,-23
1501881549785909,-13,-4,24,6,-12,-7,-3,3
1501881549785909,42,4,1,-4,3,-3,-2,34
1501881549806895,-33,-2,6,-23,-4,1,-1,-18
1501881549806895,8,-4,-2,49,4,2,1,11
1501881549807895,-2,6,1,6,3,1,-1,4
1501881549807895,1,-6,-4,38,-13,-8,-4,4
1501881549828897,0,0,-1,-59,-1,-1,1,6
1501881549828897,17,-1,4,59,5,-1,-1,6
1501881549830931,-10,-6,1,-17,-4,-1,-4,26
1501881549830931,-13,1,1,0,7,6,-2,-64
1501881549844913,16,-1,0,14,1,-7,-5,18
1501881549844913,-37,1,-15,-33,-3,-1,-2,-24
1501881549846897,3,-7,2,24,5,-1,3,-10
1501881549846897,39,0,-15,-52,-7,-1,2,28
1501881549866898,-20,3,21,15,0,0,-1,6
1501881549866898,6,-7,-9,-18,0,-3,-4,29
1501881549867898,0,1,-9,-16,2,2,2,-3
1501881549867898,-11,-2,14,14,2,0,1,18
1501881549880946,19,3,9,26,-8,-8,-4,-5
1501881549880946,5,1,2,-58,-6,1,1,11
1501881549887938,3,-3,15,114,13,3,-2,-11
1501881549887938,-11,-6,-20,-5,-2,-2,-5,-30
1501881549903905,-8,1,-8,-45,-8,-4,0,-58
1501881549903905,11,10,36,-4,3,2,1,-6
1501881549905903,0,4,-9,-18,4,1,0,12
1501881549905903,17,-5,-22,12,-1,-3,-1,4
1501881549926903,-56,-11,12,44,6,0,-2,-2
1501881549926903,12,-3,-2,-42,-20,-6,-3,3
1501881549927904,26,7,2,-20,0,2,2,-6
1501881549927904,-25,-3,-3,3,-5,-2,1,-5
1501881549939908,6,3,-11,24,4,-1,-2,2
1501881549939908,-5,-2,-3,-44,-7,4,2,-3
1501881549948904,12,3,-7,-11,-2,-3,0,50
1501881549948904,6,-3,-6,-39,-5,0,-1,19
1501881549971913,5,-4,7,14,-1,1,-1,7
1501881549971913,-5,0,2,44,7,-3,-2,-19
1501881549972904,-8,-2,-12,-32,-6,3,2,-6
1501881549972904,-6,-1,-8,-31,5,0,1,3
1501881549985912,7,3,10,18,1,-5,-2,-3
1501881549985912,-2,-6,-12,-8,-10,-7,-3,3
1501881550001923,-9,-4,2,47,8,-2,0,-1
1501881550001923,0,3,8,-45,-12,0,0,37
1501881550001923,14,-1,-11,6,-2,1,1,-36
1501881550001923,-18,2,-1,-3,3,1,-3,-5
1501881550007915,-18,-5,-17,-22,-1,1,-2,-21
1501881550007915,14,-5,8,37,-7,-6,-4,14
1501881550023912,15,6,13,-18,-3,2,1,26
1501881550023912,-17,9,24,74,19,4,3,-15
1501881550025907,-26,-15,-28,-73,-18,-5,-2,4
1501881550025907,-6,5,-5,-18,0,-3,-3,12
1501881550046911,19,-5,2,-18,0,2,0,-13
1501881550046911,10,4,-1,43,-1,-2,-2,-18
1501881550048909,-11,-2,15,63,3,-12,-3,-3
1501881550048909,4,1,2,9,9,9,1,2
1501881550060951,-2,-3,-17,-15,-2,2,1,23
1501881550060951,-10,-4,-4,-17,4,2,1,13
1501881550067929,8,1,6,-28,-10,-4,-1,31
1501881550067929,-14,-4,-12,17,5,2,-4,-28
1501881550083946,-4,7,23,76,2,-1,0,-9
1501881550083946,13,-13,-29,-34,-13,-9,-8,24
1501881550089949,5,3,5,-7,1,0,2,-11
1501881550089949,-1,-7,-12,49,0,-2,-1,-6
1501881550106919,-4,3,26,0,3,2,1,7
1501881550106919,2,-4,-12,-36,-5,-2,0,2
1501881550107913,19,6,16,26,11,5,1,-2
1501881550107913,-8,-3,11,-9,-11,-8,-4,-8
1501881550119915,-5,2,2,18,1,1,1,5
1501881550119915,20,-5,-1,-27,-5,-3,-1,-1
1501881550129915,-9,3,-7,10,8,4,0,-20
1501881550129915,-2,-2,6,-2,1,1,0,-6
1501881550143933,9,-7,-18,-47,-11,-3,-4,35
1501881550143933,-13,8,14,37,11,4,1,-52
1501881550145916,7,-2,-3,-38,-5,-2,-2,10
1501881550145916,-23,-4,9,-11,-1,3,4,35
1501881550166919,17,-8,-30,6,-11,-7,-5,-13
1501881550166919,3,1,-2,4,-4,0,1,11
1501881550167916,-18,2,1,36,3,-2,0,-20
1501881550167916,18,5,18,6,5,-1,-2,2
1501881550180922,6,-1,0,-50,-9,-3,0,8
1501881550180922,-3,4,1,-28,-1,-2,-1,3
1501881550188918,-1,-3,10,3,-1,-4,-2,21
1501881550188918,-4,4,-23,3,0,0,-1,1
1501881550203938,-12,-3,-1,0,2,1,-1,-23
1501881550203938,-2,-1,30,-4,9,3,2,-7
1501881550205937,7,-10,-16,-12,-10,-2,-3,0
1501881550205937,2,0,-10,-73,-15,-9,-4,-7
1501881550226924,2,2,-12,39,3,1,-1,3
1501881550226924,3,1,8,-18,-3,-1,0,24
1501881550227926,-10,-6,-16,6,-2,-1,-3,-15
1501881550227926,8,0,9,49,7,3,1,-5
1501881550239924,14,-4,-7,-91,-10,-9,-5,47
1501881550239924,-4,1,2,18,2,-3,0,-5
1501881550248944,-7,-1,-27,-31,-4,3,0,-13
1501881550248944,14,-5,-16,17,-4,-1,-1,-8
1501881550263925,-12,-2,14,4,9,2,2,7
1501881550263925,-2,-7,-7,41,1,0,-1,-2
1501881550265924,41,8,1,-46,-13,-3,0,-1
1501881550265924,-24,-4,-13,2,4,-1,-3,-14
1501881550286923,-3,4,15,34,2,5,3,-8
1501881550286923,-12,3,19,-5,-5,-5,-4,-9
1501881550287923,3,1,-22,-25,7,3,1,11
1501881550287923,41,-6,-20,46,3,-3,-4,-14
1501881550299943,-34,-8,-19,-72,-6,-4,0,-17
1501881550299943,11,4,10,55,0,-1,-1,-32
1501881550308930,-9,2,12,-18,-11,0,-2,-11
1501881550308930,-2,1,12,28,6,4,2,5
1501881550323985,-4,-6,-20,-61,-6,-5,-5,-21
1501881550323985,-3,-3,-1,0,-5,-4,-3,21
1501881550325929,-11,-4,-3,2,2,2,1,-8
1501881550325929,-14,6,23,3,2,2,2,-40
1501881550346966,-3,2,-15,16,0,3,3,23
1501881550346966,4,-5,3,-22,-1,-1,-2,5
1501881550348927,-27,-5,-12,23,-2,-9,-7,-15
1501881550348927,-5,-4,5,19,4,3,0,26
1501881550359974,18,9,14,-25,3,6,3,-12
1501881550359974,-7,-7,-21,-40,-18,-5,-3,-3
1501881550368928,-7,-3,21,22,5,2,1,-8
1501881550368928,12,6,6,-26,-3,-6,-5,-12
1501881550383965,-6,2,24,59,8,0,1,-5
1501881550383965,4,-2,-36,-45,-2,4,0,6
1501881550385930,-6,-4,3,50,-3,-10,-5,-9
1501881550385930,-10,-3,0,-20,3,3,-1,-23
1501881550406930,-14,-1,7,62,-5,-10,-5,-9
1501881550406930,9,3,0,-33,-3,5,2,4
1501881550407931,-6,-1,0,1,-1,0,0,-11
1501881550407931,3,0,-4,-53,-8,-6,-3,17
1501881550419932,-6,-1,5,71,2,0,-3,19
1501881550419932,-12,3,-3,27,5,1,2,-1
1501881550428942,0,3,8,-6,5,0,0,10
1501881550428942,-1,4,20,14,-3,2,1,-7
1501881550443933,7,-3,-24,-28,-5,1,-1,-9
1501881550443933,-10,-3,4,17,3,-5,-3,-33
1501881550445932,15,-2,1,-5,6,3,-1,-8
1501881550445932,-2,-1,4,2,-16,-5,1,31
1501881550465952,-7,1,7,-6,6,-1,0,-37
1501881550465952,5,-8,-48,-33,-5,-1,-3,11
1501881550467933,9,4,12,29,2,-2,2,-3
1501881550467933,-10,-4,-16,-27,-5,-8,-3,0
1501881550479950,19,-3,10,28,5,7,3,35
1501881550479950,10,3,17,-9,-3,-2,0,4
1501881550488935,-34,-4,-22,-20,-1,1,-1,-24
1501881550488935,1,-6,-8,1,-6,-8,-2,9
1501881550503938,-15,-6,1,6,0,-2,-3,-16
1501881550503938,-8,1,-2,-20,6,-1,-2,1
1501881550505937,0,4,7,6,-7,2,0,17
1501881550505937,7,-4,-4,1,-2,-3,1,4
1501881550525938,21,1,3,25,1,-4,-4,-40
1501881550525938,-11,-10,-10,-56,-4,-3,-1,22
1501881550527938,-10,5,23,60,0,-3,-2,-1
1501881550527938,-9,-2,-19,-12,4,3,1,-2
1501881550539938,13,4,5,2,0,3,-1,25
1501881550539938,6,2,20,71,18,5,2,50
1501881550548939,11,-11,-21,-61,-16,-7,-3,-18
1501881550548939,6,2,-1,-43,-4,1,2,4
1501881550563939,-6,-3,-10,-12,-3,-3,-2,11
1501881550563939,3,0,-7,0,-2,-2,-3,14
1501881550565940,-8,4,23,45,11,4,0,7
1501881550565940,-14,2,35,27,-1,2,1,-8
1501881550585940,-17,-11,-26,-56,-7,-7,-6,-17
1501881550585940,-14,-1,-7,14,-4,-3,-1,-23
1501881550587941,-1,1,1,2,-2,-2,-1,3
1501881550587941,19,-1,-12,-1,-3,-2,-5,5
1501881550608958,0,3,18,74,14,1,3,-18
1501881550608958,-3,-4,1,-58,-15,-1,-1,-12
1501881550610944,-9,4,-8,-61,-3,-3,-2,-11
1501881550610944,14,-7,-12,4,3,-1,-2,12
1501881550623943,17,2,8,-33,-9,1,0,57
1501881550623943,-2,12,11,58,8,2,-1,-76
1501881550625942,-13,-25,-26,-29,-8,-1,-4,4
1501881550625942,1,6,7,44,8,4,2,-2
1501881550646944,-18,-1,-25,-27,-2,0,1,-34
1501881550646944,-8,2,4,-6,3,5,3,9
1501881550648944,11,7,26,112,14,-2,-1,16
1501881550648944,-2,-8,-18,-63,-21,-6,-5,-28
1501881550668945,-22,1,4,-1,0,0,-1,-22
1501881550668945,13,-1,11,-13,-3,-5,-1,17
1501881550670948,3,0,-16,-23,-6,0,-2,-39
1501881550670948,-5,4,13,24,13,1,3,11
1501881550690949,-6,0,15,10,-2,-1,0,4
1501881550690949,2,-4,-23,-7,-4,-1,0,-2
1501881550692948,34,-6,-4,6,2,-4,-4,33
1501881550692948,-8,3,-5,-83,-7,-1,-1,4
1501881550705948,2,-1,4,-7,-3,-1,0,4
1501881550705948,-14,-1,16,36,4,-1,1,-4
1501881550707948,22,-2,-9,-20,-8,-1,0,31
1501881550707948,-24,1,7,16,4,1,-2,-11
1501881550735951,5,-3,-17,-19,-9,-4,-2,9
1501881550735951,-6,-7,-20,-12,-3,-4,-3,11
1501881550737952,-5,1,-18,-22,-3,4,4,-15
1501881550737952,-10,-8,11,18,3,-4,-5,-3
1501881550742952,16,0,2,-17,-1,1,1,2
1501881550742952,-1,5,23,31,2,0,2,1
1501881550749965,1,-1,-15,-45,-2,-1,-2,3
1501881550749965,-22,3,-6,76,8,2,1,-9
1501881550765950,-3,-8,19,33,-10,-6,-4,19
1501881550765950,3,-2,-11,2,-8,-4,-2,16
1501881550767952,-13,-8,-25,-25,0,-2,-2,-13
1501881550767952,6,2,-4,-29,3,3,2,-5
1501881550788952,-16,1,5,-10,6,-1,-1,8
1501881550788952,25,-3,-9,-5,-6,-9,-4,24
1501881550790953,-9,1,9,9,6,7,2,-3
1501881550790953,11,0,0,-27,-7,-5,-2,8
1501881550802955,-3,0,-27,-17,3,3,3,-4
1501881550802955,3,1,28,39,3,5,-1,-11
1501881550809958,1,-2,26,2,-6,-4,1,0
1501881550809958,-6,-6,-34,-25,-2,4,-4,-42
1501881550826956,18,2,2,6,0,-1,-4,-9
1501881550826956,-7,-3,-10,-33,0,0,1,4
1501881550827954,21,15,31,3,6,3,1,-13
1501881550827954,-26,-7,16,37,-4,-2,1,21
1501881550848976,-9,-6,-17,-13,5,-4,-4,-59
1501881550848976,-20,-1,12,-26,-10,-1,-2,-26
1501881550850976,-13,1,0,2,-5,-2,0,6
1501881550850976,41,-1,-3,28,2,-3,0,15
1501881550862961,-2,0,-5,-41,4,6,2,15
1501881550862961,11,1,-7,-63,1,-3,0,11
1501881550869978,-4,-6,13,80,-3,-2,-4,4
1501881550869978,-3,-4,-18,-6,-5,-5,-3,0
1501881550886000,2,4,14,3,3,4,0,-10
1501881550886000,-7,-1,13,12,-2,0,-1,-4
1501881550887958,-2,1,3,-22,0,-3,-2,15
1501881550887958,0,-2,6,33,8,1,-1,0
1501881550908986,-7,-2,-1,58,-10,-10,-4,-1
1501881550908986,7,-8,-38,-90,-4,6,4,21
1501881550910975,-5,-4,-5,24,-8,-6,-3,-16
1501881550910975,-2,-1,4,2,2,2,1,7
1501881550922961,1,-1,7,-15,-3,-3,0,25
1501881550922961,-1,-1,-18,29,0,-3,-5,-27
1501881550929964,-6,1,7,-4,2,3,2,-9
1501881550929964,-2,-2,-2,-58,-3,0,-2,-4
1501881550946963,-36,3,-6,-18,-4,-4,-2,11
1501881550946963,8,0,24,71,4,1,2,-19
1501881550948963,18,-4,-17,-19,4,1,-2,0
1501881550948963,-4,1,8,-15,-8,-3,0,-2
1501881550968982,6,-3,-8,2,5,3,1,47
1501881550968982,-12,-3,-5,-19,-15,-6,-3,-34
1501881550970963,-16,-2,-10,-46,0,-6,-1,-9
1501881550970963,10,0,5,28,-1,4,0,15
1501881550983004,13,3,25,31,5,1,0,7
1501881550983004,-2,-8,-32,0,0,-2,-1,6
1501881550989980,9,0,-9,-33,-10,-3,-4,6
1501881550989980,-13,2,15,38,12,1,-1,-15
1501881551005969,5,1,-6,-61,-12,4,2,-12
1501881551005969,-6,-8,5,112,12,-1,-3,1
1501881551014967,-3,0,-21,9,-8,-3,-2,-9
1501881551014967,-3,-1,-6,-17,0,-1,-2,2
1501881551029018,11,5,9,-20,0,-1,-1,-12
1501881551029018,-18,-4,-5,-40,-3,0,-2,6
1501881551036984,9,1,18,44,11,4,3,-5
1501881551036984,-19,-4,-6,20,-5,-4,-4,-15
1501881551042968,4,-3,0,9,-6,-6,-2,1
1501881551042968,1,7,8,-2,1,1,0,-2
1501881551051974,8,-1,-2,-46,5,0,-2,40
1501881551051974,-5,-4,-2,28,-4,-2,-1,-1
1501881551065969,27,-1,-5,11,-1,-2,0,3
1501881551065969,-25,2,13,-2,-1,1,2,4
1501881551067968,-8,-9,-18,1,-4,1,-2,-3
1501881551067968,-2,1,-5,-19,1,-4,-2,-7
1501881551088987,1,1,5,41,5,0,0,1
1501881551088987,7,-3,-28,-78,-2,1,2,24
1501881551090992,21,3,34,36,-2,-3,-1,-8
1501881551090992,10,5,0,-16,-2,-5,-2,4
1501881551102971,-17,-7,-8,32,5,4,1,-18
1501881551102971,-4,-5,-4,20,-5,-1,0,-6
1501881551111981,-14,0,0,14,8,2,-1,-5
1501881551111981,-4,-1,-6,-18,-5,-1,1,0
1501881551126981,-2,3,8,-15,-3,0,-1,-5
1501881551126981,6,-1,-2,3,5,-4,-5,1
1501881551127982,-21,0,6,-57,-9,-4,0,-8
1501881551127982,11,-1,-6,7,-3,2,0,15
1501881551148973,23,-2,-16,-7,3,-1,1,-4
1501881551148973,2,2,-3,-19,4,5,2,2
1501881551150993,-12,0,9,33,-4,-5,-2,3
1501881551150993,-12,-4,-14,-31,-4,-2,-1,2
1501881551162994,-18,-6,-9,15,1,-4,-2,-7
1501881551162994,20,-5,1,30,5,-1,-1,-7
1501881551171978,-2,-3,-14,7,-5,-1,-2,29
1501881551171978,34,1,7,-13,1,-2,-2,-8
1501881551186017,-2,3,-12,-22,-8,-2,-1,5
1501881551186017,-6,1,11,29,-6,-6,-3,-10
1501881551187975,-6,0,-2,-67,1,-1,-2,-19
1501881551187975,-3,1,6,-11,3,8,2,6
1501881551208984,-10,-6,-18,-23,-17,-5,-3,-8
1501881551208984,2,3,11,-7,-7,-3,-3,1
1501881551210981,11,-1,-3,-18,-6,-1,1,2
1501881551210981,-2,-5,-2,7,4,-5,-1,-2
1501881551222999,14,-4,2,-12,-1,2,1,31
1501881551222999,-4,0,3,19,2,1,3,-14
1501881551231997,3,-3,4,32,0,0,-3,-3
1501881551231997,1,1,6,2,3,2,-2,-9
1501881551246985,-8,0,11,50,3,0,0,-6
1501881551246985,-1,3,-16,-60,-4,-2,-2,7
1501881551248979,21,1,3,-20,-14,-4,-3,3
1501881551248979,-14,-6,-5,7,-7,-2,2,27
1501881551269001,-22,-1,-1,-60,-1,-3,-4,-30
1501881551269001,13,-2,3,39,3,-2,-2,3
1501881551271002,13,0,-16,15,10,4,0,-24
1501881551271002,-37,1,-2,-66,-16,-2,0,-67
1501881551283022,-11,-3,11,-1,-3,-9,-5,18
1501881551283022,-14,-2,-7,28,-3,2,-5,-47
1501881551291985,-5,4,39,48,9,4,3,9
1501881551291985,20,-7,-50,-37,-7,-9,-3,15
1501881551305986,15,-6,5,26,9,9,9,57
1501881551305986,10,6,0,-12,-13,-2,3,85
1501881551307983,-18,-1,5,-1,-3,-2,-3,-43
1501881551307983,21,-4,-3,16,7,1,-1,2
1501881551329992,-7,7,3,15,3,-1,-3,-62
1501881551329992,11,-1,5,7,6,-2,-2,60
1501881551335026,5,0,-4,-63,-3,3,2,-37
1501881551335026,-8,-1,28,56,3,-7,-1,42
1501881551343041,-11,-1,-15,-23,-6,1,1,-19
1501881551343041,-15,-1,3,8,7,2,-4,-103
1501881551351991,-28,-1,-1,-15,-7,-1,-1,-7
1501881551351991,31,1,6,64,16,3,1,15
1501881551366007,-6,-2,-12,-74,-15,-2,-2,37
1501881551366007,-14,-1,13,-6,-5,-4,-1,-4
1501881551367986,8,-3,-7,64,11,3,0,26
1501881551367986,-2,0,16,-62,-9,-2,-1,33
1501881551389008,12,-3,-15,50,2,-2,2,36
1501881551389008,2,-1,-3,-50,-2,0,-8,-80
1501881551391007,-29,-2,12,8,0,1,-1,-8
1501881551391007,-13,-8,-34,10,-11,-4,-3,-17
1501881551402990,20,7,28,37,10,-6,-5,9
1501881551402990,-10,-4,-17,-19,-5,-1,3,12
1501881551411990,-1,-2,7,50,10,-2,2,11
1501881551411990,-6,-1,12,-8,-15,3,-2,-2
1501881551433993,-17,-4,-43,-35,-9,-7,-5,-55
1501881551433993,8,-3,9,32,0,-6,3,16
1501881551436012,-1,-1,-16,-1,4,4,0,5
1501881551436012,4,2,2,0,5,0,5,17
1501881551450032,1,-3,-4,40,0,-2,-4,-2
1501881551450032,12,1,12,-32,-7,-2,-1,-45
1501881551455002,19,-2,-30,-44,-6,-6,-4,-24
1501881551455002,-15,-1,-10,-4,1,-1,-2,-29
1501881551463022,5,0,18,63,-7,-4,-3,-6
1501881551463022,-9,-8,-21,-10,3,3,0,15
1501881551471992,-3,-1,10,-3,-6,-4,0,20
1501881551471992,16,3,3,2,-2,-1,-3,-19
1501881551486010,2,3,24,43,6,3,0,40
1501881551486010,25,-1,-11,-12,0,-2,2,45
1501881551487994,-9,1,6,30,0,1,0,16
1501881551487994,-3,0,-11,-53,1,0,-1,-12
1501881551508995,1,3,14,7,-2,0,-2,20
1501881551508995,-3,-4,-9,-1,0,1,0,15
1501881551511004,10,-4,-2,-3,0,-1,-2,18
1501881551511004,-5,2,5,13,4,0,-1,-27
1501881551532013,1,1,11,30,1,-2,-4,-24
1501881551532013,-31,-7,-8,-67,-7,-6,-2,13
1501881551532996,19,-4,-19,2,-5,-2,-3,22
1501881551532996,-4,2,5,16,1,0,0,-12
1501881551545996,-1,-6,-12,-35,2,6,3,-17
1501881551545996,3,7,10,12,1,-1,-1,-3
1501881551547996,-6,0,7,16,2,0,0,-22
1501881551547996,27,1,-5,-39,1,1,-2,25
1501881551568998,-35,-12,-6,30,-18,-10,-6,-25
1501881551568998,-2,1,-10,4,-1,-1,0,-6
1501881551571000,4,0,4,-49,-4,-1,2,59
1501881551571000,-11,4,21,71,3,2,-2,-56
1501881551591003,1,-4,-6,-21,10,3,0,-3
1501881551591003,11,0,7,3,-7,1,-2,30
1501881551593002,-10,-1,-9,6,0,0,1,-13
1501881551593002,-3,0,14,-45,0,2,3,18
1501881551606004,15,-8,-32,20,8,0,1,50
1501881551606004,21,-1,6,-26,-23,-4,-4,-43
1501881551608001,-34,-1,-2,-11,3,1,4,-16
1501881551608001,12,1,0,20,-4,-2,-4,-3
1501881551629002,2,5,14,-13,2,-2,0,-7
1501881551629002,10,0,-3,23,11,5,3,36
1501881551631009,19,-5,-14,-2,-6,-4,-7,-18
1501881551631009,-27,-7,0,13,-7,-4,-3,12
1501881551659005,-10,1,0,-48,-2,2,-2,-49
1501881551659005,-13,1,12,52,19,2,-3,-9
1501881551661006,15,-4,9,21,-16,1,2,71
1501881551661006,-18,-7,-30,-27,-2,-4,0,-15
1501881551666004,-13,1,8,-94,-3,-1,-2,4
1501881551666004,-13,-1,-11,22,2,0,1,-50
1501881551673006,-14,4,4,-74,-8,-1,-4,-23
1501881551673006,8,-4,9,59,0,-1,-4,13
1501881551689006,0,-6,-25,-16,-6,-3,-2,-2
1501881551689006,1,4,9,5,2,0,0,12
1501881551691006,-6,0,-10,35,0,-5,-3,-9
1501881551691006,-9,-2,-6,14,0,-3,3,-15
1501881551711038,0,3,7,-76,-4,5,1,-10
1501881551711038,18,-4,-5,25,-4,-6,-3,28
1501881551713007,-10,1,-5,29,7,0,-1,-24
1501881551713007,-12,-2,12,0,-1,-1,-1,33
1501881551726008,13,-3,3,22,1,0,-1,-67
1501881551726008,-1,1,-15,21,2,-4,-5,28
1501881551733021,-15,2,-4,-72,-12,-1,3,20
1501881551733021,14,-1,-17,-40,3,4,0,-53
1501881551749023,-33,4,41,38,0,-1,0,-20
1501881551749023,8,-8,-7,3,-3,-3,-3,-3
1501881551751011,27,-1,-1,61,8,-1,-1,-13
1501881551751011,7,2,24,-18,-8,1,-3,-6
1501881551771012,-9,-2,-39,-15,1,3,0,-34
1501881551771012,-15,-1,24,15,1,1,1,-14
1501881551773011,3,2,2,-41,0,-3,-1,11
1501881551773011,4,2,7,18,3,2,1,6
1501881551786026,-14,1,2,-23,0,-3,-2,9
1501881551786026,4,-6,7,82,0,-1,-3,18
1501881551800026,-8,-2,7,-34,-5,-2,-1,-4
1501881551800026,-15,-2,-19,9,2,-3,-2,-12
1501881551809015,-10,-2,23,18,0,0,1,-10
1501881551809015,7,4,-30,-33,-2,2,2,18
1501881551811012,8,-1,7,21,4,-2,-3,6
1501881551811012,3,-3,-13,-68,-8,-1,-1,22
1501881551831027,17,-1,-7,19,5,-1,-3,36
1501881551831027,-7,3,8,-34,-2,-1,0,-16
1501881551833014,11,-2,-2,26,-3,-2,0,43
1501881551833014,-17,5,11,-20,6,4,1,-35
1501881551846030,9,-5,-12,9,-5,-2,-2,14
1501881551846030,-6,0,8,12,0,1,0,19
1501881551853013,6,-3,-2,-23,-11,-8,-3,-12
1501881551853013,-3,-1,5,72,10,0,0,16
1501881551869017,-9,-4,-7,-65,-19,4,1,2
1501881551869017,-3,7,9,-3,-4,-3,1,-68
1501881551871016,-2,-9,-30,-8,-3,-3,-4,0
1501881551871016,-4,0,5,-3,-3,-3,-4,-58
1501881551892017,-3,-4,-17,41,5,-1,0,-3
1501881551892017,25,2,14,-70,-3,-1,-1,28
1501881551894033,-37,-5,-6,33,-2,-2,-3,-35
1501881551894033,18,-2,0,18,-3,-2,2,36
1501881551906019,5,5,7,-22,5,2,0,11
1501881551906019,-4,-1,8,-5,7,3,-1,0
1501881551913019,-6,-2,2,8,-8,-1,-1,-4
1501881551913019,-1,-4,-3,-2,-1,-2,-2,27
1501881551929020,13,0,-4,13,1,-1,2,3
1501881551929020,-11,-1,-2,9,7,1,-1,2
1501881551931024,-1,-1,-9,13,-6,-4,-5,-16
1501881551931024,8,1,-11,-40,-5,3,1,-26
1501881551952041,16,2,8,16,-1,-2,-1,-24
1501881551952041,4,-5,-3,-22,0,2,4,39
1501881551953026,-12,3,0,13,10,1,-5,-56
1501881551953026,-7,-4,-2,3,-14,-6,0,27
1501881551966025,5,-1,-2,-11,-6,0,-3,27
1501881551966025,-13,1,4,-10,1,2,2,-13
