timestamp,emg1,emg2,emg3,emg4,emg5,emg6,emg7,emg8
1501881918218424,19,11,9,-80,0,7,12,-1
1501881918218424,11,-9,-7,-3,-4,-7,-10,-14
1501881918232424,58,6,-9,-19,-4,6,-17,-26
1501881918232424,-32,-8,-12,57,-6,-20,-38,-36
1501881918234423,72,13,9,53,8,8,52,73
1501881918234423,-83,6,33,16,18,10,41,-92
1501881918255425,3,-7,-9,-9,-29,-6,8,31
1501881918255425,3,-6,-11,-48,-5,0,-12,10
1501881918256424,60,-1,4,-4,-1,-5,-45,-34
1501881918256424,25,1,-15,0,4,-7,2,37
1501881918268437,-6,-2,14,26,-2,4,26,-3
1501881918268437,0,1,13,40,6,5,20,46
1501881918277425,-4,13,8,-22,-3,-4,-15,-7
1501881918277425,54,-30,-27,-53,-20,-9,-44,12
1501881918292434,-40,5,18,16,15,11,30,-35
1501881918292434,17,5,-14,-20,-3,-2,-2,87
1501881918294427,-48,-7,19,83,-2,-2,50,-3
1501881918294427,-5,-1,10,33,1,-4,-8,17
1501881918315431,32,16,-28,-114,6,0,3,17
1501881918315431,-45,-7,68,127,10,2,-34,-57
1501881918316427,-30,-7,-42,-68,-9,2,21,-18
1501881918316427,2,0,7,-55,-16,-3,4,-1
1501881918338430,71,-6,12,104,14,-14,-52,-4
1501881918338430,-76,19,1,-42,0,7,14,-37
1501881918340430,14,12,27,37,17,4,-4,11
1501881918340430,-26,-25,-45,-103,-38,-10,9,-50
1501881918353431,-16,-1,-13,79,18,-4,-18,10
1501881918353431,11,-16,14,-76,-15,-6,21,-41
1501881918355438,45,-3,-27,-114,-7,-3,-22,-12
1501881918355438,-30,16,5,98,10,4,1,40
1501881918375434,-34,6,24,0,-5,-2,-11,-17
1501881918375434,28,-4,8,-17,-6,-10,-2,-12
1501881918376432,-28,4,-20,-48,11,12,10,43
1501881918376432,35,11,47,-31,11,3,-13,54
1501881918390432,-54,-8,3,87,-16,-10,5,-24
1501881918390432,0,15,-22,-20,24,14,22,7
1501881918396434,30,-22,-19,-46,-31,-19,-15,-32
1501881918396434,-48,4,-20,-26,-6,0,-5,2
1501881918413433,-18,-7,42,61,15,7,11,-13
1501881918413433,10,9,-22,-4,-17,-5,3,8
1501881918414433,-23,-7,-32,20,13,-2,-45,24
1501881918414433,45,1,28,33,-7,1,39,-11
1501881918445438,7,1,4,26,7,3,22,35
1501881918445438,127,16,10,-49,-1,0,-20,51
1501881918446435,-98,-25,-22,56,-1,-3,1,-37
1501881918446435,14,0,2,19,-2,-8,-28,-20
1501881918449450,-30,13,-2,-96,1,-4,-36,26
1501881918449450,35,-16,-53,-24,4,9,33,27
1501881918463438,-58,-1,21,-8,-11,-3,30,-22
1501881918463438,-44,11,32,37,20,4,-7,2
1501881918472436,33,-21,-81,-79,-25,-11,-17,16
1501881918472436,-63,-21,-13,-19,-26,-12,-30,-41
1501881918474437,-19,22,32,23,17,3,19,1
1501881918474437,-21,-31,-86,30,-9,-1,3,-69
1501881918495451,92,13,14,-66,-12,6,18,-26
1501881918495451,-25,-9,59,108,5,-10,-10,-11
1501881918496438,41,11,10,-16,-8,1,1,5
1501881918496438,-17,-2,20,68,20,3,-29,6
1501881918508439,15,3,-13,-64,-11,4,48,30
1501881918508439,-3,-18,-46,-67,-5,-1,-10,-46
1501881918533440,20,4,0,47,1,0,-9,-9
1501881918533440,80,26,29,-53,-7,0,3,32
1501881918534440,-80,-13,-32,1,3,-1,0,-12
1501881918534440,6,2,24,67,8,-2,0,12
1501881918535461,-4,-13,20,-11,-4,-1,-3,35
1501881918535461,-13,-10,-64,-49,-21,-14,-33,-24
1501881918562463,-8,9,43,25,7,1,-7,-10
1501881918562463,21,7,-1,15,4,2,1,23
1501881918564462,-4,2,8,22,-5,-3,24,86
1501881918564462,-10,-7,9,24,13,1,-4,-2
1501881918585462,10,12,36,-31,-5,-1,3,-13
1501881918585462,-31,3,4,100,7,-5,-9,-5
1501881918586463,9,-12,-35,-45,6,11,9,21
1501881918586463,-69,-3,-4,-102,-10,4,12,-50
1501881918599498,-19,3,-4,123,16,-3,-8,25
1501881918599498,33,13,9,-50,1,5,-13,20
1501881918607444,-4,-14,-22,44,1,-8,4,-112
1501881918607444,-29,-10,-18,35,-2,-5,4,17
1501881918615476,3,-4,-3,-67,-6,2,-1,-38
1501881918615476,-12,3,24,-11,21,7,1,12
1501881918629488,-3,6,-14,17,-17,-5,-10,-1
1501881918629488,40,-11,-29,12,-3,-2,0,73
1501881918630463,-3,5,25,28,9,3,-8,-24
1501881918630463,11,0,-20,13,-6,-2,16,-14
1501881918653469,12,7,38,32,15,5,-4,-7
1501881918653469,37,-5,-36,-84,-12,-3,-9,16
1501881918654467,-25,-6,15,-7,-18,-4,9,25
1501881918654467,-38,5,8,8,9,1,0,-29
1501881918655465,47,-4,-11,-25,-4,-2,-12,-11
1501881918655465,-38,5,19,-33,3,5,1,-9
1501881918675449,1,-10,0,48,18,-1,-1,15
1501881918675449,0,0,-17,-68,-18,-3,1,-16
1501881918677448,34,-8,-4,-21,-1,-3,0,13
1501881918677448,2,14,19,64,14,2,5,0
1501881918688453,8,-7,6,-36,-8,2,-3,10
1501881918688453,-9,-15,-37,-17,1,-1,1,-22
1501881918697513,29,8,-26,-35,-4,-3,-4,40
1501881918697513,47,-8,-4,-33,-5,1,9,5
1501881918713450,-63,-5,-4,-51,-3,-6,-11,-10
1501881918713450,-31,4,14,99,7,0,-13,-66
1501881918714456,-27,-7,0,-61,-18,-8,5,-15
1501881918714456,0,6,12,45,4,0,-1,-3
1501881918736489,8,-6,21,63,1,1,7,15
1501881918736489,-14,0,30,-128,-22,-9,-12,-40
1501881918738453,-7,-2,-41,40,3,-2,-4,16
1501881918738453,19,7,37,5,-8,-1,2,-32
1501881918758452,-4,-8,-27,2,0,-1,3,4
1501881918758452,43,5,16,65,22,10,15,91
1501881918763473,-12,-1,-4,-15,-15,-1,-5,-10
1501881918763473,-6,-3,-5,-22,1,-3,-5,-2
1501881918772454,35,-2,-26,19,1,-2,-12,32
1501881918772454,33,-9,-11,33,-2,-4,5,29
1501881918774454,0,3,14,-55,-10,-6,2,-61
1501881918774454,-9,7,23,16,6,3,-3,-3
1501881918795522,25,-3,-45,-74,-5,-1,-1,-7
1501881918795522,-42,-1,18,109,13,4,5,13
1501881918796456,-4,10,70,30,8,1,-6,28
1501881918796456,-30,-15,-44,-25,-23,-10,-5,28
1501881918808461,63,-2,8,97,8,3,16,59
1501881918808461,-33,2,-8,-128,-21,-4,-3,-11
1501881918817479,-39,6,-20,-46,7,7,4,33
1501881918817479,4,1,18,-1,-2,1,10,-22
1501881918832512,-20,5,2,11,10,-3,-8,-74
1501881918832512,21,-7,-4,28,-4,2,5,19
1501881918834458,-1,-2,13,58,-10,-9,-5,53
1501881918834458,-21,-6,-13,-47,-2,4,-2,-20
1501881918862480,-2,-7,-38,-7,-6,-6,-4,12
1501881918862480,23,3,-6,0,5,0,10,-46
1501881918864463,1,4,17,2,10,3,-2,-18
1501881918864463,-3,-5,-31,4,-5,-2,-7,12
1501881918868463,-19,11,50,69,14,7,1,-29
1501881918868463,36,-8,-26,-22,-34,-8,-2,60
1501881918885460,2,4,11,49,4,3,4,-10
1501881918885460,10,-9,-25,13,0,-7,-8,-23
1501881918900499,-4,2,29,-32,-10,-5,-2,15
1501881918900499,-1,2,-18,50,11,1,-2,-9
1501881918906482,-31,-3,10,1,6,1,-4,-2
1501881918906482,7,-1,19,15,0,-1,4,37
1501881918915469,-2,6,22,20,-2,1,2,11
1501881918915469,63,-11,-34,64,-1,-8,-9,24
1501881918921469,-28,-23,-23,-76,-18,-1,5,-18
1501881918921469,-17,7,-1,17,12,4,-2,10
1501881918928484,-8,3,32,66,9,5,1,-7
1501881918928484,14,5,-1,-117,-3,0,11,-2
1501881918937465,-11,-9,-24,-55,-10,-5,-14,3
1501881918937465,19,16,41,42,11,6,5,-3
1501881918952466,-19,-9,-34,7,-9,-3,-4,-16
1501881918952466,-43,-1,18,-19,-1,-1,-5,-16
1501881918954466,27,4,11,25,11,0,4,8
1501881918954466,-32,8,33,12,2,5,3,-42
1501881918975469,-24,-7,-27,-38,0,-4,-4,5
1501881918975469,-2,-9,16,-6,-9,-3,-4,-21
1501881918977468,13,1,6,3,-8,-6,-8,4
1501881918977468,17,21,40,-39,10,6,10,80
1501881918996466,10,-9,-46,-20,-8,-2,-3,-5
1501881918996466,-24,2,-16,-9,4,0,-3,-5
1501881919022472,38,10,37,116,20,8,-4,94
1501881919022472,-36,-16,-18,-46,-18,-6,-7,-10
1501881919023468,12,14,2,-71,-9,-2,6,4
1501881919023468,47,-8,-33,32,9,-6,-4,61
1501881919043471,13,2,16,-34,-1,7,8,-77
1501881919043471,27,-3,-21,69,11,-2,-13,16
1501881919045469,-4,-5,14,38,-5,-5,-3,-20
1501881919045469,28,3,-13,-31,-6,5,4,38
1501881919046470,-12,7,6,52,20,3,2,-38
1501881919046470,-36,-15,-47,-16,-16,-6,8,-56
1501881919065472,-10,-3,-3,-78,-6,0,-3,-21
1501881919065472,-48,9,40,87,11,-1,-4,-11
1501881919067472,5,-23,-57,-118,-22,-8,-8,5
1501881919067472,30,8,30,82,3,0,0,24
1501881919072471,20,-8,-84,7,-6,-3,4,56
1501881919072471,-35,0,20,-56,-2,4,-5,-30
1501881919074472,-12,-6,-16,-16,-7,-9,2,-82
1501881919074472,30,-1,-5,-9,3,1,-7,10
1501881919095472,-4,5,22,-51,-2,1,2,11
1501881919095472,-16,9,33,26,3,5,7,-9
1501881919097473,12,-4,-45,30,6,-1,-7,-4
1501881919097473,-26,-1,12,-44,0,-6,1,-20
1501881919117480,13,4,28,87,12,0,-11,-32
1501881919117480,-30,-9,-4,-59,-11,-5,2,-15
1501881919119474,-8,8,-8,73,10,3,-4,-40
1501881919119474,9,-5,-4,-67,-3,0,-1,0
1501881919140476,4,-3,30,-15,-5,1,-5,-27
1501881919140476,-30,-2,-14,-24,-7,-4,-6,-52
1501881919142475,24,3,22,110,15,0,6,112
1501881919142475,6,2,-20,-19,-14,-6,-5,-9
1501881919162478,-16,-6,2,13,1,2,4,-16
1501881919162478,24,-4,-36,9,-1,3,1,36
1501881919216480,16,0,23,-28,-23,-8,-1,35
1501881919216480,-14,-1,12,37,6,2,-3,-25
1501881919217484,25,-1,4,-57,-11,-5,-1,66
1501881919217484,13,-1,-4,41,9,-4,-5,-2
1501881919218481,-8,-14,-10,27,6,4,3,8
1501881919218481,-13,2,-18,-6,-2,0,-8,-16
1501881919230482,-21,-13,-33,-1,-7,-4,5,48
1501881919230482,-1,0,19,17,3,-5,-5,-9
1501881919232481,-27,2,0,-68,-25,-10,-5,-53
1501881919232481,10,-1,-1,45,12,3,3,29
1501881919237493,6,-3,-11,64,11,-1,-8,-37
1501881919237493,-23,-7,7,-84,-14,-1,3,-12
1501881919239482,13,9,-3,79,10,-1,-11,0
1501881919239482,6,2,3,-66,-19,-1,6,-1
1501881919252487,26,-5,-2,12,-7,-8,-8,-62
1501881919252487,18,1,1,-46,-5,1,1,22
1501881919258482,2,-7,-25,-15,-2,1,-4,54
1501881919258482,10,-6,-13,-18,0,-2,-4,-84
1501881919274484,-12,-5,5,15,-4,-6,-19,-36
1501881919274484,-10,2,11,4,7,5,14,-22
1501881919282497,-2,7,52,104,9,-2,0,-16
1501881919282497,-3,-2,18,-12,-13,-2,1,25
1501881919305502,-26,-7,-15,-66,-20,-4,-1,0
1501881919305502,33,-6,-45,-11,9,3,-2,2
1501881919307489,6,8,9,-19,1,3,-5,-21
1501881919307489,-24,-12,-14,13,4,-1,5,1
1501881919320487,-6,1,8,14,7,-2,2,29
1501881919320487,-9,10,27,25,3,1,-1,-49
1501881919321489,-3,0,-17,-17,-5,2,8,26
1501881919321489,35,-4,-9,-21,-13,-2,-2,22
1501881919366488,-20,5,-4,-9,5,2,1,0
1501881919366488,3,-7,-2,19,5,2,-2,29
1501881919368492,30,5,19,10,0,-8,-2,50
1501881919368492,4,5,-15,-34,5,3,1,-16
1501881919368492,23,-2,20,79,-1,-2,4,64
1501881919368492,-32,-4,1,-25,-10,-6,-3,25
1501881919374489,14,-3,-13,-6,-3,-6,-19,24
1501881919374489,-13,-2,-4,-58,-8,1,18,13
1501881919375494,16,9,21,-37,7,8,9,-24
1501881919375494,-8,-12,-46,41,0,-2,-3,46
1501881919395533,-1,1,18,6,0,-2,-4,33
1501881919395533,3,-9,-48,-52,-10,-7,-10,-6
1501881919396493,-11,2,37,35,4,3,2,-21
1501881919396493,49,2,-55,-69,-8,0,-4,25
1501881919398492,-18,4,20,-31,2,4,14,-16
1501881919398492,-1,-10,9,56,15,-2,-3,3
1501881919417506,-2,-4,-19,6,-5,-5,0,-1
1501881919417506,-42,6,39,2,0,0,-7,-31
1501881919419492,13,-15,-51,-40,-11,-1,7,-2
1501881919419492,12,10,24,55,12,2,-4,81
1501881919440495,-16,8,41,-6,-3,2,-4,-25
1501881919440495,8,-15,-61,9,5,-3,-6,-69
1501881919441493,-15,0,-7,-16,-4,-5,0,-11
1501881919441493,8,-1,8,-23,-2,-1,-14,-22
1501881919463494,35,3,4,-15,3,1,15,50
1501881919463494,-14,1,11,60,-6,-2,-2,-1
1501881919464494,8,-5,-7,-25,4,5,2,44
1501881919464494,-17,-2,-10,12,-9,-2,1,-53
1501881919477517,1,3,12,-16,3,-1,-6,11
1501881919477517,-27,6,15,-14,-5,-3,-3,-19
1501881919485500,32,-9,-13,11,1,0,-1,37
1501881919485500,9,-4,18,8,7,1,1,11
1501881919500497,-10,-6,-24,40,-10,-7,-7,-23
1501881919500497,2,15,40,-63,6,6,6,-9
1501881919501497,-29,-15,-13,-6,-11,-5,-7,-49
1501881919501497,3,-2,-37,-71,-19,-8,-2,45
1501881919515511,-8,1,-9,2,1,-3,-6,-48
1501881919515511,18,1,28,-10,2,-4,-2,0
1501881919516497,-31,3,8,47,10,0,3,-3
1501881919516497,27,1,-18,-50,-14,5,3,-10
1501881919537508,-17,2,2,65,8,-3,0,-23
1501881919537508,11,-5,9,-38,-7,-7,-4,29
1501881919539499,-7,7,31,39,4,5,1,-42
1501881919539499,-61,-8,-16,55,7,-3,-5,-53
1501881919551538,20,-8,-52,-80,-12,-1,-1,46
1501881919551538,0,7,29,72,9,0,-1,-37
1501881919560503,-1,-6,-52,-85,-19,-2,3,14
1501881919560503,-4,3,13,52,-1,-2,-4,-9
1501881919574522,-2,12,46,42,16,6,2,1
1501881919574522,2,-31,-47,-25,-7,-4,-6,22
1501881919581545,-5,-4,15,-7,-6,-4,-6,-50
1501881919581545,39,12,9,0,11,6,6,32
1501881919598503,-18,-9,-23,-65,-13,-9,-4,-14
1501881919598503,-7,11,24,38,1,6,4,11
1501881919603540,1,0,-6,27,8,-1,-1,20
1501881919603540,-10,2,29,-32,-16,-5,0,-5
1501881919620524,16,3,-26,-22,3,0,-4,-13
1501881919620524,7,0,3,85,0,2,13,22
1501881919621515,-16,-6,0,-13,-6,-8,-11,-85
1501881919621515,-25,4,19,51,15,1,4,-37
1501881919642532,5,-5,3,-20,-21,0,-8,42
1501881919642532,-14,2,1,-4,10,2,9,20
1501881919645507,25,1,-16,-17,0,3,2,25
1501881919645507,-4,-2,14,59,5,-1,-2,15
1501881919665541,-3,-6,-19,-14,2,-1,-4,-32
1501881919665541,20,-3,4,44,-2,-2,-8,-5
1501881919667543,15,2,-16,-39,-6,-11,0,36
1501881919667543,-11,-1,19,69,2,4,-1,-21
1501881919671510,-6,0,18,10,-4,1,7,19
1501881919671510,-6,-1,-7,-53,0,-1,-5,45
1501881919695508,-7,0,-3,71,11,2,6,-7
1501881919695508,8,-9,-17,-73,-22,-9,-8,7
1501881919696518,-21,-5,-3,-20,12,2,-1,-13
1501881919696518,28,5,7,-74,-5,2,-1,66
1501881919698509,0,18,35,50,-1,-2,-3,-31
1501881919698509,-9,-15,-37,3,-4,-2,1,2
1501881919717535,23,-9,-6,48,7,-1,0,-3
1501881919717535,-37,-11,-19,-15,1,-1,-2,-9
1501881919719512,25,12,8,-27,1,8,2,28
1501881919719512,-1,0,8,8,0,-6,-10,-21
1501881919741515,-1,3,5,3,-1,-1,4,6
1501881919741515,-19,0,-23,-6,-3,0,-4,-91
1501881919763512,-24,-2,-1,0,12,3,-1,-6
1501881919763512,17,-3,25,75,3,-4,-1,24
1501881919764533,-2,7,5,18,0,3,7,3
1501881919764533,4,-11,-42,-60,-13,-6,-2,-11
1501881919765511,-14,-4,-3,-28,-1,0,3,19
1501881919765511,-11,-1,1,10,1,5,-1,-28
1501881919776515,-14,-3,-10,-8,7,-2,-5,-12
1501881919776515,5,1,12,-1,-11,-4,-5,42
1501881919785514,-22,-7,2,-18,-7,-2,4,-6
1501881919785514,14,2,-12,56,9,-2,-3,29
1501881919791540,-19,-8,-6,-50,-13,2,2,25
1501881919791540,-19,4,-10,32,1,-3,-3,-52
1501881919800516,-15,-2,-14,-50,-2,3,1,-13
1501881919800516,-16,6,-2,77,10,-2,0,5
1501881919815577,15,2,15,-44,-5,1,-2,8
1501881919815577,10,-3,-17,25,-2,1,2,6
1501881919816515,-7,-5,3,30,-1,-3,-1,-1
1501881919816515,8,0,6,-6,-2,1,6,1
1501881919838540,-2,6,24,70,12,0,-2,-3
1501881919838540,-14,-5,-10,-85,-17,-4,-1,-32
1501881919839516,16,6,9,7,2,1,1,-13
1501881919839516,-11,-14,-12,-19,-5,-2,-4,8
1501881919851521,-7,0,4,15,1,-3,-1,-9
1501881919851521,-28,1,12,-11,-6,-3,-2,-42
1501881919860517,22,-10,3,64,2,-3,-2,13
1501881919860517,74,15,-27,-83,-2,1,1,70
1501881919874536,-24,-1,11,14,2,2,-2,-33
1501881919874536,5,0,-16,-20,14,3,-2,-1
1501881919882519,-5,-9,-9,-18,-15,-10,-6,-16
1501881919882519,-5,-1,17,28,-7,1,0,-15
1501881919898584,-27,-3,11,17,-7,-4,-2,-2
1501881919898584,56,-2,-8,9,1,-3,2,30
1501881919899530,-10,0,3,-39,3,3,1,10
1501881919899530,-24,3,26,24,7,3,-4,7
1501881919920526,-3,4,-15,-8,8,2,-6,-6
1501881919920526,-30,-2,11,-45,-19,-4,-4,6
1501881919922522,23,6,49,22,7,0,4,12
1501881919922522,-16,-9,-40,-54,-2,-2,-4,-5
1501881919942523,6,-5,-27,-36,-3,0,1,-15
1501881919942523,8,1,16,49,12,3,0,-22
1501881919945529,0,3,4,-5,-5,-4,-7,9
1501881919945529,-14,5,9,-15,7,2,0,-29
1501881919965524,14,-4,1,26,-4,-3,-2,23
1501881919965524,31,-3,8,4,-5,-2,4,45
1501881919971524,-33,-1,-22,-27,-11,-3,-4,-55
1501881919971524,-20,5,24,49,10,3,2,-27
1501881919996544,-13,-8,-45,-60,-16,-7,-7,-1
1501881919996544,-4,5,5,-6,1,2,0,38
1501881919998544,0,-7,-6,62,-3,-3,-5,-5
1501881919998544,8,3,9,-26,-3,-1,1,2
1501881919998544,-4,-2,-17,14,0,-5,-3,-31
1501881919998544,-1,1,-3,90,9,2,-4,1
1501881920019526,-2,4,-11,-93,3,-1,-3,41
1501881920019526,-6,1,11,19,3,-3,0,-29
1501881920020527,27,-3,24,22,-10,1,3,15
1501881920020527,-29,-7,-12,-38,1,0,1,-31
1501881920040530,10,0,9,29,8,2,0,34
1501881920040530,23,1,7,-7,0,-1,-2,41
1501881920041529,1,3,-16,19,9,3,-1,-27
1501881920041529,23,2,24,7,-9,-8,1,19
1501881920044529,-9,3,-2,-22,-7,0,7,-20
1501881920044529,-31,-4,-28,-64,-2,0,-3,-47
1501881920062530,42,2,7,12,3,0,5,9
1501881920062530,-5,-5,-13,52,7,-2,-1,-7
1501881920064530,8,-6,-8,-25,-6,-3,-4,55
1501881920064530,-7,8,2,-25,-7,-1,0,-27
1501881920085532,-6,-1,2,18,0,-1,2,12
1501881920085532,-5,-3,9,33,-2,-4,-4,-20
1501881920091531,15,12,31,37,8,5,6,21
1501881920091531,-1,-10,-25,-91,-4,-1,-3,12
1501881920100531,-22,-8,-15,47,-13,-10,-1,30
1501881920100531,15,7,12,-42,1,2,-5,-32
1501881920101532,-58,-10,-16,49,8,3,-3,-71
1501881920101532,6,-1,13,-11,-4,-1,1,21
1501881920114536,-13,1,5,-46,1,-1,-1,-14
1501881920114536,8,-3,16,57,-7,-6,-1,7
1501881920128534,22,7,15,3,6,5,1,0
1501881920128534,-6,-8,-14,-3,6,1,-1,-14
1501881920137534,8,-10,-34,-128,-25,-8,-5,-53
1501881920137534,12,6,21,74,12,5,4,16
1501881920139538,10,-2,-7,-28,0,-5,-2,-36
1501881920139538,7,-2,-3,46,-1,4,2,17
1501881920160537,4,5,20,22,11,2,2,7
1501881920160537,-22,-1,1,0,-2,4,-3,-11
1501881920161535,4,-6,1,-6,-8,-5,-3,-8
1501881920161535,2,-5,-12,39,-1,-9,-7,3
1501881920174536,-30,-16,-3,-44,-13,1,-1,-2
1501881920174536,28,15,-20,-85,-3,-2,0,-3
1501881920181552,-13,-4,0,59,5,-2,1,42
1501881920181552,12,9,9,1,1,-1,0,-10
1501881920198552,-9,1,2,41,9,4,1,6
1501881920198552,-4,-8,15,-6,0,-1,-1,19
1501881920199542,2,-2,-6,12,-2,1,0,-7
1501881920199542,-16,-6,-25,-37,-11,-3,1,-21
1501881920221539,11,6,17,-19,5,-1,-2,15
1501881920221539,-20,-1,-10,55,5,2,-2,-5
1501881920222540,-6,-4,1,-41,-7,-2,7,-65
1501881920222540,-9,-10,-42,33,-20,-5,-1,-17
1501881920242539,3,4,38,40,7,-1,0,1
1501881920242539,-19,-1,-17,-23,1,0,-3,-9
1501881920245541,3,-2,-14,-19,-3,1,-3,13
1501881920245541,9,7,32,-29,9,1,1,40
1501881920265540,13,3,-18,63,4,2,-1,-6
1501881920265540,-22,-12,17,-44,-27,-10,-9,11
1501881920266541,5,-4,-36,-9,0,-3,-2,-17
1501881920266541,21,-3,-10,-26,-1,2,4,36
1501881920311544,26,4,21,42,4,-2,-3,40
1501881920311544,1,0,-10,-13,8,2,0,-5
1501881920313544,-9,4,17,-17,-4,0,-2,-22
1501881920313544,-28,-10,-1,4,-4,-3,4,-17
1501881920313544,-30,-5,-5,13,0,0,-4,-19
1501881920313544,33,7,18,-17,-7,-2,0,-3
1501881920319549,1,-7,-37,-67,-7,-3,1,39
1501881920319549,-7,8,39,127,20,6,-4,-29
1501881920320545,-36,-10,-32,-106,-8,-4,0,-13
1501881920320545,17,-7,-18,-37,-2,1,3,-6
1501881920323544,-16,-9,-14,34,-5,-8,-9,2
1501881920323544,23,8,17,-2,4,1,0,60
1501881920340546,15,-4,9,-1,2,5,3,9
1501881920340546,-23,0,3,40,5,1,0,-17
1501881920341545,-14,-1,2,-6,-4,-2,1,-1
1501881920341545,-4,2,8,-4,-11,-5,-5,-13
1501881920370547,1,-1,12,55,11,0,0,-16
1501881920370547,-1,4,-20,-66,-4,3,2,6
1501881920371547,26,-6,-5,45,-7,-6,-4,36
1501881920371547,-3,-10,-2,-51,-7,-3,-4,-33
1501881920376548,-19,7,14,3,1,1,-4,-4
1501881920376548,10,2,15,9,10,1,5,-2
1501881920385549,10,3,-9,-1,-8,-4,-1,8
1501881920385549,-8,-5,1,13,3,-1,0,3
1501881920406554,32,7,12,24,1,1,0,2
1501881920406554,24,-11,-51,-19,-7,-7,-5,17
1501881920415571,9,4,-4,-14,1,2,-1,-22
1501881920415571,-3,-1,18,-54,-8,0,-4,16
1501881920416550,0,-6,-25,25,4,-2,-5,3
1501881920416550,-9,0,-7,-26,0,-2,1,11
1501881920430557,-9,5,26,35,8,7,2,-34
1501881920430557,-45,-12,-31,-42,-22,-11,-9,-40
1501881920437552,9,9,12,36,5,4,5,4
1501881920437552,28,4,19,55,3,4,1,67
1501881920439552,-11,-10,-19,-37,2,0,1,4
1501881920439552,-17,0,-4,-23,6,-1,-8,-4
1501881920460572,31,10,14,4,2,2,11,25
1501881920460572,-22,-10,-30,-43,-26,-9,-5,-19
1501881920461555,5,5,40,38,8,-1,-4,3
1501881920461555,9,0,-21,25,4,1,1,10
1501881920473556,-14,-9,-22,-73,-12,-7,-5,10
1501881920473556,0,4,12,127,18,3,-2,0
1501881920482570,0,0,-2,-94,-7,3,0,8
1501881920482570,32,2,11,36,0,-1,-1,-46
1501881920498593,-33,-10,-11,-37,-8,-2,-3,-9
1501881920498593,6,10,24,39,19,4,12,-24
1501881920499554,-25,-6,12,-27,-19,-6,-4,0
1501881920499554,2,-6,-46,11,4,0,-4,-46
1501881920528623,-1,-4,-23,-32,-6,-5,-7,-14
1501881920528623,-42,2,29,-11,0,2,1,-28
1501881920529556,26,1,-4,28,0,-1,-3,22
1501881920529556,0,4,-10,-31,5,1,4,30
1501881920550594,0,-1,18,40,-7,-1,-3,-3
1501881920550594,11,-2,-22,-23,-2,-2,-7,-16
1501881920551582,8,14,14,26,13,6,6,-7
1501881920551582,-7,-8,10,6,-8,0,-2,12
1501881920565589,-22,-2,-7,-56,-2,-4,-1,-90
1501881920565589,26,-12,-20,14,-14,-7,-3,62
1501881920566559,-7,-2,-2,58,12,3,0,-24
1501881920566559,23,4,20,-62,-5,-1,0,6
1501881920587560,-6,2,11,-3,-8,-2,0,25
1501881920587560,18,-4,16,0,0,-5,-6,20
1501881920595594,9,0,1,14,-4,-4,-2,-9
1501881920595594,-8,2,1,16,5,3,4,17
1501881920596563,2,-5,2,50,11,4,-1,8
1501881920596563,18,-3,-26,-106,-17,-6,-4,0
1501881920602565,-11,-1,1,2,-8,-6,-3,-12
1501881920602565,0,6,25,40,12,4,3,9
1501881920617562,0,-1,-7,-21,-2,-1,4,42
1501881920617562,-19,-7,-8,-9,3,1,-1,-27
1501881920619577,-6,0,1,6,1,0,-2,3
1501881920619577,10,-1,-5,16,4,0,-1,27
1501881920640584,12,5,16,27,7,3,2,4
1501881920640584,-5,-2,7,-19,-3,-2,-7,1
1501881920641564,-31,-7,2,-12,-1,1,6,8
1501881920641564,2,-10,-36,15,-7,-4,-4,-16
1501881920662585,14,-1,-18,-12,-4,-3,0,9
1501881920662585,-12,5,27,52,12,8,-1,-17
1501881920664567,-2,-3,-24,-38,0,-1,-1,62
1501881920664567,-28,-3,7,-8,-2,3,5,-72
1501881920685582,5,1,-5,-12,-1,0,1,1
1501881920685582,-20,6,11,51,5,-1,0,-13
1501881920686567,16,-2,-4,14,2,-1,1,10
1501881920686567,4,1,36,41,1,1,1,17
1501881920707567,32,0,-56,-61,-28,-10,-8,-55
1501881920707567,-18,-5,0,-41,-3,-1,3,-10
1501881920709567,4,2,-6,6,0,1,-2,-12
1501881920709567,10,3,7,-16,-1,0,0,7
1501881920713568,-13,-2,22,36,2,-1,-3,8
1501881920713568,-6,-1,-3,34,6,1,0,7
1501881920730570,13,-11,-26,-26,-10,-7,-6,-26
1501881920730570,6,1,-4,-39,-10,-3,-5,14
1501881920737569,-22,6,37,88,4,-2,7,27
1501881920737569,15,-15,-35,-105,-24,-6,-2,-5
1501881920739570,-1,5,27,41,7,-2,-2,-7
1501881920739570,-9,-1,-15,1,-1,-2,-1,30
1501881920760572,32,-8,-26,-48,-1,3,-6,-31
1501881920760572,-2,7,22,89,7,0,1,-11
1501881920762589,-16,2,23,11,6,3,-1,-2
1501881920762589,-11,-8,-10,-39,-13,-6,-2,-13
1501881920773571,-26,6,12,16,3,-1,-2,-3
1501881920773571,23,2,0,-35,-1,-2,-6,19
1501881920782576,-17,-8,-43,-40,-12,-4,-1,-20
1501881920782576,18,8,21,26,8,-1,1,16
1501881920798576,-25,-5,7,-3,3,2,0,12
1501881920798576,6,-1,4,24,6,4,3,-30
1501881920799573,-9,-1,2,-17,-4,-1,-3,1
1501881920799573,5,-7,-55,12,-2,-1,-2,-21
1501881920827595,-19,-7,-12,-28,4,-3,-6,-73
1501881920827595,10,8,17,-3,-15,-4,6,-6
1501881920829579,2,3,18,28,4,3,0,6
1501881920829579,-22,-3,12,54,3,2,-1,-3
1501881920842596,12,-1,6,-25,-9,-1,-1,25
1501881920842596,-8,-5,-25,24,4,-1,0,20
1501881920845575,-19,7,31,21,-1,-1,-1,-24
1501881920845575,38,-2,-4,-10,5,3,-1,10
1501881920858593,-9,-3,-13,25,-3,-6,-3,-4
1501881920858593,-11,-1,7,-23,-4,0,-3,0
1501881920859596,7,2,-4,0,-8,-7,0,-1
1501881920859596,-23,-1,24,23,12,8,0,-4
1501881920880582,9,-2,-8,-44,-11,-2,2,46
1501881920880582,-6,-7,-39,-24,-5,-3,-2,-5
1501881920882580,44,6,18,69,7,2,1,64
1501881920882580,-20,-7,1,-35,-7,-3,-1,-4
1501881920902579,6,-4,10,32,8,-2,-7,23
1501881920902579,-7,5,8,17,7,0,7,4
1501881920904578,0,-3,-13,-89,-8,4,3,2
1501881920904578,-25,-2,-4,42,-9,-4,1,7
1501881920917580,15,6,16,-7,7,3,1,11
1501881920917580,5,-2,-11,3,2,2,-2,-9
1501881920919579,-20,-12,-28,10,-5,-3,-4,-27
1501881920919579,26,6,10,-41,0,-1,0,1
1501881920940581,-4,4,35,32,2,2,-2,-4
1501881920940581,-17,-3,-35,0,-5,-4,-7,-5
1501881920941581,22,-5,-4,12,9,0,4,14
1501881920941581,-19,1,6,-51,-9,-2,-3,-29
1501881920962583,14,-1,-27,-6,-5,-2,-1,-27
1501881920962583,4,-2,15,18,5,2,-1,1
1501881920964583,14,1,7,5,-4,-4,-5,-1
1501881920964583,-4,-6,-20,1,-1,2,3,1
1501881920978586,6,0,0,-3,3,2,3,10
1501881920978586,-28,-2,4,-3,-3,2,0,-5
1501881920983585,-6,-4,4,35,6,-3,-4,-19
1501881920983585,25,6,14,-13,-7,-5,-3,23
1501881921000586,-8,-2,-12,15,0,1,5,5
1501881921000586,2,0,15,-24,4,1,-2,25
1501881921001595,-20,-1,-18,-21,3,2,0,-27
1501881921001595,2,-1,9,12,-2,-5,-3,24
1501881921022586,-3,-1,-6,5,-4,-1,-3,-15
1501881921022586,39,3,16,40,0,-3,-3,8
1501881921024586,-8,-1,-6,-19,2,4,0,-7
1501881921024586,-18,-1,5,54,4,1,-4,-9
1501881921037594,19,-3,-1,-26,-3,-3,-2,-10
1501881921037594,-33,-15,-24,-32,-14,-6,-7,-21
1501881921044587,13,7,12,-55,5,2,-3,-4
1501881921044587,-13,0,8,40,-11,-8,-4,-17
1501881921060588,-13,-8,-32,35,-1,1,0,-9
1501881921060588,3,9,27,39,4,-2,1,-11
1501881921061588,-1,-2,0,-15,-6,4,-2,-1
1501881921061588,3,-7,-30,-17,5,-1,-2,6
1501881921082589,-10,4,32,40,-1,-4,0,13
1501881921082589,4,-1,-2,-9,2,-1,0,10
1501881921084591,-15,-3,18,-2,-3,-4,1,-12
1501881921084591,9,4,-12,-16,-5,2,-1,3
1501881921105591,-3,-2,-16,-11,5,2,0,14
1501881921105591,-9,-1,0,21,1,-3,-4,-21
1501881921106590,3,-4,20,66,2,-5,-3,6
1501881921106590,20,4,3,-68,-9,0,1,0
1501881921120591,-13,-4,-6,-31,-7,-3,2,65
1501881921120591,-2,1,0,-25,1,-2,-2,-16
1501881921121591,17,-3,-32,73,-6,-1,-1,1
1501881921121591,-8,-6,-9,-12,2,-1,-2,13
1501881921142593,-6,5,17,-43,-2,1,5,-21
1501881921142593,7,-3,-2,12,2,-3,3,17
1501881921145596,1,-4,0,57,-2,-5,-3,21
1501881921145596,-8,1,13,-17,-3,-1,-1,-6
1501881921156593,4,-5,1,-36,-2,-1,-1,-10
1501881921156593,-4,10,10,8,4,4,0,-9
1501881921163597,-22,0,-15,16,4,-3,-4,-1
1501881921163597,4,-10,-12,-43,-7,-5,-1,3
1501881921180596,-1,-1,-8,-6,-5,-2,-4,-8
1501881921180596,9,1,14,-4,1,0,-3,-10
1501881921181595,9,4,-13,-14,-3,3,1,-18
1501881921181595,6,-3,-25,-27,2,1,-1,3
1501881921202655,-11,0,21,96,12,1,0,-9
1501881921202655,2,-5,-47,-16,-8,-4,-3,2
1501881921204599,0,-3,20,-66,-1,-1,5,12
1501881921204599,-2,1,-5,16,-7,-4,-3,-3
1501881921216598,-3,-5,-17,-20,-5,-5,-3,-17
1501881921216598,5,-2,7,-26,-9,-1,2,20
1501881921223597,-19,2,7,-5,3,-1,-4,-13
1501881921223597,-5,4,-11,-45,4,4,6,7
1501881921240601,6,-9,4,82,-2,-12,-9,-20
1501881921240601,-12,2,6,18,4,5,0,6
1501881921241599,-8,0,6,-37,0,4,4,14
1501881921241599,12,-7,-6,43,2,0,0,-9
1501881921262599,-3,8,6,29,4,1,-2,7
1501881921262599,-16,-11,5,4,2,-4,-2,-6
1501881921264599,5,-1,1,-51,-16,-4,-7,34
1501881921264599,10,6,7,37,3,-2,10,-60
1501881921276601,9,-8,-30,-63,1,3,0,-2
1501881921276601,3,0,9,69,6,-2,1,-10
1501881921284608,-8,-2,-1,-34,-8,-2,-1,1
1501881921284608,-2,0,12,41,6,0,-3,12
1501881921299615,9,2,-8,-38,-8,-2,0,10
1501881921299615,18,6,31,22,8,5,3,-35
1501881921306603,-40,-9,-40,-14,-14,-8,-5,-17
1501881921306603,12,-2,10,-20,2,1,-2,6
1501881921322605,-3,7,21,40,6,3,3,2
1501881921322605,-6,-8,-18,-66,-6,0,-1,47
1501881921324604,34,2,-5,45,0,-4,0,0
1501881921324604,-34,-1,4,-22,-2,-1,-5,-11
1501881921336603,-5,0,-2,-90,-5,4,1,7
1501881921336603,-14,4,0,76,7,0,6,-3
1501881921344605,-4,0,7,-34,-13,0,-1,-6
1501881921344605,-2,-5,7,36,-1,-8,-5,0
1501881921360605,9,0,10,31,7,0,0,61
1501881921360605,-5,0,-7,-28,-11,-2,-3,-27
1501881921361606,-12,2,21,-14,6,0,1,-7
1501881921361606,-8,1,10,83,8,-1,-3,-3
1501881921382620,5,0,-7,-47,-7,1,-1,-10
1501881921382620,13,-5,-4,8,-4,-4,-4,2
1501881921384607,-9,-4,-5,28,1,-2,-1,-7
1501881921384607,-4,2,-16,-29,-3,-1,-5,29
1501881921396622,-1,-4,2,34,-3,1,-4,-28
1501881921396622,5,3,17,-34,1,1,1,-5
1501881921405609,8,-6,-12,28,6,-2,-6,-38
1501881921405609,-7,-1,6,0,6,2,5,-9
1501881921420608,-7,-2,-18,-6,-4,-10,-11,-24
1501881921420608,6,0,-2,0,-3,6,5,2
1501881921421610,0,0,-3,58,7,-1,2,25
1501881921421610,11,1,-12,-68,-3,4,-1,-3
1501881921442611,-6,-3,9,41,4,0,0,-3
1501881921442611,54,0,-7,-10,-5,-3,-3,89
1501881921445611,-2,-6,-16,-31,-6,2,1,-2
1501881921445611,12,8,26,16,-3,-3,-1,13
1501881921456612,-2,-7,-23,-43,-6,1,2,-5
1501881921456612,-29,-1,-8,4,3,-6,-5,-21
1501881921465612,16,0,-14,-7,-2,-1,1,-5
1501881921465612,-12,-1,14,-3,-2,0,-1,-1
1501881921480659,11,0,-9,14,0,1,-2,24
1501881921480659,-11,1,-4,-45,-5,-2,1,-12
1501881921481612,3,0,22,85,6,0,-1,3
1501881921481612,-9,-3,-11,-79,-20,-4,-2,-15
1501881921502649,1,4,23,51,12,2,1,7
1501881921502649,-7,-14,-56,-75,-20,-9,-6,-5
1501881921504619,-8,4,-18,-36,0,-2,0,-24
1501881921504619,11,-1,10,-1,1,-9,-3,23
1501881921516636,-16,-7,-10,-14,-2,6,1,0
1501881921516636,-4,4,23,41,7,2,-2,-7
1501881921525615,7,-2,2,-22,0,-1,-3,7
1501881921525615,-19,-2,-6,15,2,2,2,1
1501881921547654,22,3,-3,56,2,-4,-2,-20
1501881921547654,10,0,0,-34,1,3,3,25
1501881921549618,-9,-2,13,-6,-5,-2,1,-22
1501881921549618,-24,-10,-34,25,-2,-5,-6,-14
1501881921562617,-5,0,1,-7,-2,-2,1,-14
1501881921562617,-8,1,4,22,-1,-1,-3,-3
1501881921564637,6,5,28,8,2,1,1,69
1501881921564637,5,-6,-40,9,4,7,6,-15
1501881921576622,-27,-2,10,-49,-11,-5,-1,-5
1501881921576622,-1,0,2,42,4,-2,0,-19
1501881921585621,-5,-6,6,23,-3,-4,-4,10
1501881921585621,2,-1,5,2,-6,-4,-2,0
1501881921600658,-5,2,5,32,5,0,0,-17
1501881921600658,-23,-9,-26,-90,-11,-2,-1,10
1501881921602621,12,4,21,45,4,1,-6,-13
1501881921602621,1,-6,-28,-5,2,1,-3,2
1501881921622642,4,-3,4,10,-9,-9,-4,-15
1501881921622642,-20,1,17,-1,-2,-4,-4,-15
1501881921624642,6,-1,-29,-17,4,3,1,-42
1501881921624642,2,4,32,24,6,4,0,3
1501881921636624,1,-3,-4,-49,-5,-2,-1,27
1501881921636624,-6,-5,15,23,-2,-3,-5,-24
1501881921645623,-10,-2,-46,-23,-2,-2,0,13
1501881921645623,7,-1,1,-22,-4,-2,1,-8
1501881921660644,3,2,21,-42,2,1,-2,1
1501881921660644,-3,-5,-24,22,1,1,4,4
1501881921661622,10,0,1,-16,-6,-4,0,3
1501881921661622,15,11,28,-8,6,3,3,21
1501881921682665,-28,-9,-29,21,0,-2,-4,-7
1501881921682665,31,6,10,0,0,-7,1,9
1501881921684642,-3,1,12,-12,-1,4,3,-6
1501881921684642,-36,-8,-6,7,-1,1,2,45
1501881921696670,25,1,-1,-33,-7,-4,-5,-13
1501881921696670,0,-3,1,52,6,1,-4,-22
1501881921705631,7,5,16,-52,-1,1,0,22
1501881921705631,4,-4,-24,13,-8,-2,5,2
1501881921720628,5,0,3,32,1,0,3,3
1501881921720628,-26,-6,-6,-13,-2,0,-2,-3
1501881921721627,-2,0,6,24,-1,-2,-3,-27
1501881921721627,1,0,1,-61,-5,1,-3,-27
1501881921742656,4,2,-3,8,-4,-2,1,16
1501881921742656,3,-5,-19,32,-1,-2,-2,-9
1501881921745629,-2,1,23,-14,2,0,-1,1
1501881921745629,4,-1,-7,29,4,0,-3,-10
1501881921756630,2,-2,-1,-18,-3,2,0,7
1501881921756630,2,5,24,16,0,0,-3,7
1501881921765646,-11,-8,-25,16,1,-9,-4,-31
1501881921765646,-9,1,-12,12,-1,-6,-2,0
1501881921780646,2,6,28,5,1,6,-2,-3
1501881921780646,11,-5,-21,-25,3,5,4,18
1501881921781645,9,-1,-4,5,-5,-1,0,8
1501881921781645,0,-1,8,35,0,-4,-4,-6
1501881921802648,-16,1,-4,-19,3,0,1,-11
1501881921802648,-5,-3,2,-18,-13,-3,-3,8
1501881921804632,5,1,2,41,6,4,0,-9
1501881921804632,-2,-2,-7,-20,-2,-2,-3,-16
1501881921825676,0,-2,5,11,3,-1,2,1
1501881921825676,-15,0,-15,-28,-7,-1,-5,31
1501881921826632,-7,-7,-15,-30,-5,-3,-1,-43
1501881921826632,10,3,24,54,-5,-1,-3,3
1501881921840655,14,-2,-17,-40,-3,-1,-3,-26
1501881921840655,-13,3,16,24,8,3,2,-3
1501881921841633,-12,-6,-17,-36,-9,-1,-3,11
1501881921841633,0,0,-11,20,5,-1,1,14
1501881921862655,-16,0,2,-18,-7,1,0,-12
1501881921862655,17,-5,-15,-5,1,-3,0,-7
1501881921864638,16,3,21,46,7,-2,1,22
1501881921864638,-1,-1,10,-39,-6,4,1,-37
1501881921885636,17,-5,-30,32,4,-2,0,17
1501881921885636,-7,3,13,-58,-9,-3,0,-18
1501881921886636,-3,-5,-28,-13,-9,-4,-3,3
1501881921886636,8,-2,3,15,7,1,0,14
1501881921900653,0,0,21,-1,-6,-6,-2,-3
1501881921900653,6,-2,-1,17,10,2,0,-9
1501881921901636,3,5,6,0,1,-1,-3,8
1501881921901636,-1,-5,2,-2,-2,-1,2,6
1501881921922638,-19,-5,-18,-26,-10,-3,-6,7
1501881921922638,-14,2,-3,8,4,1,-2,-53
1501881921924639,2,-1,4,-28,-9,-3,9,5
1501881921924639,-7,-2,-23,23,0,-4,-8,-52
1501881921945639,19,3,13,53,12,1,8,28
1501881921945639,-11,-7,-8,-40,-10,-3,-4,8
1501881921946640,-17,4,11,39,-2,-8,-6,-23
1501881921946640,-19,0,15,-15,4,6,0,6
1501881921959662,-3,1,-13,33,-9,-4,-1,3
1501881921959662,10,-2,-4,-13,3,0,0,0
1501881921966646,10,-1,-2,-22,2,2,7,30
1501881921966646,7,-5,-2,31,-3,-7,-10,17
1501881921982646,-5,-1,-3,-44,1,-3,-7,-11
1501881921982646,5,1,23,60,8,7,22,91
1501881921984644,15,0,-26,2,-9,2,-6,-4
1501881921984644,1,-3,-8,-31,-6,-1,-1,9
1501881922005643,13,1,0,-10,4,-2,-7,1
1501881922005643,13,3,-5,-3,-14,-3,7,7
1501881922006643,-6,0,4,48,8,1,0,1
1501881922006643,19,5,5,-67,-15,-2,11,4
1501881922019645,-17,-6,-3,-13,5,1,-5,8
1501881922019645,-4,-3,3,35,2,-2,-7,-35
1501881922026650,17,3,13,-25,1,1,-4,13
1501881922026650,17,-1,-9,57,6,-1,-7,3
1501881922042645,-55,1,34,36,-9,-2,3,-28
1501881922042645,5,2,10,-90,-7,-6,-1,-28
1501881922045646,8,-2,-26,-54,2,6,1,6
1501881922045646,-6,1,30,55,4,-4,-2,20
1501881922064647,4,-3,-33,8,3,0,0,-27
1501881922064647,-33,-3,-8,17,-8,-4,-7,31
1501881922071648,17,0,11,-12,1,-4,0,-25
1501881922071648,10,1,-5,-54,0,0,-4,5
1501881922079648,2,-4,7,18,1,0,13,3
1501881922079648,0,1,-4,-21,-4,-2,-13,-8
1501881922086647,-21,0,12,20,0,-1,1,4
1501881922086647,-16,-6,-7,75,-1,-4,0,-3
1501881922102649,16,3,8,-14,3,2,-5,-23
1501881922102649,6,-7,-18,-11,7,1,-5,11
1501881922104651,0,0,3,23,-3,1,0,11
1501881922104651,-14,-1,-19,-66,-6,0,2,-23
1501881922125654,3,1,18,59,7,1,0,52
1501881922125654,6,8,17,-21,0,-1,-2,-39
1501881922126650,7,-8,-36,3,-6,-6,-3,-20
1501881922126650,-5,-2,2,-49,-3,-1,-1,6
1501881922140652,-2,3,15,30,1,-5,-1,14
1501881922140652,-3,-6,-17,37,3,1,-1,-13
1501881922146654,-16,-9,-8,52,6,0,-6,-5
1501881922146654,-12,0,-18,-107,-16,-2,-3,-5
1501881922162655,14,-2,10,42,-7,-3,-1,8
1501881922162655,9,0,19,49,4,-2,-2,9
1501881922168653,-40,-2,-21,-15,3,-2,0,5
1501881922168653,26,-3,-2,12,0,-1,-6,-9
1501881922185657,-6,0,-21,-70,-9,-5,-5,-2
1501881922185657,7,2,14,85,2,2,1,7
1501881922187657,-8,-2,17,19,5,1,-3,6
1501881922187657,-13,1,-7,-63,-3,-2,5,7
1501881922198669,1,-5,-23,-61,-6,-1,-10,-5
1501881922198669,0,5,2,-4,-3,-5,0,-23
1501881922206659,10,0,-1,-33,-3,1,2,-62
1501881922206659,-12,-3,0,107,3,-1,-1,-3
1501881922221657,-1,-6,-2,-10,2,-2,-1,-16
1501881922221657,-3,-1,1,13,-1,-4,-8,1
1501881922222657,8,3,-7,-39,-12,-6,0,36
1501881922222657,3,2,29,66,17,10,12,3
1501881922252675,10,-3,-8,-24,-13,-1,1,8
1501881922252675,-4,-9,-22,35,4,-1,-1,8
1501881922253659,20,5,15,-49,-4,-2,-2,10
1501881922253659,-1,-1,-2,8,-3,-4,-3,9
1501881922258665,-12,-8,-1,-16,-7,-3,-2,2
1501881922258665,24,4,-13,-35,3,-1,4,0
1501881922266659,-14,-2,8,35,0,1,-1,4
1501881922266659,3,1,-5,9,1,0,-9,-9
1501881922282670,-1,4,12,-4,9,6,11,3
1501881922282670,-3,-6,-16,9,-11,-8,-6,11
1501881922282670,-5,-1,3,-74,-14,-1,-1,-31
1501881922282670,18,-4,-7,1,4,2,-3,12
1501881922304660,7,8,9,-4,1,0,8,-2
1501881922304660,-30,-1,17,26,3,1,-1,-31
1501881922305661,19,-2,-8,-9,-5,1,3,37
1501881922305661,-1,-2,8,-28,-6,-5,0,-5
1501881922327725,-21,-1,2,28,1,0,-6,-90
1501881922327725,-4,-5,-13,-5,-2,-6,-2,-3
1501881922328663,0,0,4,7,4,4,-4,1
1501881922328663,-16,1,-10,-2,13,4,2,-12
1501881922341665,9,-2,-9,-24,-10,-1,-1,38
1501881922341665,6,4,25,9,1,-2,-4,3
1501881922342667,-47,-5,-22,-67,-4,-2,0,-11
1501881922342667,19,3,14,30,2,0,-2,16
1501881922364682,-9,-3,-9,26,3,-2,1,-8
1501881922364682,10,-10,-24,-91,-5,0,-2,5
1501881922365682,14,0,7,52,-1,-3,-8,35
1501881922365682,-4,6,16,20,3,3,4,-2
1501881922403709,3,-5,-14,-10,-3,-4,-6,-6
1501881922403709,-10,-1,-4,9,4,4,2,-4
1501881922404666,-13,0,1,-54,5,1,0,-11
1501881922404666,28,5,8,15,-6,2,4,12
1501881922406667,-11,6,13,43,6,0,-3,37
1501881922406667,-9,-10,-23,-70,-21,-13,-4,-1
1501881922409671,5,4,6,5,9,8,2,-6
1501881922409671,-2,-4,14,24,-2,-3,-1,-11
1501881922424670,4,-5,-31,4,5,3,0,15
1501881922424670,0,3,-5,-27,-6,4,0,11
1501881922425670,4,-3,-5,7,-5,-3,1,-5
1501881922425670,-29,-5,-2,-33,-2,-6,-3,1
1501881922438669,5,-2,9,-5,-1,-2,-5,1
1501881922438669,3,2,7,20,7,4,3,-4
1501881922447701,-22,0,1,-4,1,-1,-2,-9
1501881922447701,22,-5,10,47,3,-1,-5,7
1501881922470670,-3,-5,-22,44,-3,-5,-2,12
1501881922470670,16,3,-7,-102,-20,-3,-3,4
1501881922470670,17,2,28,76,3,-4,0,8
1501881922470670,-23,-2,-32,-20,2,-2,-4,-65
1501881922484678,0,0,18,7,-3,-1,-1,4
1501881922484678,7,5,9,30,13,8,1,-5
1501881922485672,5,-2,-3,1,-5,-1,1,7
1501881922485672,-5,-3,0,-25,-9,-2,-6,1
1501881922507674,4,2,-2,-14,5,4,1,3
1501881922507674,-10,-3,10,12,0,-7,-1,-11
1501881922508693,5,1,4,57,6,0,0,-13
1501881922508693,-8,-6,-22,-36,-12,-3,-3,14
1501881922530679,-1,0,4,-14,-11,-1,-1,-13
1501881922530679,0,0,0,-56,2,0,2,13
1501881922530679,-7,-4,-12,26,-7,-5,-4,-25
1501881922530679,-7,-4,-4,-13,4,-2,0,-2
1501881922544676,2,3,12,23,2,1,-1,-5
1501881922544676,-28,-9,-6,28,1,-1,-5,-41
1501881922545715,6,1,-4,-21,-2,-2,1,8
1501881922545715,-4,3,4,-3,1,2,0,10
1501881922567710,-11,-3,-3,-37,1,-1,-3,-30
1501881922567710,3,2,29,87,11,3,7,30
1501881922568676,9,3,-11,-59,-6,0,1,20
1501881922568676,3,-3,-19,26,-5,-10,-3,0
1501881922581702,11,-1,1,15,1,4,1,4
1501881922581702,3,1,2,-33,-2,0,1,67
1501881922582695,-14,0,8,3,4,-1,1,-11
1501881922582695,20,-4,4,-8,5,5,-1,9
1501881922604704,0,-6,-17,14,1,-5,-2,-10
1501881922604704,-10,5,13,-13,-9,0,1,-7
1501881922605698,1,-1,-7,-7,0,-5,-2,-7
1501881922605698,-11,-7,-17,-26,-10,-3,-1,-5
1501881922627687,14,6,15,-21,0,0,0,3
1501881922627687,12,-1,4,117,6,-1,-2,-18
1501881922628683,-19,-5,-6,-34,-2,-1,-3,3
1501881922628683,2,-4,-7,-4,0,0,1,-12
1501881922641707,-9,3,10,-20,2,2,1,0
1501881922641707,18,5,7,11,3,-1,-7,7
1501881922642708,-21,-9,-4,17,-6,-4,0,-21
1501881922642708,-7,1,6,-4,1,0,1,-14
1501881922664703,-12,-1,-19,-76,-11,-2,1,0
1501881922664703,11,3,28,69,4,1,0,-8
1501881922665682,-9,-9,-7,-3,-6,-4,-11,14
1501881922665682,-1,4,19,73,10,3,5,6
1501881922687683,-4,-8,-55,-104,-19,-5,-1,-3
1501881922687683,-4,1,9,12,-1,-4,1,-10
1501881922688685,4,-6,14,29,4,-3,-7,-78
1501881922688685,3,8,10,-7,-4,-1,1,4
1501881922710684,8,0,2,-4,8,1,-1,10
1501881922710684,3,-5,-14,14,-12,1,-2,-7
1501881922710684,-9,-8,-15,-36,-4,-3,1,24
1501881922710684,-42,0,15,13,0,-2,-5,10
1501881922724688,-1,5,4,-11,-3,-1,2,-17
1501881922724688,-15,-7,-25,-12,-2,-3,-1,1
1501881922725708,36,-1,0,8,0,-2,1,25
1501881922725708,-5,1,-1,-9,0,2,-4,-4
1501881922746711,-10,-7,-8,32,4,-6,5,18
1501881922746711,-2,0,-10,-6,4,6,-1,0
1501881922747686,7,9,13,-36,-2,2,4,8
1501881922747686,-9,-5,-3,-45,-10,-3,-2,-27
1501881922763690,7,0,-15,16,-1,-1,-3,6
1501881922763690,8,-5,-25,-27,-1,-4,-2,-16
1501881922764690,25,4,6,60,8,4,2,1
1501881922764690,4,-1,1,-14,2,-1,-1,8
1501881922784693,7,1,43,49,9,-2,6,70
1501881922784693,-25,-5,-44,-60,-6,-5,-5,-48
1501881922785689,5,-1,-6,-27,-12,-4,0,18
1501881922785689,7,1,3,41,6,0,2,2
1501881922806708,-12,-8,2,34,-7,-4,-7,-5
1501881922806708,6,4,4,-21,6,-2,-3,6
1501881922807689,-18,1,11,47,7,0,3,0
1501881922807689,25,1,3,11,1,3,2,5
1501881922821691,-16,-2,-11,-26,-1,-4,-4,-25
1501881922821691,40,0,9,-17,-7,0,-1,3
1501881922822692,-29,0,9,9,3,2,-4,-18
1501881922822692,3,1,3,8,3,3,4,2
1501881922844701,3,-4,-5,-15,-4,-3,-8,38
1501881922844701,7,2,13,29,-2,-4,4,1
1501881922845713,-23,-6,-9,-60,-7,-3,-1,4
1501881922845713,3,-2,-17,72,3,-2,-5,5
1501881922866721,9,4,7,-56,3,3,-2,-17
1501881922866721,-24,-9,0,10,-7,0,-2,-50
1501881922867694,18,3,-3,-10,1,1,-2,5
1501881922867694,13,-5,-12,-4,-4,-4,-3,8
1501881922881743,-8,1,24,6,-7,0,-3,-23
1501881922881743,18,-1,3,-16,-1,-3,-1,21
1501881922882700,-5,1,-22,14,0,3,-2,-17
1501881922882700,-8,-1,8,-75,-4,0,0,-6
1501881922904727,6,-1,4,69,5,1,-5,1
1501881922904727,-3,-3,-2,87,5,-6,3,4
1501881922905716,-38,-10,-8,-51,-6,5,-3,27
1501881922905716,16,5,10,-30,-5,0,3,11
1501881922926703,18,-3,1,19,2,1,-2,-14
1501881922926703,-12,1,-9,-61,-4,-2,2,0
1501881922927702,12,3,2,40,2,-8,-1,-2
1501881922927702,-7,-1,-9,-23,-5,-3,-3,-1
1501881922941729,-7,0,-10,-23,-1,5,2,-15
1501881922941729,-2,2,3,24,8,0,-1,17
1501881922942697,8,1,1,13,-2,-5,-3,5
1501881922942697,-17,-2,4,-28,-6,-7,-5,-29
1501881922964703,-3,-1,11,57,-2,1,2,-43
1501881922964703,20,-7,-36,-68,-4,1,1,17
1501881922971700,-3,4,6,31,3,7,2,-3
1501881922971700,23,-4,-6,-52,-5,-8,-6,18
1501881922986701,-9,0,-8,1,-1,-3,3,-5
1501881922986701,-12,3,29,7,-9,-3,-4,4
1501881922987700,-8,-3,-4,-5,1,-1,-3,-70
1501881922987700,-13,-4,-2,47,1,-2,0,19
1501881923003716,1,2,-1,-29,3,1,0,7
1501881923003716,-5,1,11,13,-3,0,-3,-10
1501881923004701,9,1,2,14,4,-1,1,24
1501881923004701,-7,-3,-9,10,0,-2,-1,0
1501881923024703,-8,0,-2,-17,-3,1,-2,-10
1501881923024703,-14,-2,3,31,2,3,0,-4
1501881923025703,10,-1,2,-37,-9,-11,-3,20
1501881923025703,-6,-2,-1,17,3,6,0,-5
1501881923046705,3,0,-3,-8,-4,-3,1,13
1501881923046705,-13,2,-1,8,9,2,-1,-17
1501881923047705,-2,-3,-2,-36,-11,-5,-5,9
1501881923047705,-11,-3,8,32,-3,3,7,-5
1501881923063710,6,-4,-20,-16,-5,-6,-5,4
1501881923063710,-2,1,-4,11,7,3,1,4
1501881923064705,4,0,13,2,-4,-1,-1,2
1501881923064705,-5,0,-4,3,4,-3,-3,-5
1501881923084708,-2,-1,2,-11,2,5,-2,-2
1501881923084708,0,-2,-8,-4,-8,0,-3,-35
1501881923085709,-3,-5,13,-2,4,3,3,15
1501881923085709,21,3,-14,-4,-9,-3,-1,20
1501881923106708,-9,0,30,82,8,-1,2,-17
1501881923106708,-5,-12,-24,-114,-18,-5,-3,8
1501881923107707,3,3,2,50,10,-2,-1,3
1501881923107707,11,-4,5,-63,-2,2,-7,-66
1501881923122708,4,2,-18,-16,-2,-2,-1,10
1501881923122708,-5,3,20,37,3,0,1,4
1501881923129724,-1,-2,-6,14,-3,-2,-2,-20
1501881923129724,-10,1,-5,-34,10,4,1,11
1501881923144724,19,-1,23,97,2,-6,-11,23
1501881923144724,-27,4,-11,-55,-11,0,10,-4
1501881923145712,2,-6,-18,4,-1,-1,-3,30
1501881923145712,12,2,-4,7,-1,-3,-3,2
1501881923166710,-5,-2,-10,-25,0,1,-1,3
1501881923166710,-2,0,-3,-8,3,2,-2,12
1501881923167710,-4,-2,2,4,0,1,2,13
1501881923167710,-7,-2,-4,6,0,1,-1,0
1501881923181713,10,4,11,-33,0,-4,2,-34
1501881923181713,13,-2,-11,56,-5,-7,-2,1
1501881923182712,-4,-2,17,-30,2,1,2,-10
1501881923182712,7,-9,-33,-17,-15,1,-1,-6
1501881923204715,-3,-5,-20,-29,-1,-2,0,20
1501881923204715,5,-6,-7,20,9,2,-4,2
1501881923205713,-18,-5,-9,-40,-8,-6,-6,-19
1501881923205713,29,1,11,14,1,-2,-1,52
1501881923226714,-44,3,23,38,-3,1,0,-24
1501881923226714,-4,-9,-39,-40,-6,-5,-5,41
1501881923227714,2,2,12,56,11,5,-3,-47
1501881923227714,2,1,6,-2,0,0,7,28
1501881923241717,-14,-1,0,-95,-12,-6,1,17
1501881923241717,37,4,18,49,15,9,3,25
1501881923242715,-24,-6,-26,-40,-5,-1,4,-26
1501881923242715,-34,6,39,34,2,0,-3,-95
1501881923264717,-5,-1,-14,3,-1,-1,-3,-7
1501881923264717,2,-1,-8,-35,0,-5,-3,-1
1501881923265718,13,-7,-4,61,-15,-6,-3,10
1501881923265718,-32,1,0,19,12,-1,-1,1
