timestamp,emg1,emg2,emg3,emg4,emg5,emg6,emg7,emg8
1501882094796216,13,1,41,-47,-8,-5,8,50
1501882094796216,13,-3,-10,25,3,1,-6,-13
1501882094797216,-10,-3,-34,51,14,2,8,2
1501882094797216,50,1,21,-43,-34,0,-2,28
1501882094818218,58,6,33,59,-1,-9,-20,4
1501882094818218,-95,-13,-56,-121,-7,-3,-14,-17
1501882094818218,-13,-6,11,51,-4,0,20,-41
1501882094818218,-35,2,-14,-94,1,3,-4,-10
1501882094832226,3,-5,-14,53,9,1,-31,-13
1501882094832226,85,15,82,62,9,3,29,28
1501882094840219,31,-9,-8,-87,-18,-10,-31,123
1501882094840219,-65,0,-19,59,8,1,14,-39
1501882094855221,31,-10,-23,-58,-1,5,2,-33
1501882094855221,51,7,18,-97,-17,-14,-30,3
1501882094856228,-23,-5,10,127,9,0,-8,7
1501882094856228,23,1,43,-46,1,-1,-8,-6
1501882094878222,-15,-7,-21,-5,3,-10,-17,0
1501882094878222,-29,-13,-41,62,-1,9,34,22
1501882094878222,9,18,-15,-125,-14,-1,-1,-21
1501882094878222,102,-4,13,33,8,-5,-4,-6
1501882094892225,-69,16,61,27,14,7,1,-16
1501882094892225,-86,-20,-31,-11,-18,-10,-8,5
1501882094900236,30,6,0,-82,-1,-1,-4,28
1501882094900236,-40,-5,4,74,11,2,8,-41
1501882094915223,51,13,2,-21,-9,-3,-12,-1
1501882094915223,-93,2,21,-62,-2,6,11,-45
1501882094916224,25,6,-9,71,2,0,9,8
1501882094916224,-61,-9,-30,-55,-17,-12,-30,-18
1501882094938226,57,-8,-1,27,-11,-4,23,41
1501882094938226,10,-6,-7,-45,3,-2,0,-10
1501882094938226,40,2,18,96,15,2,7,-18
1501882094938226,-1,5,-18,-74,-11,1,4,36
1501882094952239,-44,-9,26,25,7,2,-5,-11
1501882094952239,87,-14,-38,29,-13,-10,-20,10
1501882094960235,-55,8,-8,-75,-6,3,1,-66
1501882094960235,54,0,44,67,17,-1,-3,42
1501882094975228,-103,0,-9,-13,-13,-3,7,-72
1501882094975228,127,23,31,9,19,7,5,36
1501882094983227,-70,-27,-57,-97,-12,-6,-9,-17
1501882094983227,7,15,12,92,6,1,6,-11
1501882094997244,-12,-15,-22,-3,3,-5,-27,15
1501882094997244,-21,8,36,78,16,14,37,47
1501882094998228,0,16,5,84,2,-2,6,-13
1501882094998228,-48,-9,25,-128,-18,-2,-1,-7
1501882095012243,14,3,8,124,21,4,-6,89
1501882095012243,-16,-21,-49,-76,-22,-9,-6,-24
1501882095021230,25,12,26,-56,-14,-1,-6,11
1501882095021230,47,-6,-37,62,-3,0,10,54
1501882095035232,-4,14,12,-38,4,2,-4,28
1501882095035232,0,9,59,49,14,0,-17,-17
1501882095036231,-17,-21,-59,-37,-12,-2,8,-22
1501882095036231,-1,2,-14,-37,13,3,-8,-23
1501882095057232,11,-19,-31,41,-25,-13,0,-42
1501882095057232,17,5,-2,-36,-14,-6,-8,6
1501882095058231,-8,5,61,41,17,3,6,8
1501882095058231,19,0,-29,-97,-5,-2,-8,0
1501882095080232,-32,-1,11,44,8,4,7,1
1501882095080232,-38,-3,37,-56,-17,-8,-13,-19
1501882095081232,74,-21,-22,-1,2,-7,2,107
1501882095081232,-63,8,7,-6,-1,3,2,-40
1501882095095234,-22,8,32,-82,-5,1,11,-19
1501882095095234,-28,-7,-64,18,0,1,-7,-17
1501882095096234,41,-9,58,52,-7,-7,-9,22
1501882095096234,-49,2,-13,56,13,2,3,-9
1501882095117236,76,0,-19,-113,-2,-2,3,35
1501882095117236,-57,-8,-21,-40,-14,-8,-22,-4
1501882095118235,-4,8,-18,-84,2,7,10,29
1501882095118235,1,-18,-5,67,-12,-10,-10,7
1501882095141237,-37,2,3,46,0,0,1,-57
1501882095141237,-6,0,-6,27,14,0,-5,-42
1501882095142245,18,2,-1,-12,-5,-1,-2,-39
1501882095142245,-11,2,15,38,-12,-5,-3,-6
1501882095155237,22,2,18,-10,12,2,-3,10
1501882095155237,9,-17,-47,24,0,2,7,31
1501882095156238,-11,13,27,-16,10,3,2,-33
1501882095156238,11,-13,-48,31,-13,-5,-1,25
1501882095177239,24,-1,0,-11,-6,-2,2,13
1501882095177239,-10,3,-3,-59,5,3,-8,-30
1501882095178239,12,3,31,110,-1,-2,14,28
1501882095178239,-41,2,-22,-20,-1,1,12,-69
1501882095201240,16,-10,10,41,2,0,0,8
1501882095201240,-1,9,35,24,-18,-10,-14,-19
1501882095201240,7,2,13,-30,3,-3,0,47
1501882095201240,2,5,1,-29,8,10,16,42
1501882095215245,8,-5,-21,7,-8,-5,-2,-14
1501882095215245,2,0,-1,-20,-1,-1,1,-33
1501882095216240,44,-1,0,-4,-1,-2,-2,8
1501882095216240,23,0,36,3,-5,-4,-4,8
1501882095237243,-37,4,-16,-12,-4,1,-1,-18
1501882095237243,23,-12,-29,45,2,2,-2,12
1501882095238247,-67,3,3,-30,-4,-8,-25,-112
1501882095238247,56,-2,37,11,11,9,15,16
1501882095261263,-31,7,28,66,1,-2,-1,3
1501882095261263,-4,-16,-52,-91,-26,-14,-11,19
1501882095261263,-19,4,16,70,12,6,8,10
1501882095261263,11,-4,-50,2,1,1,-5,-5
1501882095275248,0,-4,8,-46,7,-2,-3,-6
1501882095275248,-21,1,7,11,-7,1,-8,17
1501882095276248,-20,-5,2,81,18,3,10,-24
1501882095276248,2,3,-6,-109,-21,-5,-9,-14
1501882095297246,48,-1,-8,24,2,-2,8,14
1501882095297246,-19,-8,-18,50,6,0,-2,3
1501882095298245,6,-5,-36,-4,-9,0,0,-21
1501882095298245,-5,7,22,-1,6,-2,-14,-64
1501882095321248,-13,-2,-16,-9,-4,3,19,-10
1501882095321248,-6,4,-4,14,14,5,1,0
1501882095321248,34,-5,38,29,-4,-7,-14,-70
1501882095321248,-60,7,31,22,9,4,-3,-21
1501882095335265,-12,-20,-69,-60,-9,2,-1,-19
1501882095335265,14,13,37,79,7,1,1,4
1501882095336248,-18,-7,-26,-9,4,2,-3,-47
1501882095336248,17,0,-8,11,3,1,7,4
1501882095357250,43,1,18,-1,-8,-4,-7,20
1501882095357250,-23,17,29,-46,14,9,11,25
1501882095358248,-10,-10,-3,13,-11,-5,-4,-12
1501882095358248,3,1,6,6,17,-1,-2,1
1501882095381251,-15,15,22,-40,-13,2,3,6
1501882095381251,-5,-8,18,26,10,0,0,-13
1501882095382251,-8,-2,-52,-38,-12,-2,2,-14
1501882095382251,14,-13,-20,2,-1,-1,-1,17
1501882095395252,25,9,-5,-23,1,0,7,37
1501882095395252,3,12,36,1,-1,0,-3,-19
1501882095396252,-10,-10,-40,31,-7,-6,-3,24
1501882095396252,11,-2,16,25,6,0,-8,25
1501882095417251,-38,-12,-20,-93,-18,-3,4,-20
1501882095417251,-3,-1,-6,58,5,-3,-3,42
1501882095418252,19,15,46,45,5,7,5,23
1501882095418252,-1,-28,-57,-70,-21,-10,-6,67
1501882095441256,21,0,-24,-35,-5,-6,-15,-89
1501882095441256,18,8,4,7,-6,-1,0,-5
1501882095442262,-38,1,21,15,11,8,10,10
1501882095442262,-19,5,57,19,2,-2,-5,-17
1501882095455254,-17,-16,-16,13,-10,-6,-12,32
1501882095455254,0,-4,-25,-62,-3,-3,4,3
1501882095456255,-5,7,-16,-122,-4,2,-1,32
1501882095456255,27,-1,0,77,-9,-6,-2,5
1501882095478257,4,-4,11,1,12,8,8,38
1501882095478257,4,1,-4,-41,-5,-4,-1,20
1501882095478257,29,3,11,20,0,2,2,99
1501882095478257,-86,-8,-35,-16,-6,-3,-10,-60
1501882095501258,-47,-4,-5,27,3,-5,3,-26
1501882095501258,37,3,19,-1,5,5,3,-52
1501882095501258,-32,-4,-19,90,9,1,1,-44
1501882095501258,7,12,-23,-123,-15,-2,0,19
1501882095515260,-21,-13,10,42,-9,-4,-12,-57
1501882095515260,28,5,4,50,-1,-5,-1,28
1501882095516258,-29,-9,8,14,1,-4,-4,-45
1501882095516258,15,-4,-3,8,9,0,4,-16
1501882095537275,15,11,16,-18,1,-4,-1,33
1501882095537275,-99,-6,26,57,8,2,-6,-72
1501882095538259,24,13,11,-59,-11,3,4,13
1501882095538259,4,0,-3,30,-5,-2,1,12
1501882095561267,-6,-3,-24,13,11,4,-2,23
1501882095561267,5,-6,-8,-11,3,-3,-5,-2
1501882095562265,1,-6,-29,31,-1,-4,0,53
1501882095562265,8,0,5,-59,-10,0,1,-2
1501882095575261,27,3,4,18,-1,-2,-1,-3
1501882095575261,35,3,14,47,15,2,2,61
1501882095576262,-13,-8,11,21,-1,-2,-4,-13
1501882095576262,24,13,-5,-20,-3,-2,4,40
1501882095597277,38,3,15,-25,3,2,-6,23
1501882095597277,4,-10,-20,-4,-9,0,2,13
1501882095598262,14,0,33,37,10,0,5,-17
1501882095598262,31,-3,-29,-60,-18,-5,-1,83
1501882095621268,11,6,24,50,10,-1,7,52
1501882095621268,-32,-6,11,-16,-7,-1,1,-34
1501882095621268,46,1,2,-23,-7,-7,-7,7
1501882095621268,-20,-1,38,72,7,-3,-2,15
1501882095635264,-8,-1,-15,-8,-4,-1,-13,-48
1501882095635264,-34,-1,-12,-23,-21,-5,9,-7
1501882095636265,75,4,-12,-33,2,-3,6,65
1501882095636265,-20,-10,-23,38,9,3,-5,-78
1501882095657268,-6,8,24,3,-4,1,-2,-24
1501882095657268,-8,-7,-21,15,-4,-2,-8,-3
1501882095658268,3,0,-22,-54,-7,-4,-2,-15
1501882095658268,-2,2,12,107,18,2,-4,-21
1501882095681269,-13,-6,-26,-55,-10,1,12,26
1501882095681269,34,7,11,-2,0,2,-3,-17
1501882095681269,-43,-5,-31,-27,-1,0,1,-19
1501882095681269,12,3,60,54,5,-1,-1,10
1501882095695271,-1,-5,-18,3,4,1,-2,52
1501882095695271,-32,-5,-21,-93,-10,-2,-1,12
1501882095702283,-22,-5,-14,74,0,-4,-6,-38
1501882095702283,-20,2,22,6,-9,-1,0,-25
1501882095717270,-49,3,-3,-5,-8,-5,1,-85
1501882095717270,8,-1,-8,-16,2,0,-1,-6
1501882095718271,-39,-10,-6,-55,-5,-4,-6,23
1501882095718271,-20,8,13,62,8,5,4,3
1501882095740271,22,-12,-18,-5,-4,-6,-3,14
1501882095740271,24,5,1,32,1,1,-2,-10
1501882095741271,-27,-10,-22,15,0,0,5,8
1501882095741271,-16,3,5,-63,-4,1,-2,42
1501882095762273,-35,-2,37,119,14,5,-5,-51
1501882095762273,22,-15,-45,-89,-17,-7,-3,-12
1501882095770273,16,3,26,10,-1,0,-2,-6
1501882095770273,4,0,-22,-21,0,-1,2,7
1501882095777274,14,6,-17,-28,2,-2,-7,34
1501882095777274,-6,-5,14,20,7,0,2,12
1501882095778272,-7,3,-8,-20,-7,0,0,-10
1501882095778272,-14,-7,-9,4,6,-2,-4,-56
1501882095801288,23,-1,22,-17,-14,-4,0,31
1501882095801288,11,13,26,98,6,0,-2,28
1501882095801288,-1,-2,9,-83,-3,2,1,-7
1501882095801288,8,-10,-49,-12,3,0,2,53
1501882095814276,29,-4,-8,-29,-4,2,4,4
1501882095814276,7,8,16,1,-2,-1,-3,-43
1501882095822278,-35,-15,-17,-1,-8,-7,-1,-34
1501882095822278,-22,10,33,-11,6,1,-3,14
1501882095837292,3,-13,-87,-7,-2,1,3,50
1501882095837292,1,1,8,-11,2,1,6,3
1501882095838276,10,-5,22,58,-1,-3,-9,-42
1501882095838276,15,-3,-24,-64,-11,-4,3,-4
1501882095861288,22,12,34,15,8,0,-3,-37
1501882095861288,-14,-4,7,21,3,-4,-5,0
1501882095862288,12,0,-34,-20,-1,0,0,25
1501882095862288,30,-8,15,-49,-14,-9,-4,18
1501882095874279,-27,-1,-12,32,7,0,-5,-43
1501882095874279,6,4,8,-3,0,0,2,49
1501882095883281,-23,3,20,13,3,2,-7,-49
1501882095883281,10,-2,-13,53,11,7,6,-16
1501882095897295,-56,-8,-5,-90,-20,-11,-10,-8
1501882095897295,51,1,12,32,-4,-1,7,85
1501882095905281,-44,0,-35,-20,-2,-2,-4,-24
1501882095905281,-20,3,10,29,6,3,3,-32
1501882095920282,17,-3,6,-25,-6,-3,0,9
1501882095920282,-24,2,-7,15,15,3,2,5
1501882095927282,46,7,18,-41,-16,-1,1,21
1501882095927282,-14,2,28,26,1,-3,-4,-41
1501882095946283,8,-8,-46,-19,2,-1,1,-5
1501882095946283,-19,-4,-9,-2,-8,-3,-4,-79
1501882095946283,-11,6,32,41,13,4,-6,-66
1501882095946283,16,-3,-31,-51,-3,0,1,-1
1501882095957286,-10,5,4,40,-6,0,5,4
1501882095957286,34,-11,9,-28,-8,-8,-8,27
1501882095958285,14,2,-32,10,7,2,8,45
1501882095958285,-6,1,11,2,-1,-1,-8,-47
1501882095981287,0,-2,5,-41,4,2,2,-13
1501882095981287,-4,-13,-39,29,-2,0,-1,4
1501882095982286,4,-1,16,-6,-14,-7,-4,32
1501882095982286,3,-9,-14,-28,-7,-2,-1,100
1501882095994285,-25,1,-1,58,10,-1,7,-61
1501882095994285,-24,5,6,-95,-16,-3,-4,-36
1501882096002288,30,10,41,20,7,6,3,-9
1501882096002288,3,-11,-29,-11,-5,-4,-2,-13
1501882096017288,9,-7,-16,33,1,3,-2,22
1501882096017288,-16,-1,13,-66,-16,-11,-9,-7
1501882096018288,1,3,-20,-22,-2,-6,0,9
1501882096018288,0,5,7,46,11,3,3,1
1501882096048302,-9,1,12,-43,-6,-3,-4,17
1501882096048302,19,-3,-20,69,12,4,-2,75
1501882096049290,-41,7,4,-79,-14,-2,-1,-32
1501882096049290,1,-11,-4,55,-11,-2,2,-13
1501882096063291,3,-6,10,-19,7,-1,-4,11
1501882096063291,-38,4,6,31,11,4,2,-60
1501882096064290,8,-9,14,27,-3,-4,-5,7
1501882096064290,-3,-1,-33,-29,-3,-2,-3,20
1501882096077291,-2,2,3,-17,-3,3,7,16
1501882096077291,-1,1,10,47,7,-2,-8,-69
1501882096078290,12,-4,9,62,4,-3,0,12
1501882096078290,1,5,-6,-54,-26,-4,0,-13
1501882096101307,31,3,26,77,6,-1,1,79
1501882096101307,3,1,-3,-37,-4,-1,1,15
1501882096101307,32,-3,-2,69,22,6,1,92
1501882096101307,14,-4,6,-12,-7,-9,-11,-7
1501882096123294,10,3,30,-44,-12,-2,6,-9
1501882096123294,-27,-10,-27,17,-3,0,2,33
1501882096124295,5,1,27,-13,1,4,0,-9
1501882096124295,11,6,11,4,19,6,2,12
1501882096137295,-17,-9,-18,-7,-10,-3,-6,19
1501882096137295,20,-4,6,44,-7,-4,1,-14
1501882096138294,-32,-1,-53,-55,2,2,-1,39
1501882096138294,1,-3,24,-18,-5,-3,1,-25
1501882096161317,-2,5,20,14,11,2,-2,-15
1501882096161317,-6,2,-9,-35,-1,1,2,12
1501882096161317,4,-3,2,0,-4,-4,0,1
1501882096161317,3,-1,-31,9,4,3,5,-13
1501882096183298,-23,-5,5,-10,7,1,-7,-32
1501882096183298,27,3,-9,47,-9,-5,0,-5
1501882096184297,-36,-12,-13,-63,-21,-11,-11,-90
1501882096184297,14,3,17,22,5,-1,2,16
1501882096197299,2,-1,2,0,-2,0,-2,-14
1501882096197299,-18,-1,-28,-29,7,2,1,-8
1501882096198299,-1,8,59,55,6,0,-2,8
1501882096198299,-22,3,6,-59,-5,4,1,-14
1501882096221303,13,-7,-19,39,-1,-5,-6,1
1501882096221303,0,5,17,5,-4,-1,5,2
1501882096221303,10,-6,-75,-51,-12,0,-2,6
1501882096221303,-17,-6,22,54,11,0,-5,-48
1501882096243303,27,-3,-5,47,-3,-5,1,20
1501882096243303,13,1,11,-44,-4,2,0,-5
1501882096244301,7,-5,0,12,7,1,0,8
1501882096244301,-5,13,23,47,8,4,1,4
1501882096257303,5,-12,-32,-27,-17,-8,-4,67
1501882096257303,-18,-2,-37,-94,-2,0,3,-39
1501882096258304,-13,1,69,90,6,-2,5,3
1501882096258304,25,-3,-5,1,-1,-2,-3,42
1501882096281304,-38,12,47,58,13,5,4,-9
1501882096281304,20,-13,-47,-15,-4,-2,-4,25
1501882096281304,25,0,-20,-16,-5,-1,0,33
1501882096281304,-36,4,8,1,-5,-5,-2,-45
1501882096303319,-8,-7,-29,37,11,4,1,-9
1501882096303319,4,9,34,-37,-10,-1,0,7
1501882096304305,-12,-13,-21,-13,-1,-1,-4,-25
1501882096304305,9,-10,-29,-9,-3,-2,0,9
1501882096317307,8,10,36,-22,0,-2,-3,-26
1501882096317307,-8,3,12,35,2,0,-3,27
1501882096318305,5,-9,-7,17,-12,-9,-4,4
1501882096318305,8,6,-3,12,8,3,1,8
1501882096340321,2,1,7,-76,-6,0,5,5
1501882096340321,2,-7,41,18,6,3,2,3
1501882096347307,-7,4,-23,-16,2,2,3,13
1501882096347307,-18,2,3,17,-7,-7,-7,-26
1501882096363309,-9,0,4,51,10,-2,-5,-34
1501882096363309,27,-3,12,-37,-12,-1,-2,-3
1501882096364311,-79,7,7,-61,3,4,-2,-84
1501882096364311,1,-10,-68,24,-13,-3,-5,21
1501882096377312,2,-4,-33,9,0,-3,2,13
1501882096377312,5,5,42,8,2,1,0,10
1501882096378315,22,-11,-45,31,4,1,1,14
1501882096378315,20,3,25,-56,-11,-2,3,-20
1501882096400311,-25,1,23,-25,-6,-3,-12,-19
1501882096400311,29,-13,-53,69,13,-1,5,20
1501882096401311,-1,14,35,-56,-19,-5,0,36
1501882096401311,-1,-3,34,-26,7,4,-1,11
1501882096423326,18,-5,-32,48,-4,-2,-1,8
1501882096423326,-46,-3,-4,-16,2,-2,-4,-21
1501882096424315,25,-2,-6,7,-3,-4,-3,5
1501882096424315,5,-4,10,-60,-2,-1,-1,28
1501882096437328,15,-3,-2,12,-4,-1,-4,7
1501882096437328,-18,-7,-39,50,5,0,-2,-31
1501882096438312,4,1,32,-17,1,1,3,-14
1501882096438312,-15,3,-25,8,-3,-1,1,37
1501882096460325,-21,6,39,-37,4,2,-2,-67
1501882096460325,-18,-5,7,14,-5,-5,-7,9
1501882096467318,16,-9,-35,22,-1,-1,2,5
1501882096467318,-8,-2,-9,-25,-4,-5,-4,-9
1501882096483317,-10,0,12,-7,-2,0,-1,-4
1501882096483317,-13,3,-9,-25,5,2,-5,-1
1501882096484316,-4,2,15,66,0,-1,10,11
1501882096484316,-17,-4,11,35,8,-2,-9,-6
1501882096498354,11,-2,-41,-44,-9,-1,8,53
1501882096498354,3,9,79,-45,-8,-4,-5,-1
1501882096499317,14,-12,-74,-44,1,4,5,19
1501882096499317,16,0,29,46,5,-1,-4,-19
1501882096520335,3,1,-26,84,5,-1,-2,-3
1501882096520335,7,-19,-50,-102,-21,-6,1,14
1501882096521335,-5,4,12,12,7,2,-5,-12
1501882096521335,-35,1,7,29,4,1,5,-32
1501882096543336,22,-3,15,-8,-6,-4,-6,1
1501882096543336,20,14,-6,45,11,6,9,33
1501882096544319,-5,-11,10,11,-10,-5,-5,-10
1501882096544319,3,-4,-13,-2,3,1,6,-10
1501882096557320,16,0,23,-20,3,1,0,-16
1501882096557320,8,-10,-72,16,-9,-8,-6,73
1501882096558319,12,6,28,-18,1,-2,-5,-12
1501882096558319,18,-4,-27,-19,-2,-2,1,13
1501882096580341,-21,-2,9,18,-3,-1,1,-13
1501882096580341,47,10,15,38,13,1,3,57
1501882096581325,-12,3,17,-19,3,-3,-6,-29
1501882096581325,-9,0,7,-11,-12,-4,-3,13
1501882096603363,14,9,3,38,5,0,0,13
1501882096603363,-34,1,16,-29,-9,0,-4,-61
1501882096604323,-10,-4,-46,-61,4,2,4,-21
1501882096604323,9,-2,24,76,3,-3,-4,1
1501882096617343,0,-4,-12,-45,-4,-4,-3,2
1501882096617343,-4,5,-2,6,1,1,3,16
1501882096618323,23,0,9,21,2,-1,0,30
1501882096618323,-12,0,-6,-46,-3,0,4,-13
1501882096640324,5,-3,-21,-39,-4,0,2,-27
1501882096640324,-23,11,43,71,14,2,-1,-36
1501882096641323,-12,2,17,-32,-15,2,0,-21
1501882096641323,-20,-4,-22,36,1,-3,-3,-12
1501882096662325,-1,6,26,-33,-6,-3,-3,27
1501882096662325,-2,-5,16,17,4,3,-7,-32
1501882096670326,4,0,-22,67,5,-3,-2,69
1501882096670326,12,1,1,-36,-14,-3,-1,-4
1501882096677344,-14,-6,-6,-42,4,1,-1,-10
1501882096677344,-13,8,36,18,-2,-1,2,-12
1501882096685368,11,-11,-26,24,2,-6,-11,6
1501882096685368,10,-1,-22,-6,4,6,2,12
1501882096700368,-17,-3,-24,-41,-22,-7,-1,-4
1501882096700368,-12,-3,8,-31,-8,-5,-7,-12
1501882096701333,-19,-8,-9,8,4,3,1,-11
1501882096701333,16,6,3,-12,2,1,3,-13
1501882096723333,-2,3,19,38,5,3,3,-15
1501882096723333,-4,-1,-10,-35,4,-1,0,32
1501882096724330,15,0,-13,-38,-3,2,5,-10
1501882096724330,17,2,42,60,-1,-5,-4,-4
1501882096737368,-7,1,-3,15,0,0,-1,2
1501882096737368,24,-3,-6,14,0,1,0,11
1501882096745334,-9,5,16,-15,5,0,-3,6
1501882096745334,15,3,-11,-6,-5,3,0,24
1501882096760381,9,-9,-11,33,5,1,-1,39
1501882096760381,24,1,-15,-19,2,0,0,-22
1501882096761346,-23,9,81,-7,-14,-4,1,-34
1501882096761346,-28,-17,-42,27,6,1,-1,3
1501882096783334,10,-11,-37,-39,-4,-6,-4,14
1501882096783334,-3,2,8,-10,-2,0,-3,-10
1501882096784336,4,-2,-28,29,8,0,1,-3
1501882096784336,-19,6,2,-60,-5,1,1,-32
1501882096797351,3,8,20,-12,0,1,1,28
1501882096797351,-7,-16,-10,81,6,-2,-2,-42
1501882096805334,15,3,-5,-58,-22,-3,-3,-7
1501882096805334,-6,-1,7,20,7,1,-6,2
1501882096820355,-1,0,-6,-5,0,-2,-1,-1
1501882096820355,15,-4,-17,-86,-15,-4,-1,6
1501882096821335,-4,-3,1,64,3,0,-2,7
1501882096821335,-12,-4,12,-6,1,-2,-5,-11
1501882096843336,-1,-1,-5,-39,-15,-5,-5,-16
1501882096843336,-14,4,21,38,3,0,3,6
1501882096844336,27,-5,-14,1,-2,-2,-1,-1
1501882096844336,6,-7,-36,-34,-8,-3,-5,29
1501882096857342,-8,3,19,55,7,3,5,7
1501882096857342,-11,3,12,-63,-2,0,1,9
1501882096865357,-3,-1,0,-12,2,1,-3,-4
1501882096865357,-16,-5,-23,-29,-11,-5,1,-2
1501882096880344,13,4,-9,6,6,2,-1,-9
1501882096880344,40,-4,-32,19,-3,-1,-2,8
1501882096881359,-25,-4,10,10,7,3,1,-10
1501882096881359,19,4,14,-12,2,-2,3,34
1501882096903401,-37,-2,-18,-27,-11,-5,-3,-88
1501882096903401,-12,-6,-21,9,-6,-2,-3,-10
1501882096904340,-5,3,14,20,9,1,0,-6
1501882096904340,3,-4,-11,24,0,-2,-4,-1
1501882096917340,3,8,24,-30,0,1,-3,-31
1501882096917340,-17,-12,-10,49,3,-2,3,18
1501882096925340,0,-1,-18,-7,-8,-4,-6,31
1501882096925340,15,1,-10,-59,-21,-7,-2,-54
1501882096940343,-29,-1,24,68,9,0,-2,-15
1501882096940343,-13,-5,8,-7,-5,-1,-3,-13
1501882096948360,-2,3,-4,17,7,2,1,-3
1501882096948360,-11,-1,8,8,5,2,-1,8
1501882096971396,22,1,22,15,3,-1,-2,28
1501882096971396,-2,-5,6,-59,-8,-3,0,-4
1501882096971396,18,-1,2,7,-6,-2,4,81
1501882096971396,0,2,-4,23,10,2,2,-6
1501882096977363,7,-1,-13,-14,-7,0,2,15
1501882096977363,5,2,31,-10,-7,-3,-5,-39
1501882096985406,-28,2,-30,0,4,3,0,-13
1501882096985406,11,-10,-31,-25,-5,-4,-3,7
1501882097000403,13,-6,7,18,1,1,-2,-23
1501882097000403,-26,1,3,50,2,1,2,10
1501882097001366,-8,-2,-14,-53,-4,1,-1,-4
1501882097001366,12,3,37,45,0,0,-2,-42
1501882097023349,-31,-4,-20,-32,3,2,3,27
1501882097023349,-11,-1,-10,-12,-3,-1,-4,-42
1501882097024348,-5,-1,4,7,-4,-5,-6,-61
1501882097024348,7,-1,6,52,5,0,-2,11
1501882097046348,3,1,9,-26,-13,-4,-3,22
1501882097046348,-5,2,-26,-47,-4,3,1,1
1501882097047350,2,-1,-14,24,2,-2,-4,5
1501882097047350,-5,6,21,-13,1,0,2,12
1501882097060350,-2,-12,-20,9,4,0,-1,-3
1501882097060350,31,1,-13,23,-1,-3,-1,37
1501882097061352,-3,-11,-13,-57,-9,-6,-3,-10
1501882097061352,1,1,0,21,2,0,-2,24
1501882097083370,-5,1,10,-15,1,-1,0,-17
1501882097083370,9,9,2,-12,3,0,-5,-91
1501882097084351,-4,-8,-17,-37,-16,-1,3,23
1501882097084351,-10,-5,14,0,-5,-1,0,0
1501882097106350,-14,-1,-15,33,1,-1,-1,-10
1501882097106350,13,1,17,24,1,-2,1,40
1501882097107351,-6,5,28,7,2,-4,-4,-5
1501882097107351,8,0,-8,-42,-1,2,1,-21
1501882097120355,43,-3,-11,20,4,2,3,34
1501882097120355,-17,-3,-2,-21,-7,-5,-3,4
1501882097121352,-1,5,35,19,10,-1,-2,-12
1501882097121352,-21,-3,-31,-50,-8,-5,-1,30
1501882097143353,26,8,11,-5,-11,0,-5,2
1501882097143353,-15,0,-3,10,3,0,4,-16
1501882097144354,14,2,18,14,-3,0,2,16
1501882097144354,-2,-3,6,-12,1,-2,-1,-30
1501882097166356,14,0,-2,-9,-2,-6,-4,16
1501882097166356,-20,-2,2,16,5,3,2,2
1501882097166356,-5,1,7,33,2,1,-2,-8
1501882097166356,-1,-5,-37,-46,-9,-1,-2,19
1501882097180356,16,-5,10,29,-3,-6,-2,-10
1501882097180356,14,2,-17,14,9,3,4,-31
1501882097181356,9,-3,19,78,3,-3,-2,-3
1501882097181356,-22,-1,7,-6,5,-1,-2,28
1501882097203359,-11,7,-14,-23,-7,2,2,-35
1501882097203359,1,-14,-9,-45,-2,0,-1,26
1501882097204359,-20,-6,16,18,-4,-2,-5,-23
1501882097204359,15,2,-19,-23,-5,-5,-3,-23
1501882097226359,-9,3,17,24,13,1,-1,-1
1501882097226359,4,4,-5,-23,-2,-2,0,49
1501882097226359,2,3,-7,-3,1,1,-2,-58
1501882097226359,-6,-5,19,-13,-1,1,-2,11
1501882097240360,13,-3,-11,36,4,2,2,12
1501882097240360,-17,-6,-7,-29,-9,-4,-5,-21
1501882097241359,1,0,1,-24,7,-6,-3,23
1501882097241359,8,6,9,34,4,9,2,0
1501882097263361,-5,2,3,-7,2,3,2,-4
1501882097263361,8,0,-7,-23,-7,-3,-2,15
1501882097264361,-2,-11,-16,11,-3,-1,-1,0
1501882097264361,-5,-4,14,-15,-4,-3,-2,-20
1501882097286362,-18,-5,-14,-12,-5,-6,-5,4
1501882097286362,3,0,3,6,-1,-1,-3,1
1501882097286362,13,7,-5,15,7,3,-1,2
1501882097286362,2,-9,-20,-34,-9,-2,4,-12
1501882097300362,-10,3,46,81,16,1,-2,-3
1501882097300362,1,-3,-31,-61,-24,-7,-3,-73
1501882097301363,-8,-2,-10,-50,-7,1,0,-14
1501882097301363,-43,-6,9,21,2,-4,-6,-42
1501882097323367,-8,0,-17,-39,-1,2,0,-8
1501882097323367,0,-1,2,3,5,2,-4,-7
1501882097324364,-7,4,39,26,0,1,4,15
1501882097324364,5,7,1,38,3,1,0,9
1501882097346366,2,-14,-33,-24,-7,-3,-3,7
1501882097346366,-4,2,34,4,-1,-5,1,28
1501882097346366,5,-9,-67,-62,-7,-2,-3,28
1501882097346366,22,6,26,16,3,0,-1,21
1501882097360368,-12,-1,-10,2,0,-1,-1,-3
1501882097360368,11,2,1,42,20,5,-1,45
1501882097361369,-23,-2,5,-31,-20,-6,-1,-54
1501882097361369,18,3,7,-2,3,1,0,1
1501882097383369,9,-3,4,-49,-4,-1,-2,-10
1501882097383369,-21,4,-22,-9,6,3,3,3
1501882097384379,14,-4,11,99,7,0,1,-2
1501882097384379,-12,-5,-6,-22,-13,-4,-3,3
1501882097406376,-14,-2,-4,-1,-10,-5,-3,-11
1501882097406376,21,2,15,4,5,1,-2,-1
1501882097406376,15,1,-27,-19,3,1,1,38
1501882097406376,14,0,16,2,3,-2,-2,10
1501882097419372,-12,-7,3,11,0,0,0,4
1501882097419372,-17,-3,-1,10,-4,-5,-4,-9
1501882097427372,26,2,11,6,4,3,0,20
1501882097427372,-11,-1,-3,-3,0,1,3,-3
1501882097443376,17,10,39,40,7,-3,1,82
1501882097443376,-47,-19,-62,-69,-17,-6,-6,-76
1501882097444371,2,2,14,-3,0,1,2,0
1501882097444371,-7,3,-1,-11,-1,0,-2,0
1501882097465373,-9,-4,-21,-24,-1,-1,0,-1
1501882097465373,13,5,20,43,3,2,3,29
1501882097472374,20,3,-9,-24,3,0,3,4
1501882097472374,-5,1,30,43,4,3,0,1
1501882097480374,2,-3,-34,-64,-11,1,-3,-12
1501882097480374,4,2,34,112,10,-1,3,-8
1501882097481377,-18,-6,-11,-47,2,2,2,-21
1501882097481377,21,5,-3,37,-1,-1,1,14
1501882097503388,0,4,-12,4,1,-2,-4,-12
1501882097503388,4,-3,16,-11,-4,-1,-1,17
1501882097504375,-5,8,7,12,7,2,6,13
1501882097504375,-3,-12,-3,22,-12,-8,-12,-2
1501882097526375,2,4,5,-4,4,4,6,-25
1501882097526375,1,-3,-16,0,-4,-2,-5,18
1501882097526375,-6,-2,13,18,2,-1,-7,-14
1501882097526375,3,-4,-14,-18,2,1,2,-3
1501882097540380,1,-4,-7,-36,-6,-1,-2,-23
1501882097540380,7,3,-6,53,8,2,0,7
1501882097541376,0,-3,5,-36,-11,-4,-4,12
1501882097541376,-2,-5,-13,-26,1,-4,-5,6
1501882097563382,1,-5,-15,9,-3,-2,0,3
1501882097563382,-14,3,23,7,-1,2,2,15
1501882097564379,9,0,-1,-6,-4,-3,-6,-15
1501882097564379,5,8,20,-4,2,0,1,19
1501882097586379,11,-12,-38,12,0,-1,9,-42
1501882097586379,6,-4,15,-3,-4,-2,1,2
1501882097586379,-25,-4,-11,18,-1,-2,-9,-10
1501882097586379,1,0,-29,-33,-5,2,2,2
1501882097600394,-6,0,5,17,2,1,10,21
1501882097600394,2,2,2,-22,0,-1,-6,-13
1501882097601381,8,3,10,24,-5,0,1,-31
1501882097601381,-17,-5,-3,-2,-1,-4,-1,-14
1501882097623381,-10,-7,-5,-28,-9,-7,-9,8
1501882097623381,-1,-2,-22,-21,1,0,1,-5
1501882097625382,1,6,19,34,5,0,-2,19
1501882097625382,2,-1,-21,13,3,1,-1,-16
1501882097646384,-16,-7,25,-24,-14,-6,-5,10
1501882097646384,-1,2,20,8,2,2,1,22
1501882097648386,4,-5,-21,-30,-2,0,-3,-24
1501882097648386,-4,2,21,9,5,1,3,-4
1501882097659387,10,8,8,81,4,1,-1,9
1501882097659387,-2,-6,0,-11,-6,-9,-10,-11
1501882097668386,-8,-7,22,18,-2,-1,-1,2
1501882097668386,3,-1,-36,-48,-6,1,1,-7
1501882097683391,13,9,38,-15,6,4,2,-11
1501882097683391,-4,-11,-9,29,-6,-1,-4,-9
1501882097685386,-13,3,-2,0,5,0,1,0
1501882097685386,-23,-5,-9,-9,-7,-3,-1,-21
1501882097706386,5,3,-2,-30,-2,0,0,29
1501882097706386,-14,2,12,-27,-1,1,2,-33
1501882097707387,-14,-2,-2,36,3,-5,-3,5
1501882097707387,15,-6,-10,16,-3,-3,1,12
1501882097719387,-7,-2,-14,-33,2,-1,-5,-19
1501882097719387,-3,7,-10,55,0,-1,3,28
1501882097728388,6,-3,19,-54,-7,0,3,3
1501882097728388,-1,2,0,11,4,-3,4,0
1501882097743390,5,-2,-10,-6,-1,-1,-2,2
1501882097743390,22,-2,-12,-17,-6,1,0,0
1501882097745389,4,6,0,25,-5,-3,-4,-6
1501882097745389,-4,-9,2,-5,-5,-1,-1,-3
1501882097765389,-1,-3,0,10,1,-1,-3,3
1501882097765389,-21,4,-8,-48,0,0,1,-39
1501882097767390,-15,0,12,52,1,0,0,20
1501882097767390,-8,4,4,-18,-4,-2,-4,-23
1501882097779392,-12,0,3,32,5,1,-5,-29
1501882097779392,19,-11,-17,-28,0,-4,-2,45
1501882097789391,13,4,5,-34,-6,-2,6,6
1501882097789391,-23,3,34,59,4,2,0,33
1501882097803391,3,-1,-33,44,2,-1,0,-3
1501882097803391,7,-1,-11,-66,-7,-4,-6,-14
1501882097805393,-12,-7,-31,-27,-1,-1,-1,-1
1501882097805393,16,0,11,0,3,0,2,18
1501882097826393,-7,3,-2,0,-2,0,0,-1
1501882097826393,-2,-2,0,51,7,-1,0,3
1501882097827394,7,0,-5,-10,0,3,0,11
1501882097827394,5,1,4,2,0,-1,-3,-17
1501882097839434,26,-4,-24,-38,-10,-4,-4,-20
1501882097839434,16,1,10,21,9,1,-1,10
1501882097848395,-4,-6,-33,-7,0,-2,-1,-6
1501882097848395,5,9,25,6,-2,0,1,-2
1501882097863400,7,-9,12,-25,-2,-6,-3,36
1501882097863400,-13,-5,2,-7,-6,-2,-3,-3
1501882097865417,-8,3,8,7,5,0,-1,-10
1501882097865417,15,-5,-29,-14,6,1,-1,28
1501882097886399,-10,2,27,33,0,0,0,-28
1501882097886399,-3,4,5,15,-7,-3,-1,-2
1501882097887415,3,-7,3,-2,-3,-3,-1,23
1501882097887415,-2,-1,-15,-21,-4,-3,-1,11
1501882097899449,-23,2,4,-44,4,4,0,8
1501882097899449,38,0,19,73,-1,-3,-5,7
1501882097908397,-19,-3,-29,-31,-5,-2,8,-60
1501882097908397,11,4,-7,-8,-4,-3,-6,0
1501882097923402,-11,-4,9,12,-3,-1,-1,-6
1501882097923402,-13,-3,-17,-6,3,4,3,-19
1501882097925400,8,2,27,18,4,0,-1,14
1501882097925400,-7,-1,-1,-2,-8,1,0,-19
1501882097946411,-11,-3,10,-8,-5,-8,-11,-30
1501882097946411,-4,1,-13,-41,0,-3,1,12
1501882097947400,2,2,25,24,1,3,1,19
1501882097947400,0,-7,-36,7,4,1,1,-10
1501882097968402,-1,9,28,-8,-6,3,1,8
1501882097968402,3,-9,-24,-62,-12,-9,-9,22
1501882097970405,-1,0,-8,14,-1,-2,5,1
1501882097970405,-2,-6,8,46,4,2,0,-5
1501882097983429,5,3,-9,4,4,1,2,12
1501882097983429,-7,2,10,-6,-1,1,9,-4
1501882097985423,-2,-1,-1,-9,-1,-1,-10,0
1501882097985423,-1,1,-7,-36,2,1,3,0
1501882098006415,4,-3,4,-3,0,0,9,-5
1501882098006415,-8,-6,-5,78,-1,-5,-5,-2
1501882098007404,-1,1,-12,-47,-7,-1,-4,20
1501882098007404,7,0,40,14,0,-3,-5,-1
1501882098036406,-1,-2,-33,-24,0,-3,-4,-2
1501882098036406,-7,3,12,-14,5,6,4,-1
1501882098037425,22,-1,2,8,-2,-1,-6,-30
1501882098037425,-4,0,-5,2,-3,-2,1,11
1501882098043406,2,0,5,-5,-1,2,2,10
1501882098043406,-11,0,15,32,0,-1,-1,-18
1501882098045419,14,-4,-28,-11,3,-2,-7,15
1501882098045419,-8,1,3,19,1,0,5,-7
1501882098065408,-2,-4,-6,-29,-2,-4,0,-1
1501882098065408,7,0,-7,3,-3,1,2,16
1501882098067408,-13,3,18,-29,-12,-2,-4,12
1501882098067408,-4,-17,-35,19,-5,-6,-6,-15
1501882098088416,-7,4,14,1,3,0,-1,6
1501882098088416,15,-1,-1,9,2,2,6,-15
1501882098090428,-7,-3,-3,10,2,1,4,-8
1501882098090428,-3,3,16,-20,-5,-2,-5,1
1501882098103469,-6,-3,-2,21,-1,-1,-2,41
1501882098103469,-30,1,10,-20,5,2,-6,-94
1501882098105410,30,-4,-16,-16,-11,-8,0,26
1501882098105410,-4,-6,-24,11,-1,-3,1,6
1501882098125414,4,-8,-30,-13,2,-2,-6,-15
1501882098125414,-3,0,0,-33,-12,-2,-2,15
1501882098127412,-11,-1,-5,-25,-1,0,2,7
1501882098127412,2,7,40,29,2,-1,-3,-19
1501882098148412,0,-1,-6,0,2,0,2,0
1501882098148412,14,-3,-13,0,6,-1,-2,21
1501882098150432,-22,-1,12,-3,-2,2,1,-27
1501882098150432,1,0,-4,-18,3,2,-2,31
1501882098162423,10,-2,1,22,-4,-2,-3,1
1501882098162423,-3,1,-5,-37,-5,-2,0,10
1501882098169415,1,-1,6,42,3,-2,-1,36
1501882098169415,-8,2,0,-62,-1,1,3,2
1501882098185415,-2,-2,10,90,3,0,-3,-18
1501882098185415,-18,3,6,2,1,1,-1,56
1501882098187414,19,-11,-3,-26,1,-1,2,14
1501882098187414,14,1,-23,1,-4,-2,-2,14
1501882098208415,-10,2,21,-58,-9,-2,0,-5
1501882098208415,7,-9,-25,3,-2,-6,-5,9
1501882098210418,-12,-2,-13,3,2,-2,-7,-35
1501882098210418,0,4,14,-18,1,1,-1,-11
1501882098222418,10,-1,9,-5,-7,-3,1,2
1501882098222418,-1,0,2,71,11,0,1,-5
1501882098229418,22,6,-2,-38,-2,1,6,61
1501882098229418,-20,-2,-5,7,3,0,-1,-43
1501882098245420,-4,-1,-8,9,2,-1,-1,-4
1501882098245420,2,0,2,-11,-6,-4,-3,-1
1501882098248418,3,-2,-7,20,3,3,-4,-13
1501882098248418,10,2,1,-18,-5,-1,0,23
1501882098268420,-14,-6,-17,18,7,0,-2,-11
1501882098268420,-1,1,11,-4,-3,-1,0,0
1501882098270419,-2,2,11,18,0,-1,-4,3
1501882098270419,-5,-6,-14,-48,-7,-1,-3,0
1501882098283419,-14,-5,0,28,-1,-2,-7,-22
1501882098283419,11,8,21,-2,-6,0,-2,-7
1501882098291421,-6,5,-3,-3,1,0,3,1
1501882098291421,-7,-4,8,57,0,-4,-4,-9
1501882098305422,3,-8,-37,-65,-15,-4,-1,11
1501882098305422,-10,-1,-5,-37,0,0,2,-6
1501882098307421,11,-4,-2,19,2,0,-3,-3
1501882098307421,0,2,7,-3,-4,2,0,-3
1501882098328441,-6,0,-6,9,-1,-2,0,3
1501882098328441,-8,-5,-8,-19,-1,-2,1,0
1501882098330433,12,0,6,6,-2,0,-6,-20
1501882098330433,-21,2,4,16,1,-3,-2,36
1501882098342423,4,5,17,-9,7,3,3,-20
1501882098342423,9,-2,2,24,-3,1,-2,13
1501882098349439,-10,1,3,-8,4,0,4,10
1501882098349439,4,-5,-19,-1,-4,-4,-4,-41
1501882098365425,17,4,10,4,0,-4,-8,-1
1501882098365425,2,3,-6,-38,5,2,6,-1
1501882098367424,-16,-7,-16,54,-1,-1,2,-13
1501882098367424,3,0,12,-19,-4,-3,-2,7
1501882098388433,-3,1,11,22,1,-3,10,7
1501882098388433,-3,-1,-7,-24,-1,-1,-7,-39
1501882098390428,2,0,7,-29,-9,-4,0,-8
1501882098390428,-11,-6,4,73,7,0,-1,-29
1501882098402466,-1,3,2,-54,-4,-1,-1,-8
1501882098402466,-11,-7,-16,8,-9,0,-2,13
1501882098409429,-3,-2,-1,16,11,-4,-3,-12
1501882098409429,8,-1,-2,-26,-14,-3,-1,3
1501882098425433,-6,-4,-9,-15,-2,1,-1,14
1501882098425433,-1,3,13,0,2,2,2,-16
1501882098427429,-2,0,-6,-18,-1,-1,-5,-9
1501882098427429,10,0,12,31,0,-3,3,5
1501882098448465,6,1,-1,12,3,3,2,25
1501882098448465,-9,-4,-28,-26,-8,-5,-1,-5
1501882098450467,1,-1,-4,4,-2,-3,-6,6
1501882098450467,-1,1,10,0,6,1,-4,18
1501882098462440,0,5,12,-13,3,2,0,-13
1501882098462440,-6,-6,13,6,-3,-4,-2,-11
1501882098471430,-14,-6,-12,-16,-7,-1,-1,-9
1501882098471430,9,-1,-11,-25,1,0,1,-3
1501882098486437,-2,0,10,32,1,-1,-10,-3
1501882098486437,8,3,0,-10,4,-1,3,7
1501882098487443,-5,0,6,6,-2,-1,-2,-15
1501882098487443,-5,-5,-48,-40,-3,1,-2,-3
1501882098508438,3,2,23,19,5,2,2,3
1501882098508438,0,7,36,84,6,-1,0,8
1501882098510441,9,-1,-17,-10,-8,-1,0,1
1501882098510441,-2,-2,11,15,2,-3,-2,11
1501882098522471,-1,0,-28,-40,-1,2,2,-11
1501882098522471,-3,-1,9,14,0,-5,2,8
1501882098531454,-6,0,-14,-5,-2,-1,-8,-6
1501882098531454,5,-2,-7,-14,1,-1,7,-6
1501882098545443,-3,-1,-6,0,-6,-1,-1,-2
1501882098545443,0,0,0,-23,-1,1,-7,-7
1501882098548437,-4,0,-1,-25,-2,-2,6,13
1501882098548437,-7,1,13,69,-2,0,5,-1
1501882098568454,-1,-8,-21,12,-2,-4,-4,51
1501882098568454,7,-2,-6,-33,-6,2,-2,8
1501882098570439,-2,3,25,-29,-1,-4,-11,-8
1501882098570439,0,-1,-30,5,3,3,0,-1
1501882098582446,-13,-4,-7,9,-1,-1,1,1
1501882098582446,3,0,0,-14,-2,0,-4,-3
1501882098591440,3,-2,19,49,-2,-3,0,-4
1501882098591440,-3,-1,-21,-35,-5,-5,-4,-1
1501882098605475,-2,2,16,-5,-4,-1,0,-14
1501882098605475,0,-5,-17,6,2,3,4,-7
1501882098607441,-11,-2,0,-11,1,0,0,-19
1501882098607441,5,3,8,40,2,1,-4,-6
1501882098628472,2,-3,-3,9,-4,-1,0,-1
1501882098628472,0,-1,-15,-15,7,-1,0,2
1501882098630476,0,1,28,-54,-9,-3,0,14
1501882098630476,-2,-5,18,62,4,-3,-2,-16
1501882098642445,5,0,-12,-50,-5,-3,-2,-7
1501882098642445,-9,1,0,11,0,1,3,4
1501882098651465,-5,-1,-11,13,2,-1,-1,-48
1501882098651465,-4,4,7,-30,1,4,0,3
1501882098665463,21,-7,15,24,-6,-6,-1,-9
1501882098665463,-15,-2,-10,23,-2,0,0,-10
1501882098667442,0,0,-1,-19,-3,-1,1,27
1501882098667442,-7,-4,-9,-2,4,0,-4,-1
1501882098688454,-19,0,1,-12,-6,2,1,-9
1501882098688454,31,-2,-3,-23,-3,-4,-4,16
1501882098690447,-21,0,9,44,0,1,1,2
1501882098690447,-8,-5,-11,-24,-3,-7,-5,-8
1501882098702484,-5,2,24,4,4,3,0,-4
1501882098702484,-8,-9,-40,-35,-8,-4,-5,-2
1501882098711458,1,3,2,-2,3,3,6,1
1501882098711458,4,-6,-22,-19,-6,-3,0,7
1501882098725447,5,-3,-6,27,1,-3,4,66
1501882098725447,-9,0,1,-7,-2,-2,1,0
1501882098727446,3,1,-13,28,3,0,-1,-1
1501882098727446,-2,1,32,-32,-8,-2,-2,2
1501882098748479,5,-7,-28,28,1,0,-3,-11
1501882098748479,-6,1,35,14,-1,-1,1,11
1501882098750468,-1,-7,-46,-22,2,0,-1,-37
1501882098750468,22,2,7,-28,-4,-2,-1,71
1501882098762452,-8,1,19,32,2,-2,-6,-32
1501882098762452,-1,-4,-18,3,0,-2,-2,-6
1501882098771448,-6,0,10,1,-2,1,5,3
1501882098771448,-4,1,4,15,3,2,-3,-16
1501882098785457,-8,-7,-7,-34,-2,-4,0,-24
1501882098785457,12,4,12,46,2,-2,4,71
1501882098787453,0,-3,0,-39,-4,-2,-7,12
1501882098787453,1,-4,-15,-7,-10,-4,-1,-20
1501882098808451,0,4,3,-26,4,3,2,-4
1501882098808451,-20,-2,-4,-6,1,-1,-8,-20
1501882098810454,19,2,-2,32,5,0,4,63
1501882098810454,-8,-3,-4,33,1,2,3,-12
1501882098822452,-1,2,-10,-105,-15,-2,-1,-7
1501882098822452,2,-7,13,28,-3,-6,-2,-20
1501882098831473,8,1,-1,32,1,-2,-2,-28
1501882098831473,-51,-2,12,4,6,1,-3,-36
1501882098845454,27,-1,-10,-14,-9,-3,-6,14
1501882098845454,-16,4,-4,-12,-1,3,9,-31
1501882098848453,-16,2,2,-10,-7,-4,-6,-34
1501882098848453,17,-5,3,-59,-9,-3,2,110
1501882098868473,-34,-13,-36,32,4,-5,-15,-36
1501882098868473,-5,7,6,-52,5,6,5,17
1501882098870488,2,-6,8,44,0,0,5,34
1501882098870488,13,2,-7,30,8,0,-3,16
1501882098882520,-6,4,24,-15,-1,1,10,12
1501882098882520,-14,-5,-16,-28,-14,-4,-7,33
1501882098891456,0,1,16,-10,0,-3,2,-22
1501882098891456,17,-1,-37,-3,1,1,3,-6
1501882098905458,13,-3,-2,48,8,-3,0,-3
1501882098905458,3,7,12,11,3,3,2,-57
1501882098907457,-5,-2,-8,14,3,2,-3,1
1501882098907457,-16,2,15,-26,-8,-2,-6,-90
1501882098928458,33,0,-4,20,1,-1,3,39
1501882098928458,-9,-3,-4,22,2,-1,-3,-4
1501882098930465,2,1,-1,-72,-8,1,-2,-8
1501882098930465,21,-5,-20,10,-7,-5,-1,8
1501882098950467,-20,-2,24,35,-3,-4,-3,1
1501882098950467,14,8,19,34,12,2,2,20
1501882098958460,-11,-15,-25,-32,-6,-2,-5,-5
1501882098958460,5,-2,-4,-17,-2,1,4,5
1501882098964460,-5,3,-2,-29,-3,1,0,-5
1501882098964460,-2,-3,-3,8,1,0,-3,41
1501882098973460,-30,4,17,68,6,2,-3,4
1501882098973460,-1,-7,-15,-77,-5,-3,-6,-33
1501882098988462,-14,-2,-4,2,0,0,3,-19
1501882098988462,5,-1,-9,-57,-7,0,5,0
1501882098990462,-11,0,-7,-19,1,-1,-7,-3
1501882098990462,-7,1,3,7,1,-1,3,10
1501882099011469,-13,0,-3,28,3,0,2,38
1501882099011469,0,-1,-2,-33,-4,-4,-5,-43
1501882099012462,0,-7,-11,16,-3,-4,-2,-1
1501882099012462,-4,-3,6,30,3,-1,-2,-3
1501882099025468,8,3,2,-9,3,2,-2,3
1501882099025468,12,-4,-6,11,0,-1,1,22
1501882099027467,23,0,11,-6,-7,0,2,-15
1501882099027467,-5,4,-2,18,1,1,-2,-1
1501882099048504,16,7,6,-29,-1,2,4,-9
1501882099048504,-20,-14,-32,-2,-8,-5,-7,-37
1501882099050497,18,0,14,30,3,0,13,-26
1501882099050497,1,6,19,-31,-2,-2,-3,-19
1501882099070474,-7,-5,-50,-30,-6,-1,-2,-15
1501882099070474,15,2,27,12,-2,-1,-2,-23
1501882099072467,-2,2,-14,-30,2,-1,-2,3
1501882099072467,-7,2,42,95,0,0,0,-20
1501882099085482,-2,-6,-16,-70,-9,-7,-6,-10
1501882099085482,4,-1,-1,31,2,1,-2,13
1501882099092500,1,0,-2,-28,4,4,-2,32
1501882099092500,3,2,-11,-28,-1,1,-1,17
1501882099108471,-18,-4,7,42,-6,-1,-5,-12
1501882099108471,14,2,-7,7,-1,-2,-1,42
1501882099110469,-52,-12,-6,17,-12,-9,-11,-80
1501882099110469,-5,1,5,-3,7,1,1,40
1501882099130471,18,0,26,18,0,-2,0,39
1501882099130471,-2,-4,-28,-14,-1,1,-4,-12
1501882099132470,24,2,9,41,5,-3,5,31
1501882099132470,10,5,22,-17,3,1,-1,-1
1501882099145471,-24,-7,-37,3,-3,-2,1,-19
1501882099145471,14,3,33,5,1,0,0,9
1501882099152490,11,2,0,-13,1,0,2,24
1501882099152490,-12,-7,-22,27,4,0,-1,-22
1501882099168472,14,6,29,1,1,2,0,-66
1501882099168472,-5,0,-23,-53,-7,0,2,-13
1501882099170474,1,-3,-3,37,-4,-2,-3,6
1501882099170474,3,-2,-20,-49,-3,-1,0,13
1501882099190477,2,0,3,17,3,0,-3,4
1501882099190477,32,-1,2,-27,2,-1,5,32
1501882099192473,-11,4,14,32,-3,-2,-2,-13
1501882099192473,-2,-1,-3,-32,0,0,0,-2
1501882099213475,-5,-4,-14,55,-1,-3,-4,-4
1501882099213475,-7,-1,-7,22,0,-2,-5,20
1501882099215477,5,5,12,-83,-8,2,1,17
1501882099215477,35,-4,-3,6,-4,-5,-1,-44
1501882099228477,-9,2,3,9,6,4,2,4
1501882099228477,-15,-3,23,14,3,-1,1,-5
1501882099230475,8,0,-20,7,1,-1,-6,-3
1501882099230475,-23,-2,6,24,-3,2,1,-5
1501882099250476,-9,-2,1,-22,-4,-5,0,-34
1501882099250476,-11,1,9,24,-2,0,-1,-16
1501882099252476,2,-7,-22,-36,-4,-2,-5,17
1501882099252476,24,1,-8,34,5,0,0,58
1501882099265478,-17,2,15,9,-1,1,7,-13
1501882099265478,-12,-2,-3,1,4,1,0,-11
1501882099272478,18,1,-2,-29,-9,-1,1,5
1501882099272478,-7,-4,14,-17,1,-1,-4,19
1501882099288479,10,-2,-13,-8,-1,-2,-3,5
1501882099288479,1,0,-15,-41,-2,-1,-3,-15
1501882099290486,-17,2,20,72,10,1,-2,-6
1501882099290486,3,-5,-13,-24,-10,-1,-2,-32
1501882099310481,11,-2,15,1,6,0,-2,20
1501882099310481,-7,5,13,21,-5,-2,2,-12
1501882099312490,-2,-9,-1,0,-3,-4,-5,26
1501882099312490,-3,2,3,-29,-3,-2,4,-19
1501882099325483,10,-1,-15,-39,-6,0,-3,16
1501882099325483,-7,-8,-18,13,1,-7,-5,-11
1501882099332482,-2,3,11,3,3,2,1,-3
1501882099332482,-1,0,0,18,-5,-3,-2,16
1501882099348483,8,-5,-10,-5,1,-2,-2,8
1501882099348483,-7,-4,7,-28,-1,1,-2,-26
1501882099351486,1,0,6,26,-2,-2,3,2
1501882099351486,-13,-1,-1,-32,-2,-1,-3,-16
1501882099370483,5,-1,-1,67,3,-2,-3,13
1501882099370483,4,-1,-7,-23,-2,-1,-5,7
1501882099372488,-11,-2,-12,-13,1,0,-1,-17
1501882099372488,34,3,8,-23,2,2,2,39
1501882099385499,-7,5,13,40,6,2,4,-4
1501882099385499,-9,-20,-34,-35,-14,-6,-4,-5
1501882099392484,19,6,9,-26,1,1,-1,-28
1501882099392484,-10,-3,-8,36,-2,-2,-2,-11
1501882099408486,-2,1,5,-2,2,-2,-2,-2
1501882099408486,3,4,2,25,1,0,2,-8
1501882099410490,-6,-3,6,0,-4,-2,1,61
1501882099410490,-4,-4,4,36,6,0,-2,-9
1501882099430488,-2,1,-12,-70,-11,-1,-1,-29
1501882099430488,3,5,4,11,3,1,1,7
1501882099432487,15,-3,4,-33,-1,2,-4,7
1501882099432487,-8,-6,-14,14,-5,-6,-4,-4
1501882099444490,-2,4,10,-22,4,1,0,20
1501882099444490,3,-2,-8,44,-2,-4,-1,-10
1501882099453488,0,2,10,-63,-4,-1,-2,-8
1501882099453488,-11,-7,0,19,-5,0,-1,-3
1501882099468490,3,-2,-5,-5,-2,1,-1,-3
1501882099468490,14,-1,-1,9,2,0,-1,58
1501882099470489,-11,-1,-10,-19,-4,0,2,5
1501882099470489,8,3,6,15,0,-3,-1,-18
1501882099490491,-6,-5,-2,-21,-3,-2,0,6
1501882099490491,-1,3,21,23,0,0,2,89
1501882099492492,-14,-5,-16,16,1,0,-2,-20
1501882099492492,-9,4,8,-19,1,2,0,4
1501882099504506,11,-4,-14,15,1,0,-2,-8
1501882099504506,29,7,23,-3,-4,-3,2,5
1501882099513492,-13,-6,-22,2,5,2,4,-7
1501882099513492,-16,1,4,-18,0,2,0,-22
1501882099528497,2,0,19,40,-1,-4,-3,2
1501882099528497,-3,1,-1,-22,-5,-2,-3,-37
1501882099530495,3,-2,-12,-5,-2,1,0,-3
1501882099530495,-3,4,6,30,7,2,0,-2
1501882099550508,-12,-2,-7,-62,-5,0,1,4
1501882099550508,-15,-2,-3,34,-3,-4,-7,-31
1501882099552495,6,0,-4,-5,-4,-4,-3,-2
1501882099552495,2,0,18,-4,0,-1,0,8
1501882099564495,1,2,10,-4,-3,0,0,-1
1501882099564495,-11,-2,-3,-5,1,0,-3,-24
1501882099573498,4,-1,-8,14,3,1,0,-20
1501882099573498,-2,-2,1,21,-1,0,-2,2
1501882099588516,7,3,3,-9,-2,-2,1,31
1501882099588516,2,-7,-42,-5,3,2,-1,-46
1501882099590496,-19,-6,13,28,2,-4,-2,-5
1501882099590496,-1,4,3,-72,-20,-5,-1,-2
1501882099610543,-4,2,30,32,0,-1,-2,29
1501882099610543,0,-5,-45,-41,-1,1,0,-6
1501882099612498,7,3,19,25,-10,-8,-4,25
1501882099612498,-4,0,-14,19,7,2,-1,-25
1501882099624499,-11,0,7,9,0,0,0,-10
1501882099624499,-4,1,9,-7,-1,2,4,2
1501882099633500,5,-2,-12,-34,-2,-1,-1,7
1501882099633500,-2,-3,-5,42,2,-1,-2,8
1501882099648518,4,0,-7,-19,-1,2,-2,-8
1501882099648518,-4,2,23,4,2,-1,-2,-1
1501882099650500,1,-2,-18,-1,0,2,3,-8
1501882099650500,6,-4,-10,-39,-4,0,-3,6
1501882099670541,-7,-7,-1,57,0,-10,-1,-16
1501882099670541,1,3,13,2,-2,-2,1,-12
1501882099672508,-3,0,-15,-35,0,0,-2,-5
1501882099672508,-2,0,0,17,-3,-2,0,-3
1501882099684545,-11,-5,-7,-6,3,2,-3,10
1501882099684545,5,-2,14,-16,-4,-7,-11,-75
1501882099694508,-4,-4,-18,-19,-9,-2,1,1
1501882099694508,10,3,0,-2,0,0,0,-7
1501882099715539,-10,3,5,-3,-6,-5,-2,-37
1501882099715539,-4,-1,9,30,5,3,2,27
1501882099717504,4,2,16,5,4,2,-2,-3
1501882099717504,-4,-5,-10,27,-2,-2,-1,-19
1501882099730505,3,-1,-5,-17,-1,3,2,-6
1501882099730505,-2,-1,-12,-11,-6,-2,-1,25
1501882099732516,21,4,2,13,2,-1,-1,9
1501882099732516,8,-3,-1,-20,1,-1,1,48
1501882099744506,-3,-3,-1,-1,1,1,2,-25
1501882099744506,1,-1,-5,-12,-2,0,0,13
1501882099753506,0,2,18,-6,0,0,0,-18
1501882099753506,11,1,5,55,4,-1,-4,40
1501882099768507,-16,-9,-49,-1,-3,-1,-4,-32
1501882099768507,2,-5,-1,-34,-5,-2,-1,47
1501882099770506,3,-1,-5,21,3,-2,-1,-39
1501882099770506,-30,-5,1,-63,-7,-5,0,2
1501882099790511,-6,1,6,2,2,-2,-6,-14
1501882099790511,-37,-4,18,82,4,0,-8,-52
1501882099792508,-6,-2,-28,-24,0,-1,1,-32
1501882099792508,-21,-7,-15,-3,-3,-1,0,0
1501882099804550,-16,-1,9,-17,0,1,2,-82
1501882099804550,20,-2,-15,-22,-5,-3,1,30
1501882099813510,21,1,28,38,5,0,-2,46
1501882099813510,-3,1,-9,-5,2,2,1,-32
1501882099828511,4,4,22,-26,-4,-1,3,69
1501882099828511,19,-2,-17,-6,3,-1,-2,24
1501882099830511,27,-5,-23,53,-6,-4,-1,65
1501882099830511,1,4,14,24,-2,-5,-2,-19
1501882099850552,0,-3,-1,29,5,3,-3,3
1501882099850552,-27,7,25,-20,3,6,6,-23
1501882099852518,2,-5,-16,1,0,1,1,21
1501882099852518,12,-4,-21,-15,-6,-7,-11,-56
1501882099873514,7,-1,-7,-5,-1,-2,-4,-1
1501882099873514,1,0,7,6,-1,0,1,-32
1501882099875513,-9,-4,-14,-56,-1,1,0,-6
1501882099875513,-8,7,35,11,0,0,2,11
1501882099888534,8,-5,-33,30,3,-3,-3,-4
1501882099888534,2,2,2,-51,-12,-2,1,15
1501882099890517,-5,1,11,-3,-7,-1,-1,-16
1501882099890517,-32,-3,-5,62,10,-1,-2,21
1501882099910538,-12,-7,-44,-95,-21,-5,-3,20
1501882099910538,-1,1,18,56,4,-2,-1,1
1501882099912524,1,7,43,10,1,-2,-3,-11
1501882099912524,-6,-4,-24,-33,-4,2,3,41
1501882099933521,7,5,18,-1,4,-2,1,29
1501882099933521,-19,-6,-18,-4,-2,-3,-5,-27
1501882099935521,-13,-2,14,-11,-3,2,2,20
1501882099935521,24,-1,-14,-7,3,2,1,1
1501882099948558,14,5,23,16,3,1,1,7
1501882099948558,6,-4,-20,-12,-2,-1,0,41
1501882099950525,-30,-2,-4,-33,-3,-5,-11,-84
1501882099950525,13,6,5,59,1,2,7,68
1501882099970540,-13,-12,-14,5,-5,0,-1,-27
1501882099970540,12,7,32,-27,-3,-3,1,-8
1501882099972519,2,-8,-15,10,-2,-1,-1,13
1501882099972519,1,-3,3,-49,-5,-5,-4,-12
1501882099993521,0,5,3,-8,-2,1,2,10
1501882099993521,-3,-3,-13,64,11,3,1,0
1501882099995520,-10,-3,2,-30,-11,-2,-2,6
1501882099995520,11,3,15,-11,0,0,1,-47
1501882100007520,6,-2,-5,13,0,-2,-2,27
1501882100007520,-10,-2,-20,8,-6,-2,-1,-32
1501882100014542,-4,5,15,14,5,0,1,32
1501882100014542,-7,-3,-7,-24,-5,-1,-3,-19
1501882100030522,12,1,15,39,2,-2,-2,-29
1501882100030522,3,-4,-4,-10,1,1,-5,35
1501882100032523,-8,-2,-22,-11,0,-4,-3,-20
1501882100032523,-5,-5,0,-28,-8,1,3,15
1501882100053564,2,-6,-15,2,2,-1,-3,-45
1501882100053564,-6,-3,14,-27,-3,-2,1,7
1501882100055523,17,3,16,36,1,-1,0,5
1501882100055523,-12,-1,0,-2,5,1,-1,-15
1501882100067529,-21,-1,-12,-36,-8,-3,-1,76
1501882100067529,1,6,5,10,2,-1,1,-12
1501882100074524,1,-6,-11,14,-3,-2,-2,-5
1501882100074524,2,1,13,-17,-2,-3,-3,-18
1501882100090530,6,0,0,18,0,0,1,20
1501882100090530,1,-1,-9,2,-2,-2,-1,-5
1501882100092535,-7,0,-1,-11,0,0,-2,-6
1501882100092535,4,-1,-9,8,1,1,1,9
1501882100113526,0,0,16,0,1,-1,0,2
1501882100113526,-1,-2,-9,-5,-2,-3,0,4
1501882100114527,-1,-2,-3,0,-7,-2,-1,-6
1501882100114527,0,-4,-20,-20,2,-3,-4,-6
1501882100127528,2,-2,6,30,1,0,-1,-5
1501882100127528,-1,-1,3,4,-2,9,4,-10
1501882100134533,-2,-1,-8,-8,-3,-4,-1,3
1501882100134533,4,1,4,14,4,4,-1,7
1501882100150547,-4,-3,-10,-41,-9,-6,-3,-15
1501882100150547,-9,-4,2,42,0,-4,-1,-4
1501882100152553,1,0,2,11,2,2,0,-2
1501882100152553,2,0,1,4,-3,-4,-2,4
1501882100173530,-3,0,-1,-4,5,3,1,-4
1501882100173530,49,3,8,-20,-5,-1,1,44
1501882100175532,-15,4,4,-4,5,3,2,-9
1501882100175532,-2,-6,-29,-3,-2,-3,-1,-8
1501882100187532,-4,-3,12,0,-2,-2,0,-1
1501882100187532,21,-5,-7,41,1,-4,-6,-37
1501882100194541,14,-2,-2,-74,-5,-2,-2,54
1501882100194541,-5,3,21,14,0,1,2,-64
1501882100211555,12,10,2,6,-3,-1,-6,-50
1501882100211555,-8,-9,-20,-24,-1,-1,-1,7
1501882100212533,-16,1,-10,-2,2,0,2,-8
1501882100212533,-10,-2,-1,0,-1,-1,-3,0
1501882100233537,8,-2,2,19,3,-1,0,33
1501882100233537,-8,2,13,-14,0,-1,-2,-12
1501882100234536,3,0,-3,22,2,0,0,-9
1501882100234536,8,-3,-12,-42,-5,-1,-2,24
1501882100247536,0,2,22,44,0,0,1,1
1501882100247536,-13,0,-17,-6,-5,0,0,7
1501882100256536,-3,-8,5,21,0,-1,-2,-8
1501882100256536,-3,1,-6,10,3,-1,-3,5
1501882100271537,6,2,-8,-4,4,2,0,10
1501882100271537,-11,-2,3,-44,-5,-4,0,-8
1501882100277538,-1,-2,-24,0,-2,1,0,-5
1501882100277538,11,3,18,20,0,1,1,0
1501882100293538,-15,-2,-24,-13,-4,-3,-2,15
1501882100293538,-24,7,33,16,2,-1,2,15
1501882100307545,-8,-1,11,30,2,-1,-3,-9
1501882100307545,25,-4,-26,-62,-11,-1,4,63
1501882100308539,-7,-3,-9,43,-2,-3,-3,-8
1501882100308539,-15,-6,-4,-33,-8,-4,-3,-6
1501882100315539,1,4,24,6,1,-1,-1,9
1501882100315539,-13,-2,8,5,3,0,-1,-2
1501882100330539,16,4,6,-12,1,1,3,23
1501882100330539,10,6,-7,11,7,6,2,-9
1501882100332540,-28,-5,-7,-15,-1,-1,-7,16
1501882100332540,3,-9,-15,29,-8,-6,-1,-41
1501882100353555,15,12,39,-21,1,-1,0,-8
1501882100353555,7,-5,-24,-4,-8,-5,-4,5
1501882100354542,-4,-10,-41,-12,-1,-1,1,3
1501882100354542,-20,-1,15,4,3,1,-4,-7
1501882100366542,-5,-3,-5,-19,1,2,2,-2
1501882100366542,14,2,4,13,5,0,1,12
1501882100376543,9,-1,-5,-35,-10,-1,-2,2
1501882100376543,13,4,-9,17,6,1,3,80
1501882100390544,-9,-4,-8,-22,-6,0,2,-12
1501882100390544,-10,2,17,16,1,0,-2,1
1501882100392552,1,-5,-7,12,-4,-6,0,-13
1501882100392552,-4,4,19,1,4,0,1,-8
1501882100413545,-1,-5,-16,3,0,-2,-3,6
1501882100413545,-8,-4,-13,0,-1,-1,-1,-14
1501882100414548,3,6,20,7,5,4,3,-10
1501882100414548,-17,-5,-20,-18,-4,-2,0,-10
1501882100426546,22,7,38,64,11,3,-1,-39
1501882100426546,-12,-4,-52,-50,-3,2,5,71
1501882100436559,30,0,-7,-21,-8,-6,-4,-35
1501882100436559,18,3,9,27,0,-2,-2,13
1501882100450561,3,-14,2,-10,-4,0,4,64
1501882100450561,-9,7,19,13,9,2,-4,-44
1501882100452547,1,2,12,38,4,-1,0,8
1501882100452547,3,-3,-19,-22,-3,1,0,-13
1501882100473551,-1,0,-9,3,4,2,0,13
1501882100473551,6,-5,13,9,-8,-4,-4,-10
1501882100474548,-4,-1,-5,5,-3,-3,1,13
1501882100474548,-4,-1,4,-1,-2,-3,-5,-46
1501882100487550,-9,-4,-18,-29,-3,-1,-1,-11
1501882100487550,-7,-2,6,26,-6,-4,-1,-11
1501882100495551,21,-1,-7,-3,-2,-3,-4,30
1501882100495551,-17,6,25,10,8,6,5,16
1501882100510550,-19,-6,-31,-21,-8,-7,-4,-36
1501882100510550,18,1,-31,-33,-8,-1,-2,-24
1501882100516551,-26,-8,8,11,-2,-5,-4,-30
1501882100516551,-25,1,-2,19,3,2,-1,-22
1501882100533552,1,-1,-6,-5,-3,2,-1,-3
1501882100533552,-2,0,8,-30,2,1,0,-2
1501882100534552,-3,-1,2,31,0,1,-2,-54
1501882100534552,0,-1,-1,-10,0,-1,-3,-4
1501882100546552,6,1,2,-7,-6,-1,-1,-3
1501882100546552,-5,-1,-4,21,4,0,-1,13
1501882100555602,5,3,27,-2,2,4,1,19
1501882100555602,3,-2,3,9,-4,-4,-5,-10
