timestamp,emg1,emg2,emg3,emg4,emg5,emg6,emg7,emg8
1501880675728034,-9,-5,-11,-4,8,0,1,-2
1501880675728034,4,-1,38,-33,-11,-3,-4,2
1501880675729033,-14,-12,3,5,1,-1,-2,1
1501880675729033,4,8,11,76,-1,0,-1,-3
1501880675742036,-35,-1,44,-74,-4,-7,-7,-21
1501880675742036,32,-7,-51,-95,-3,2,3,36
1501880675743042,-72,-8,8,52,-2,-2,2,-33
1501880675743042,86,15,6,0,11,-1,-6,19
1501880675765042,-53,-8,-31,31,-9,-3,-1,27
1501880675765042,-86,2,-14,-105,-2,3,0,-23
1501880675765042,3,-8,-5,50,8,0,10,25
1501880675765042,6,4,-18,24,-6,0,5,-61
1501880675788037,4,-8,-5,23,4,5,4,-12
1501880675788037,22,-1,45,73,-1,-6,-10,25
1501880675789041,-13,-8,-71,-128,-9,1,-3,-28
1501880675789041,14,2,45,108,6,-3,2,32
1501880675802037,-12,9,-4,-23,2,-1,0,-11
1501880675802037,48,-2,2,77,5,8,6,-1
1501880675803037,-18,-14,-15,-44,-24,-9,-11,1
1501880675803037,-20,-4,-14,-34,6,0,0,0
1501880675825039,58,-6,31,20,-5,-3,-6,26
1501880675825039,-41,9,-14,-2,4,2,0,-4
1501880675825039,12,11,-25,1,9,2,4,3
1501880675825039,4,-15,-14,-62,-10,-1,-2,-4
1501880675848061,-31,5,13,56,-1,1,1,9
1501880675848061,1,-7,-4,-9,-7,-7,-6,-29
1501880675849041,49,12,22,-40,2,1,8,7
1501880675849041,6,-9,-38,18,-3,4,-7,-18
1501880675879043,65,7,23,-111,-11,-4,4,-17
1501880675879043,-17,-5,-53,8,-13,-3,3,29
1501880675880043,-52,-13,-7,41,-2,-3,-11,-103
1501880675880043,-34,2,24,16,-16,-7,-2,11
1501880675885051,41,1,6,-44,1,2,3,22
1501880675885051,5,18,21,20,12,4,4,-40
1501880675886041,47,2,30,-31,0,5,0,48
1501880675886041,-34,2,38,98,8,-6,-15,-9
1501880675896043,-21,17,26,11,4,5,1,-6
1501880675896043,-17,-10,-32,-16,-6,-5,-2,7
1501880675900044,-9,-5,-11,-4,8,0,1,-2
1501880675900044,4,-1,38,-33,-11,-3,-4,2
1501880675901046,-14,-12,3,5,1,-1,-2,1
1501880675901046,4,8,11,76,-1,0,-1,-3
1501880675908046,22,-14,-91,-33,-11,4,17,4
1501880675908046,33,-2,39,-3,2,-4,-5,51
1501880675909045,-58,-15,-23,5,-7,-4,-7,8
1501880675909045,-14,16,44,-3,11,1,-4,-57
1501880675922054,5,5,-25,93,12,-2,-5,-29
1501880675922054,96,-23,-20,14,-26,-5,9,15
1501880675923054,-99,7,15,81,12,2,-4,-43
1501880675923054,31,-28,15,1,0,-7,-7,41
1501880675945045,15,-2,-37,23,-11,-4,-7,-5
1501880675945045,-9,6,-26,-71,0,6,7,-10
1501880675946046,120,3,26,99,-5,-4,8,127
1501880675946046,-86,-4,-26,-79,2,2,5,-24
1501880675968047,-81,-6,12,5,0,-4,-11,-76
1501880675968047,-46,0,2,-84,-4,0,-5,-12
1501880675969053,-35,0,17,-13,6,-1,-3,13
1501880675969053,24,-1,-18,-24,-9,-4,0,12
1501880675990062,7,3,20,-10,-6,4,5,3
1501880675990062,13,3,-19,78,24,0,-8,16
1501880675991047,-11,15,17,-40,0,1,8,-43
1501880675991047,55,-29,-73,16,-23,-10,-7,55
1501880676005050,-66,15,89,-87,-13,-8,-12,-96
1501880676005050,-48,1,-21,20,-10,-3,-5,6
1501880676005050,0,1,16,-9,3,-2,-1,0
1501880676005050,-17,12,-13,29,15,6,12,-41
1501880676028053,28,-8,35,105,4,0,-1,16
1501880676028053,0,-6,-35,-85,-9,-4,-13,-20
1501880676029051,49,7,20,42,7,6,10,-1
1501880676029051,10,20,5,-50,5,-1,5,11
1501880676043053,7,-25,-55,-24,3,-3,-2,40
1501880676043053,-18,0,48,119,11,1,-2,-36
1501880676043053,-47,-17,-52,-95,-5,0,-13,-43
1501880676043053,0,2,13,-43,-7,2,1,-1
1501880676065053,8,3,-30,32,8,-1,1,7
1501880676065053,-53,-1,7,21,13,0,-1,14
1501880676065053,18,-11,18,-60,-14,-7,-8,-11
1501880676065053,-63,11,32,17,-8,3,3,-32
1501880676088053,11,-7,-47,-22,-11,-9,-7,12
1501880676088053,1,1,23,77,5,6,5,-13
1501880676089058,36,-11,-10,-61,-10,-4,-1,64
1501880676089058,-26,2,-31,48,5,-2,-2,-28
1501880676102067,-19,-1,38,75,0,-1,-1,16
1501880676102067,6,-6,-19,-25,-1,6,9,28
1501880676110055,34,-5,-70,30,-9,-8,-8,7
1501880676110055,11,-2,26,-106,6,2,1,9
1501880676125056,70,0,-27,43,10,-2,-4,39
1501880676125056,-9,1,33,-35,-1,2,6,75
1501880676125056,-98,-7,52,46,-3,-7,-8,46
1501880676125056,56,4,-22,-26,2,1,3,36
1501880676148057,-4,0,-35,7,7,4,0,13
1501880676148057,35,-2,13,-43,-27,-8,-8,-6
1501880676149060,23,5,-5,20,1,-2,-2,28
1501880676149060,11,-9,-14,78,6,0,7,40
1501880676161059,-34,13,17,-52,1,1,2,-36
1501880676161059,4,-23,-8,-3,-2,-4,-2,-22
1501880676170064,-18,6,-10,-91,-17,-1,-4,-18
1501880676170064,30,5,1,52,7,-3,-6,3
1501880676185061,17,-4,-5,55,-7,4,5,0
1501880676185061,-18,-2,0,-127,-18,-9,-3,28
1501880676185061,-47,-6,-2,113,16,1,1,-29
1501880676185061,27,-11,-3,-45,-12,-6,-8,-36
1501880676208061,-78,12,47,-90,-11,-2,-2,-14
1501880676208061,14,8,-15,-73,11,0,-3,-14
1501880676209062,37,-10,28,49,-12,-6,-3,49
1501880676209062,17,17,20,31,7,3,4,42
1501880676221075,44,-2,17,34,8,7,3,-67
1501880676221075,-51,3,1,-17,-4,-9,-10,-10
1501880676230062,38,9,-27,-127,0,8,8,-2
1501880676230062,-34,-16,-3,90,-11,-10,-7,-48
1501880676245063,0,10,34,-56,-5,-1,-4,18
1501880676245063,74,-2,-28,48,3,1,5,-11
1501880676245063,12,13,9,63,23,9,10,11
1501880676245063,-10,1,58,-26,-11,-2,-6,29
1501880676268066,4,-3,20,-56,-2,-4,-4,26
1501880676268066,14,1,6,31,3,-2,-4,-36
1501880676269066,-47,-8,-20,49,-11,-6,-6,-42
1501880676269066,0,0,-15,25,3,3,3,6
1501880676281065,-2,-1,21,44,7,-1,0,13
1501880676281065,-2,0,7,48,8,2,-1,-9
1501880676290081,36,-4,-5,-52,-15,-3,-7,-1
1501880676290081,-58,3,4,70,21,4,-6,-68
1501880676305067,5,-10,-8,-87,-24,-6,0,0
1501880676305067,-10,11,-7,99,4,4,4,3
1501880676305067,-36,1,-5,-8,-3,-3,-4,-74
1501880676305067,33,-7,14,-28,6,-2,0,21
1501880676328082,-1,2,-103,-47,-6,-1,0,38
1501880676328082,29,-6,32,44,2,-1,6,-8
1501880676329069,-41,10,-18,-42,-5,0,-8,-2
1501880676329069,0,1,29,45,-16,-7,-3,33
1501880676341069,8,1,36,0,6,1,0,3
1501880676341069,-4,-11,-29,-56,-2,0,7,54
1501880676350077,27,5,10,-8,12,6,-1,-50
1501880676350077,-27,2,-40,27,0,3,5,34
1501880676365071,28,0,46,-32,0,3,3,2
1501880676365071,-42,-19,-57,61,-7,-7,-6,-58
1501880676365071,17,6,28,-2,7,1,4,26
1501880676365071,11,-8,-19,-101,-21,-4,-3,-2
1501880676388087,42,-9,-23,16,-2,-3,-5,17
1501880676388087,21,11,7,-43,14,4,-1,-20
1501880676389071,-3,-12,24,91,-2,-1,0,6
1501880676389071,24,5,-5,-61,-4,0,4,1
1501880676410072,2,4,7,-9,11,1,7,-22
1501880676410072,-27,4,41,9,-6,-2,-10,-5
1501880676411073,16,-13,-24,4,-5,-6,-1,28
1501880676411073,-4,3,-53,-128,-15,-2,-4,-33
1501880676425072,-14,-6,17,55,8,0,-1,9
1501880676425072,-2,13,28,38,12,2,2,53
1501880676425072,15,-8,12,26,7,3,1,-5
1501880676425072,-77,1,34,39,-4,-3,-4,-80
1501880676455076,2,-1,-49,-7,-11,-4,0,6
1501880676455076,1,0,3,15,-5,0,4,3
1501880676456076,37,9,49,43,8,-4,-5,-11
1501880676456076,22,-6,16,-47,5,3,4,25
1501880676470077,-14,4,-14,24,12,4,-1,-17
1501880676470077,-27,-7,13,-13,-14,-7,-9,-77
1501880676471076,-6,-3,-46,-70,2,3,5,-2
1501880676471076,32,-2,6,34,9,-1,-1,31
1501880676485078,-38,0,9,-71,0,5,2,7
1501880676485078,-4,-7,1,17,-5,-7,-10,-16
1501880676485078,-55,1,-21,-35,3,1,0,-66
1501880676485078,-14,-10,-34,50,0,-1,-2,4
1501880676508079,-13,7,-10,104,9,-1,-1,26
1501880676508079,10,9,41,-85,-20,-3,-1,6
1501880676509079,16,5,2,3,4,1,3,69
1501880676509079,1,2,-18,-4,2,0,-2,-35
1501880676530080,21,-7,22,15,-8,-6,-2,-35
1501880676530080,-31,-18,-73,68,6,1,0,27
1501880676531079,-12,2,2,-48,-17,-4,-4,-48
1501880676531079,7,-4,4,27,7,-2,-5,17
1501880676545081,-6,0,-8,-64,-9,-5,-5,-11
1501880676545081,-10,4,16,34,9,3,5,-14
1501880676546080,-17,-8,-53,-55,-12,1,1,7
1501880676546080,-1,-6,8,-7,-6,-3,-9,-27
1501880676568082,-5,6,1,56,9,-1,6,3
1501880676568082,12,-1,65,21,4,-1,0,21
1501880676569083,-10,-6,-23,21,-5,-7,-5,8
1501880676569083,-16,6,16,-36,0,4,5,-26
1501880676590083,1,-12,-11,127,-5,-6,-12,-15
1501880676590083,4,19,51,-69,-10,0,0,-34
1501880676591083,-7,-7,-24,20,7,0,3,-31
1501880676591083,-4,14,35,19,-5,1,3,50
1501880676605083,25,-11,-40,-46,-1,0,-4,-6
1501880676605083,-9,0,-14,51,3,1,0,19
1501880676605083,20,2,43,53,-7,-4,-3,20
1501880676605083,10,4,-14,-46,-3,0,-1,-13
1501880676628086,-58,5,43,77,8,2,5,65
1501880676628086,-2,-17,-108,-128,-15,-2,-2,-18
1501880676629085,17,3,25,60,-3,-1,-2,1
1501880676629085,27,-5,-11,30,13,3,4,39
1501880676650092,18,5,13,29,1,0,0,28
1501880676650092,-2,1,-31,-20,7,-1,-2,9
1501880676651087,8,-3,-9,40,-1,1,3,-33
1501880676651087,12,7,-2,-32,-1,0,-1,6
1501880676665090,-24,-10,-28,-85,-28,-7,-4,10
1501880676665090,9,11,45,-2,6,2,3,33
1501880676665090,-2,3,-22,46,2,0,-4,-16
1501880676665090,10,-3,-14,52,5,0,1,-7
1501880676688089,26,-11,-35,15,-5,-2,0,8
1501880676688089,74,16,-15,48,4,-5,-3,-37
1501880676689090,-52,7,52,11,11,6,4,-14
1501880676689090,-37,-21,-43,-46,-16,-8,-6,-16
1501880676710090,39,7,18,-69,-3,-4,-2,4
1501880676710090,-27,-10,18,-13,-6,-3,-5,-19
1501880676711090,25,7,8,41,9,1,-2,6
1501880676711090,6,-6,-3,-100,-9,-3,0,10
1501880676725093,-17,6,53,100,5,-3,-6,-62
1501880676725093,-4,-6,-11,-3,1,-1,0,10
1501880676725093,3,-6,-4,-1,3,1,2,37
1501880676725093,-8,3,15,-42,-8,1,1,-2
1501880676748110,6,-4,-63,-9,1,0,-1,2
1501880676748110,-33,-11,24,-33,-1,-4,-5,-17
1501880676749093,-2,-7,-32,2,-5,-5,-1,-3
1501880676749093,-27,6,14,-2,-5,-3,1,-17
1501880676770095,-18,7,34,5,0,-4,-8,-27
1501880676770095,7,6,-54,32,6,2,3,-6
1501880676771095,9,-10,-18,-20,-2,-2,-1,15
1501880676771095,-15,6,29,-28,1,0,2,22
1501880676785095,-29,-4,26,36,12,9,9,-2
1501880676785095,9,-16,-29,-14,-22,-8,-8,4
1501880676785095,-1,12,-28,-39,4,3,-1,6
1501880676785095,24,-2,38,1,-3,-2,-2,54
1501880676808097,1,-5,-16,108,20,2,0,-7
1501880676808097,5,6,61,-43,-4,2,4,15
1501880676809095,8,-2,-40,-31,-5,-2,1,2
1501880676809095,8,-3,-12,42,7,1,0,-6
1501880676830098,7,1,-10,-70,2,0,1,0
1501880676830098,-26,-4,-31,-31,-5,-1,-2,-11
1501880676831098,-17,-4,41,70,-5,-12,-12,-15
1501880676831098,-13,0,9,48,4,2,0,5
1501880676845099,13,10,32,-44,0,-2,-6,23
1501880676845099,-21,-15,-27,-47,-7,-3,-1,4
1501880676845099,2,4,23,-39,-4,1,3,7
1501880676845099,18,-15,-49,5,0,-3,-2,-50
1501880676868102,8,4,52,49,7,2,4,2
1501880676868102,-8,8,-3,-55,-15,-3,-4,4
1501880676869103,-4,-6,13,5,-20,-8,-6,15
1501880676869103,8,10,5,40,5,1,1,0
1501880676890115,6,2,3,-49,-1,0,2,10
1501880676890115,30,-10,-40,81,8,3,2,5
1501880676891101,24,-2,7,-18,-3,-1,0,20
1501880676891101,-5,8,17,19,-1,-3,-3,-16
1501880676905100,7,-8,-11,-24,-9,-2,-2,2
1501880676905100,13,14,20,0,15,5,5,16
1501880676905100,-10,-12,-8,34,-1,-1,-4,-10
1501880676905100,10,-1,27,-24,-6,-4,-2,5
1501880676928118,-21,3,-21,94,8,3,1,-24
1501880676928118,8,-3,-3,-84,-10,-3,-1,-3
1501880676929105,-1,-3,-2,106,9,-3,-5,17
1501880676929105,-12,-11,-32,-96,-28,-8,-7,-38
1501880676950104,-6,-24,-24,-36,-14,-8,-5,13
1501880676950104,10,15,37,45,12,5,4,3
1501880676951104,22,5,11,-48,-1,2,3,-8
1501880676951104,-11,-4,-6,-3,5,5,5,27
1501880676965105,-7,-3,4,12,-7,-5,-5,-48
1501880676965105,-5,-1,-7,85,6,0,-1,-5
1501880676965105,21,8,10,-21,12,2,1,0
1501880676965105,-21,-4,12,-36,-3,-5,-7,-58
1501880676988121,12,3,29,8,-8,-2,-3,8
1501880676988121,-2,7,67,50,7,4,2,4
1501880676989106,-23,-27,-74,-53,-8,-1,-1,-40
1501880676989106,18,-1,19,91,1,-4,0,7
1501880677010108,-36,-3,-38,-64,-3,-5,-3,-18
1501880677010108,-31,-14,-57,34,-7,-8,-7,-10
1501880677011107,10,13,54,-12,9,3,3,27
1501880677011107,19,2,-20,-74,0,3,0,8
1501880677024122,9,-9,-14,-4,-15,-4,-4,8
1501880677024122,12,10,18,-25,2,3,4,18
1501880677033110,-5,1,39,-25,-9,-3,-1,-8
1501880677033110,-5,-8,-49,36,10,2,2,15
1501880677048110,3,8,-2,3,5,1,2,6
1501880677048110,-1,-13,-14,-49,-9,-5,-4,0
1501880677049110,-6,5,5,6,-6,0,1,-11
1501880677049110,8,4,23,50,13,-1,-1,18
1501880677071116,16,15,-8,-15,8,7,5,17
1501880677071116,-8,-29,-87,-16,-13,-7,-8,-8
1501880677076125,3,14,-8,-41,4,1,2,6
1501880677076125,-23,-7,15,-17,-9,-4,-3,12
1501880677084114,-3,4,25,-21,0,-3,-5,-42
1501880677084114,-5,-11,-21,-25,-4,-1,-1,-7
1501880677093113,2,3,53,15,0,-3,-3,5
1501880677093113,-5,11,-36,13,9,8,5,-13
1501880677108114,1,-16,-18,-42,-12,-8,-5,29
1501880677108114,0,18,9,-8,2,-2,1,-4
1501880677109117,9,-4,-6,53,-2,-2,0,-8
1501880677109117,11,1,9,51,5,1,2,-11
1501880677130116,-26,-1,14,14,-11,1,-1,-2
1501880677130116,-14,5,4,4,2,2,3,10
1501880677132116,13,-6,-8,-42,-4,1,-1,4
1501880677132116,-17,2,-7,38,4,0,0,-2
1501880677144115,18,-9,-11,-9,1,-1,-2,1
1501880677144115,-35,-14,9,5,-4,-2,-1,12
1501880677153136,10,10,-37,1,0,0,1,-36
1501880677153136,2,-12,-45,60,-9,-8,-6,14
1501880677168117,-15,-1,-14,-81,-3,-2,0,0
1501880677168117,17,19,32,24,4,0,1,0
1501880677169125,-24,-16,-8,-7,-4,-1,-2,2
1501880677169125,23,5,24,-15,3,3,2,13
1501880677190132,-24,-8,-10,56,2,-1,-2,24
1501880677190132,6,-8,9,-18,-14,-2,-4,-12
1501880677192120,-10,6,-9,-104,-3,0,2,15
1501880677192120,-3,-7,26,26,-4,-2,-4,-3
1501880677204123,13,13,20,39,9,6,6,13
1501880677204123,6,-2,24,36,-8,-2,-5,-13
1501880677213122,10,-2,-3,18,3,-3,-2,-2
1501880677213122,15,1,-4,-33,5,1,-1,7
1501880677228134,-1,-5,7,53,7,-2,-2,-20
1501880677228134,22,6,-16,2,4,4,3,20
1501880677229119,-11,-5,-6,-34,-5,-3,-3,-7
1501880677229119,42,8,55,-29,-2,0,2,26
1501880677251122,-27,-2,-52,39,8,5,4,-12
1501880677251122,-7,-8,3,-70,-5,-6,-6,-12
1501880677252130,3,-3,-10,16,2,-1,-1,24
1501880677252130,-47,8,31,22,4,3,3,-20
1501880677264123,7,-6,-6,-18,-1,-4,-5,-18
1501880677264123,20,4,27,21,10,5,5,49
1501880677273131,-17,-2,-25,-3,-3,-1,-1,1
1501880677273131,-19,-4,16,-12,-2,2,0,-58
1501880677288126,43,8,20,-110,-14,-3,1,14
1501880677288126,18,-1,16,85,12,-2,-1,-10
1501880677289125,-34,-9,-28,-7,4,4,-1,-1
1501880677289125,40,3,-42,-76,-13,-4,-3,13
1501880677309126,-23,-1,68,89,3,-5,-3,-10
1501880677309126,0,12,15,-8,-3,3,4,-20
1501880677318128,-17,-1,30,12,-3,-2,-2,7
1501880677318128,-8,-12,3,-16,8,2,4,-16
1501880677333129,12,4,-39,-55,-9,-2,-2,10
1501880677333129,-32,-20,-64,43,-2,-4,-1,-5
1501880677334127,-8,2,-9,19,0,3,2,-67
1501880677334127,-8,6,-18,58,9,1,1,20
1501880677348130,1,-8,-2,44,-3,-4,-3,-2
1501880677348130,3,8,30,-47,5,2,1,14
1501880677349128,27,-4,-22,-45,-12,0,2,45
1501880677349128,31,0,-10,38,4,0,-1,-6
1501880677371131,14,-2,23,-73,-8,-4,-5,10
1501880677371131,-28,-3,-6,22,4,1,-3,-43
1501880677373129,49,9,12,-20,7,3,4,31
1501880677373129,9,-3,5,44,1,-4,-5,-14
1501880677393144,-30,-9,-39,20,-3,2,0,8
1501880677393144,-5,0,-15,13,-3,-3,-2,60
1501880677395130,2,1,10,50,2,-2,-3,-17
1501880677395130,-7,-5,-13,-42,-9,-1,2,42
1501880677408131,-3,-14,-71,12,3,5,4,-20
1501880677408131,-13,5,10,-1,3,-1,3,12
1501880677409131,8,6,15,16,1,-2,-5,-32
1501880677409131,9,8,22,-34,7,3,1,23
1501880677429131,-25,-4,-44,88,-14,-5,-1,12
1501880677429131,-12,-8,35,16,12,0,-3,-48
1501880677439133,9,-14,-91,-77,-8,-7,-4,42
1501880677439133,2,-1,38,6,-15,-7,-5,-13
1501880677453134,13,12,6,-59,8,6,4,-4
1501880677453134,22,-3,24,1,-17,-7,-5,-21
1501880677454133,-15,-2,30,81,5,-1,-1,-20
1501880677454133,-24,-3,-33,-21,0,-3,0,0
1501880677468135,-21,9,37,-92,3,3,3,-5
1501880677468135,17,2,-24,77,-2,-2,0,2
1501880677469135,24,-3,36,51,-1,0,0,12
1501880677469135,-25,-13,-23,-91,-18,-7,-7,-2
1501880677490150,9,-1,8,15,4,-1,-3,-58
1501880677490150,-25,6,46,-16,-5,-1,-5,-26
1501880677492137,-31,-2,-39,23,6,3,2,-6
1501880677492137,3,-2,-4,-12,0,4,1,-20
1501880677513145,-12,2,10,59,6,-2,-1,1
1501880677513145,39,-5,13,-41,-1,0,3,44
1501880677514139,-7,-14,2,-84,-14,-8,-9,-48
1501880677514139,-17,10,-3,26,5,1,1,4
1501880677527140,0,1,60,86,0,-6,-4,13
1501880677527140,7,0,-19,-56,-10,2,2,8
1501880677534146,-11,5,9,29,8,2,1,24
1501880677534146,-10,-9,-35,-80,-5,-5,-5,-35
1501880677550143,16,3,11,9,-2,-2,0,0
1501880677550143,-11,5,-29,39,0,0,-1,-10
1501880677552158,10,0,-4,-13,-2,-4,-3,-21
1501880677552158,-2,-7,10,-15,0,1,0,-4
1501880677573154,16,6,14,-31,-3,1,-1,12
1501880677573154,-15,-1,17,93,7,-3,-6,-4
1501880677574140,-7,0,9,-47,-5,1,1,17
1501880677574140,0,5,20,33,4,0,0,10
1501880677587141,-1,-7,-45,-49,1,-2,-1,7
1501880677587141,4,2,5,14,7,3,2,-8
1501880677594142,-18,-10,-49,25,2,-6,-5,-9
1501880677594142,-2,-4,-4,38,-9,-2,-1,4
1501880677610145,45,-5,9,-32,-6,-3,-6,1
1501880677610145,1,8,-9,24,2,-1,0,3
1501880677612144,-4,4,24,66,-2,1,-1,-28
1501880677612144,-11,-3,-5,-21,3,3,2,-3
1501880677633145,-42,-9,-38,-10,-15,-6,-5,-1
1501880677633145,1,7,34,-28,0,2,1,3
1501880677634145,-12,-7,3,-20,-3,0,1,5
1501880677634145,38,1,-31,4,-1,-4,-1,23
1501880677655146,13,3,-8,36,5,2,2,-14
1501880677655146,-1,-4,-14,-128,-14,-5,-3,-5
1501880677657147,-5,4,33,1,2,1,2,9
1501880677657147,-35,2,14,56,9,2,2,1
1501880677670147,10,-7,-12,-67,-12,-3,-2,28
1501880677670147,-8,-7,-18,22,7,-3,-2,-8
1501880677672146,-33,9,9,11,-10,-1,0,-12
1501880677672146,9,-5,-7,-26,-5,-4,-4,5
1501880677693149,16,13,30,-24,10,7,8,27
1501880677693149,12,-11,-11,29,-10,-4,-3,10
1501880677694147,1,-9,-27,-3,0,-3,-4,9
1501880677694147,-3,-1,0,74,3,-1,-2,-23
1501880677707148,-25,8,13,-88,-2,0,3,8
1501880677707148,33,-9,-29,0,-4,1,0,8
1501880677714151,30,-4,6,38,1,-5,-5,5
1501880677714151,-15,2,9,35,0,2,2,25
1501880677730149,34,6,-26,21,7,1,-2,-46
1501880677730149,-19,-6,22,-62,-15,-6,-6,-29
1501880677732149,35,2,-39,-21,-4,-4,-2,7
1501880677732149,-12,-6,10,7,3,0,0,-13
1501880677753170,-33,0,10,41,6,2,2,-11
1501880677753170,4,-4,-6,-41,-3,-3,-2,24
1501880677754151,-33,-3,-7,-16,-9,-1,0,-15
1501880677754151,37,13,17,20,4,-1,-1,7
1501880677767153,-9,-20,-21,-39,-3,-2,-1,-4
1501880677767153,-4,2,-22,7,3,0,0,7
1501880677774167,5,5,33,25,6,3,2,15
1501880677774167,-15,-6,13,17,-4,-4,-6,-1
1501880677790168,-11,-7,-7,-24,-16,-5,-2,3
1501880677790168,-30,-5,-20,33,10,2,0,-30
1501880677792156,-23,6,23,-64,0,0,-2,1
1501880677792156,1,12,-57,-27,-2,3,0,-5
1501880677813165,11,-7,29,76,4,-2,-3,11
1501880677813165,-39,-6,-35,-98,-12,1,0,-21
1501880677814155,-4,-5,14,94,-6,-4,-1,-16
1501880677814155,-11,2,50,-24,-2,-3,1,14
1501880677826169,20,0,-27,17,-2,-3,-2,7
1501880677826169,31,16,26,-47,4,1,1,5
1501880677836166,17,-7,-14,39,7,0,-2,5
1501880677836166,-7,2,70,-12,-7,-1,-1,-3
1501880677850158,-10,-10,-32,-17,0,0,0,2
1501880677850158,-8,-8,0,22,-8,-5,-5,-6
1501880677852159,17,1,-16,-11,-1,2,1,-2
1501880677852159,-5,-9,-12,24,0,-2,-2,-3
1501880677873172,-23,6,22,10,4,0,0,-9
1501880677873172,30,4,0,8,6,1,1,17
1501880677874158,-19,-5,28,-34,-2,0,-3,-6
1501880677874158,54,-5,-46,-12,3,0,-2,7
1501880677886162,-14,0,-26,4,-14,-6,-1,-26
1501880677886162,12,4,27,39,12,4,2,-7
1501880677895159,-8,-7,-75,-13,-16,-6,-1,11
1501880677895159,27,-14,2,-91,-16,-5,-7,-18
1501880677910162,-8,14,26,45,5,1,1,0
1501880677910162,-23,-15,-32,-36,0,-1,-4,7
1501880677912163,8,11,32,17,6,1,2,6
1501880677912163,-20,-11,-7,54,0,-5,-4,-2
1501880677933161,9,-3,11,-24,-6,-3,-1,10
1501880677933161,13,4,7,29,7,4,4,2
1501880677935173,31,8,36,11,12,2,2,22
1501880677935173,-26,-5,-26,-51,-23,-5,-4,-5
1501880677947163,10,7,18,50,8,1,0,5
1501880677947163,8,-2,34,35,0,-4,-4,-3
1501880677955163,3,3,7,-22,0,0,0,0
1501880677955163,-8,-7,-23,32,3,-1,-1,-4
1501880677970166,-19,-5,-27,-52,0,2,-1,2
1501880677970166,20,-5,-26,43,-10,-6,-4,-6
1501880677972168,35,6,8,12,7,3,4,31
1501880677972168,0,10,-17,44,13,6,7,17
1501880677993171,-16,3,30,-25,-8,-1,-2,-18
1501880677993171,-8,-6,-32,-77,-16,-5,-3,8
1501880677994167,-19,12,65,3,0,-1,-1,-26
1501880677994167,-8,-23,-58,-45,-2,-1,-2,19
1501880678006166,42,12,16,45,-1,-3,-1,17
1501880678006166,-19,-6,-28,8,2,-2,1,0
1501880678015166,3,0,13,-2,-1,1,-1,-4
1501880678015166,-6,8,16,-20,2,3,1,-1
1501880678030187,-16,-14,-36,36,1,-2,-4,-6
1501880678030187,-10,-1,14,31,7,0,1,1
1501880678032167,-8,-1,-25,-48,-15,-5,-5,-13
1501880678032167,-42,-3,25,34,-7,-3,-5,-30
1501880678053170,9,-12,-1,-5,8,0,2,8
1501880678053170,1,5,-11,2,-4,0,1,8
1501880678054169,-22,-12,-13,-38,5,0,-1,-13
1501880678054169,2,21,39,87,9,2,1,2
1501880678066170,-15,-11,-31,-90,-28,-9,-9,1
1501880678066170,-34,7,31,4,3,2,0,-12
1501880678075213,11,-13,-36,-8,3,-1,-1,4
1501880678075213,-30,3,56,-45,-6,-1,1,-5
1501880678090236,44,1,-10,127,9,1,0,-22
1501880678090236,-10,-7,-56,-57,-9,-4,-1,-5
1501880678092194,-31,-6,-17,-26,-1,-1,0,24
1501880678092194,4,0,26,-32,-6,-6,-4,-30
1501880678113172,4,-5,-28,-8,4,5,4,-1
1501880678113172,0,3,13,27,6,-1,-2,-1
1501880678114172,12,-4,5,23,-7,-3,1,1
1501880678114172,44,-11,-50,-58,5,0,-1,25
1501880678126233,-51,-1,43,-61,-7,-3,-1,-9
1501880678126233,0,3,12,31,-2,2,-1,16
1501880678135180,35,-7,-57,18,-1,0,-2,-21
1501880678135180,-26,-7,-21,25,5,1,1,-2
1501880678150174,-9,-3,9,-10,8,1,1,16
1501880678150174,9,9,16,-25,-8,0,-1,-5
1501880678152181,-14,-1,19,-10,1,-1,0,5
1501880678152181,36,-1,-22,0,3,0,-2,-5
1501880678173211,-6,2,20,40,1,0,1,1
1501880678173211,-27,-9,-10,29,-7,-4,-3,-8
1501880678174178,16,7,-1,-25,2,0,-2,2
1501880678174178,-8,0,2,-17,-17,-5,-3,-7
1501880678186196,4,7,18,-12,6,4,2,7
1501880678186196,20,-16,-6,-24,1,-3,-3,1
1501880678195177,-5,5,-24,-9,-11,-3,-3,-2
1501880678195177,-25,-2,19,-23,3,0,1,7
1501880678210178,-5,2,-12,56,6,1,-1,0
1501880678210178,13,-6,-7,-22,-9,3,3,-9
1501880678212178,-19,10,40,22,8,2,0,-6
1501880678212178,24,-8,-36,-6,-5,-3,1,33
1501880678233180,-29,7,7,-17,-1,-3,-2,-24
1501880678233180,-3,-4,20,97,10,1,-1,-6
1501880678234179,-2,7,33,-43,-9,-5,-3,-3
1501880678234179,-25,10,-30,-22,-5,1,-4,-9
1501880678247181,24,0,32,-71,1,-1,0,13
1501880678247181,29,3,26,72,4,1,1,3
1501880678255187,1,-17,-27,28,-1,-1,-2,4
1501880678255187,-10,2,4,-12,-1,0,0,-6
1501880678270181,8,0,7,-6,-7,-6,-3,23
1501880678270181,-36,0,-40,-60,1,1,0,-13
1501880678272182,48,15,37,4,0,3,5,13
1501880678272182,-65,2,1,33,8,0,-2,-25
1501880678293183,14,-7,0,86,14,4,1,4
1501880678293183,-6,-4,-32,3,-22,-3,0,12
1501880678294185,-25,-9,-34,2,1,-1,-1,-10
1501880678294185,30,5,-17,-6,8,4,3,-2
1501880678315199,-4,-3,46,76,-9,-7,-5,-2
1501880678315199,27,9,13,-12,2,-2,-3,2
1501880678317191,-45,-16,-11,-1,-3,-1,-3,-9
1501880678317191,37,2,9,0,0,-2,1,11
1501880678331195,-24,3,-24,-45,-4,-3,-5,-17
1501880678331195,-29,3,6,-9,-4,-1,-1,-22
1501880678332188,16,4,17,-3,2,-1,-2,-4
1501880678332188,15,-2,36,60,9,2,2,25
1501880678353193,2,-6,-40,-37,-8,3,-1,0
1501880678353193,-25,3,66,-52,5,3,0,15
1501880678354186,38,-3,-73,47,2,-1,-2,-8
1501880678354186,-27,-3,-14,43,4,1,0,-5
1501880678375203,23,-3,-36,-82,-17,-6,-5,-27
1501880678375203,-8,-12,9,5,2,-4,-5,0
1501880678377190,-6,1,6,-22,-5,-2,-1,1
1501880678377190,24,-2,-17,-12,-2,-1,0,-4
1501880678390202,16,2,3,18,0,0,1,18
1501880678390202,17,5,-9,-13,7,4,2,-41
1501880678392191,-50,-10,35,39,0,0,-1,6
1501880678392191,-38,-2,-32,-22,-10,-6,-4,-13
1501880678413189,-9,1,-26,11,5,1,0,5
1501880678413189,-3,0,47,-9,1,-1,1,-2
1501880678414191,12,-7,-25,2,1,-4,-3,14
1501880678414191,6,2,3,-18,-4,-1,-2,-6
1501880678435193,10,5,49,40,8,5,4,3
1501880678435193,24,-1,-39,12,-15,-6,-4,6
1501880678438192,-28,7,31,-20,-1,1,0,-10
1501880678438192,-6,-5,-37,41,0,1,1,12
1501880678450194,12,-2,2,23,4,-1,0,15
1501880678450194,14,-2,-10,-20,5,0,-1,-2
1501880678452193,-14,1,12,-19,-7,-3,-3,-4
1501880678452193,-20,3,62,10,1,-2,0,-6
1501880678473209,22,1,-47,-10,3,4,3,6
1501880678473209,4,-5,-29,34,-3,-5,-2,-12
1501880678474196,-37,-11,-12,-48,-5,-2,-2,-3
1501880678474196,23,-5,16,-2,4,1,1,-6
1501880678495198,-13,-9,-36,12,-8,-6,-5,-14
1501880678495198,-20,3,32,10,-2,-2,-2,12
1501880678497194,17,9,15,35,5,-1,1,-1
1501880678497194,27,4,15,4,-5,-4,-1,3
1501880678509196,24,-9,14,-27,-7,-5,-3,18
1501880678509196,-36,14,-15,4,6,4,6,18
1501880678516196,-23,-13,-3,-2,-6,-3,-5,-20
1501880678516196,9,-2,-1,51,1,-1,0,-4
1501880678533198,-14,1,-10,-32,2,0,-1,-5
1501880678533198,30,-1,6,34,-4,-2,-3,13
1501880678534196,1,10,1,14,13,6,5,-1
1501880678534196,13,-1,16,-30,-15,-6,-7,-5
1501880678555201,-32,-4,-5,-32,1,-1,-1,-15
1501880678555201,-2,-2,21,37,4,5,1,9
1501880678557201,37,-8,-18,-89,-12,-3,-2,3
1501880678557201,25,-8,-51,-20,-1,0,-1,8
1501880678570200,-6,6,43,13,1,0,0,-5
1501880678570200,-12,0,-22,-13,2,-3,-2,-4
1501880678576215,14,4,9,5,3,2,3,3
1501880678576215,23,-3,-5,60,9,1,1,1
1501880678593201,-3,-13,5,-44,-22,-10,-8,1
1501880678593201,3,0,29,18,4,-2,-1,-4
1501880678594201,-6,-3,-9,-17,-8,-1,0,7
1501880678594201,2,0,-1,-32,-2,0,-1,-13
1501880678615203,-39,-2,-27,-21,0,2,2,-6
1501880678615203,-10,-10,8,46,2,-1,-3,-21
1501880678617202,7,8,6,-25,-1,-2,-1,14
1501880678617202,-29,-1,10,-23,-5,-3,-3,-12
1501880678630204,20,3,26,42,4,0,1,6
1501880678630204,21,1,-17,9,0,-2,-4,3
1501880678636203,-22,-5,-25,-23,2,0,-1,-1
1501880678636203,2,-2,55,26,-1,-2,-2,3
1501880678653236,12,5,-19,19,11,2,0,-7
1501880678653236,-12,-5,8,-80,-18,-6,-4,10
1501880678654203,-16,9,-17,45,6,-1,0,-7
1501880678654203,-13,-4,29,-79,-9,0,-1,-4
1501880678675206,-24,-9,-32,57,3,1,0,4
1501880678675206,1,-3,-12,13,11,2,1,0
1501880678677215,17,1,-1,-39,-9,-4,-2,2
1501880678677215,-7,1,19,-4,-5,1,1,-5
1501880678689206,7,-1,-46,-33,3,1,2,6
1501880678689206,3,-8,4,63,-1,-2,-3,-3
1501880678696207,-27,2,24,-28,6,2,2,2
1501880678696207,12,0,-11,-23,-6,-2,-4,9
1501880678713209,20,4,29,-7,-8,-3,0,18
1501880678713209,-33,-1,-17,5,-4,-3,-2,-9
1501880678714207,11,-1,-27,52,7,1,-1,0
1501880678714207,-1,-4,3,-7,1,0,0,3
1501880678735211,-43,2,57,21,0,-1,-1,-9
1501880678735211,28,-1,-19,-61,-4,-2,0,14
1501880678737210,5,-12,1,58,-1,0,-1,3
1501880678737210,-8,5,-19,-42,-5,-2,-1,-2
1501880678749210,27,-6,-34,39,3,0,-2,-12
1501880678749210,-6,-5,5,-21,-7,1,1,1
1501880678756214,24,0,7,-17,-6,-4,-1,-1
1501880678756214,11,7,-2,22,9,4,5,5
1501880678773212,0,-1,25,-37,-3,-3,-1,-8
1501880678773212,-27,-7,-33,10,1,-1,-2,4
1501880678774210,13,5,15,58,0,-1,-2,-13
1501880678774210,16,0,-2,-26,1,-1,0,0
1501880678795212,-12,2,-44,-47,-5,-2,-2,-9
1501880678795212,6,2,24,-10,-2,-2,-2,-11
1501880678797212,11,2,22,69,-8,-2,-2,1
1501880678797212,-9,-1,-11,19,6,-2,-2,6
1501880678809213,-3,-5,14,-19,1,2,-1,0
1501880678809213,49,7,-53,-25,2,0,2,1
1501880678818213,-77,-21,-4,-2,0,1,-1,-11
1501880678818213,32,-2,6,33,3,-1,-1,0
1501880678833216,25,5,2,-56,-13,-3,-1,9
1501880678833216,-22,2,13,80,9,0,-1,3
1501880678834222,18,2,2,-39,-8,-3,-3,1
1501880678834222,-47,-1,-6,20,4,3,4,6
1501880678855216,-17,-5,-18,20,-2,-2,-3,-2
1501880678855216,27,8,1,19,2,-2,-2,-2
1501880678857219,-6,-3,34,-6,-2,-2,3,2
1501880678857219,28,-1,-37,49,1,-2,0,14
1501880678869218,-10,2,-25,-13,1,0,-3,-1
1501880678869218,-10,1,21,-5,1,2,-1,-6
1501880678878219,6,16,61,-56,-6,2,2,10
1501880678878219,-37,-13,-90,-9,-2,-3,-4,-24
1501880678893224,0,-2,-2,8,-6,-6,0,1
1501880678893224,11,3,3,-16,-1,-1,3,-2
1501880678894222,0,-9,-45,-15,0,0,-2,-5
1501880678894222,7,10,27,-12,-2,1,0,22
1501880678915221,21,1,40,23,2,0,0,-35
1501880678915221,-34,-5,5,-32,0,0,0,0
1501880678917220,-8,-7,-27,-10,-1,1,2,-10
1501880678917220,32,5,8,9,-1,-4,-4,18
1501880678929235,7,-1,11,29,4,1,2,9
1501880678929235,1,-1,-12,-66,-3,0,1,4
1501880678939220,3,0,4,58,4,-1,-2,-10
1501880678939220,-36,-3,34,90,5,2,1,-12
1501880678953240,-4,-2,-21,-108,-25,-4,-4,-1
1501880678953240,24,-4,-28,80,4,1,2,15
1501880678954221,-10,5,14,6,3,0,-2,-13
1501880678954221,-22,0,-8,-34,-7,0,0,-17
1501880678975264,-20,-11,30,-37,8,-1,-1,0
1501880678975264,2,7,50,27,-2,-3,-2,2
1501880678977223,18,-4,-12,31,7,2,0,6
1501880678977223,1,-8,3,-64,-7,-5,-3,-10
1501880678989243,-4,12,-7,53,3,2,1,6
1501880678989243,-18,-6,-31,-23,3,1,1,5
1501880678998224,14,-3,-4,14,-8,-7,-4,-1
1501880678998224,20,3,18,7,2,1,0,0
1501880679013225,-8,-21,-38,10,0,-4,-4,-3
1501880679013225,17,8,11,-14,0,0,-2,-4
1501880679014225,-4,0,-22,-2,0,-3,0,-2
1501880679014225,-9,0,65,46,-11,-5,-6,0
1501880679035231,20,3,-15,55,5,-2,0,13
1501880679035231,-19,-1,14,3,-2,0,-2,-20
1501880679037227,-7,-4,-19,-72,-11,-4,-3,-4
1501880679037227,3,4,18,9,1,0,-1,0
1501880679049250,16,1,25,-31,-3,0,1,13
1501880679049250,-1,-12,-42,2,-4,-2,-2,-19
1501880679058227,15,6,-10,-13,0,-1,1,43
1501880679058227,40,-4,-12,-14,0,-4,-2,-7
1501880679073268,-5,6,-50,26,3,4,1,-11
1501880679073268,-4,-7,-5,-51,-3,-1,1,10
1501880679074228,2,13,56,27,10,3,1,-20
1501880679074228,-12,-6,-55,-60,-17,-2,-2,-15
1501880679095249,-4,-9,40,-3,1,-2,-2,4
1501880679095249,0,18,33,25,8,2,1,0
1501880679097246,1,-23,-65,-21,-9,-6,-4,1
1501880679097246,-12,6,19,-1,5,1,1,4
1501880679109249,2,0,5,-49,-2,1,0,-2
1501880679109249,-6,-2,26,14,-6,0,-1,0
1501880679118240,4,0,27,9,4,-2,-3,-4
1501880679118240,1,-6,-18,18,3,1,-2,-5
1501880679133232,-3,5,10,-41,-1,0,-1,-8
1501880679133232,9,-5,-17,-3,1,-1,-1,12
1501880679134237,9,-8,-1,3,-3,-2,-3,8
1501880679134237,4,-3,-18,-24,0,-1,-2,-16
1501880679155254,1,3,-10,41,-3,-2,0,3
1501880679155254,6,-7,-2,57,1,-3,-1,-2
1501880679157234,-10,0,-9,-83,-6,2,3,3
1501880679157234,-5,-1,-1,18,1,-1,-1,4
1501880679169235,-1,2,-15,2,1,1,-2,-11
1501880679169235,16,9,3,-14,-1,-2,0,-4
1501880679178254,-13,-11,-37,14,1,1,-1,-4
1501880679178254,-21,-6,0,-25,-3,-3,-3,-1
1501880679193254,27,7,13,4,7,-1,2,-3
1501880679193254,-30,-19,-46,-20,-14,-4,-2,-6
1501880679195239,4,10,63,77,13,5,1,-3
1501880679195239,-23,2,-58,-67,-13,-5,-3,-6
1501880679215237,11,-10,-3,40,-1,-2,-2,0
1501880679215237,4,10,-6,9,-2,-1,-1,-12
1501880679217241,-2,1,7,-92,-8,-1,-2,6
1501880679217241,-9,-7,-1,57,2,-2,0,3
1501880679238258,-22,-2,-6,-31,-12,-2,-3,-11
1501880679238258,6,4,27,-33,1,0,2,8
1501880679240237,-20,3,-6,-12,-2,-3,-3,-17
1501880679240237,9,0,28,109,0,-2,-2,0
1501880679253301,-3,-1,-15,-5,3,1,0,-4
1501880679253301,-24,-4,20,-65,-8,-2,-3,11
1501880679254239,34,-3,-35,29,0,0,0,-3
1501880679254239,-7,-2,-7,-52,0,0,-1,8
1501880679275281,1,9,18,64,7,1,1,6
1501880679275281,-3,-11,-24,-8,0,-1,-3,-1
1501880679277263,-16,1,13,-7,-6,-2,-1,-2
1501880679277263,7,2,6,-27,3,2,3,5
1501880679298244,3,-11,-1,3,-6,-3,-3,0
1501880679298244,-3,3,10,-12,4,-2,-3,-10
1501880679299245,7,4,17,81,-2,-1,-1,5
1501880679299245,-18,-9,-23,43,1,0,0,-4
1501880679313242,3,2,15,1,-1,-1,0,-5
1501880679313242,0,-3,-1,7,4,0,-2,-10
1501880679314248,-24,0,-13,64,0,-4,-3,-7
1501880679314248,3,5,16,-95,-17,-3,-1,-3
1501880679335249,-1,5,-12,-20,3,1,3,5
1501880679335249,28,1,47,5,-7,-3,-1,14
1501880679337266,6,-12,-23,16,1,-2,-1,0
1501880679337266,-23,13,29,49,-1,-2,-2,-5
1501880679358249,8,-10,9,41,6,-1,-2,2
1501880679358249,2,9,8,-27,3,4,3,7
1501880679359245,-3,-4,-15,-12,0,-1,-2,-4
1501880679359245,13,-4,9,22,6,0,-1,1
1501880679380264,-8,-2,-27,-69,-6,-2,-2,-3
1501880679380264,-9,-2,-7,27,0,0,-1,2
1501880679382249,-17,-4,-1,-36,-3,-2,-1,-5
1501880679382249,12,-4,11,29,2,-2,0,4
1501880679395267,-2,2,-13,13,-1,0,0,1
1501880679395267,5,-6,-6,-1,1,-3,-2,0
1501880679397252,-36,-8,-23,11,-12,-3,-4,-26
1501880679397252,-1,1,7,-21,-1,0,-2,-3
1501880679418250,12,-2,14,-1,-1,0,1,8
1501880679418250,4,-4,-2,97,3,-1,-2,-5
1501880679419257,15,5,13,-75,-6,-3,0,6
1501880679419257,-30,-3,41,49,6,-3,-2,-10
1501880679432252,-17,-10,-52,-10,-18,-3,-2,-6
1501880679432252,11,-4,0,-13,-3,-1,-3,-17
1501880679439251,18,4,10,15,2,0,1,5
1501880679439251,5,-8,-12,-26,2,1,3,-2
1501880679455270,8,8,22,2,8,0,0,-12
1501880679455270,-30,-3,-7,66,-2,0,-1,-15
1501880679457253,13,-1,-6,42,5,1,1,10
1501880679457253,-9,0,4,-58,-2,-2,-1,-1
1501880679478293,5,2,20,30,1,-1,-1,8
1501880679478293,14,11,32,-19,-2,-4,-2,-2
1501880679480253,-12,-4,-42,20,5,1,2,-9
1501880679480253,21,2,-9,0,-1,0,-1,9
1501880679492294,-8,3,0,1,-3,-6,-2,-7
1501880679492294,-7,-7,-19,-33,1,3,1,6
1501880679499261,-2,11,23,10,4,-1,0,16
1501880679499261,-4,0,-3,35,-1,0,-1,4
1501880679515258,14,-4,-4,-35,1,0,0,6
1501880679515258,-16,-4,-42,-35,-6,-1,-2,-8
1501880679517275,27,3,29,-21,0,0,-1,4
1501880679517275,-20,-9,-63,11,-2,-3,-2,10
1501880679538293,-15,7,39,43,2,4,2,-3
1501880679538293,-39,-4,-14,-93,-13,-7,-2,32
1501880679539256,31,2,8,24,4,-1,-2,-13
1501880679539256,12,-5,-29,-10,-5,-1,-2,-1
1501880679552257,-13,-10,-41,-26,4,-2,-2,-4
1501880679552257,-6,-3,23,68,0,-2,0,-1
1501880679559257,-6,1,-11,-19,-4,1,-1,7
1501880679559257,6,-2,15,-34,1,2,-1,7
1501880679576290,0,0,0,0,-3,-3,-3,-18
1501880679576290,14,9,-10,68,7,1,1,1
1501880679577258,1,-1,18,-95,-4,-2,-2,-7
1501880679577258,-9,-3,-2,-8,-1,1,1,-18
1501880679598259,0,0,15,23,-4,-4,-3,11
1501880679598259,23,8,18,-49,11,4,1,5
1501880679599259,-10,-8,-55,-20,-12,-4,-2,-7
1501880679599259,-11,-4,24,47,0,-3,-2,6
1501880679612261,5,-4,-10,25,-1,-1,-2,3
1501880679612261,-3,-1,-10,-35,0,-2,1,-9
1501880679626262,3,7,66,22,11,2,3,9
1501880679626262,-10,-5,-52,-29,-18,-4,-5,-16
1501880679635262,-7,-2,-5,-46,-6,0,1,9
1501880679635262,5,-10,-20,56,-10,-7,-4,-26
1501880679638261,3,0,9,17,1,-1,-4,-3
1501880679638261,14,5,0,-6,3,0,3,1
1501880679658264,30,6,40,7,5,1,0,24
1501880679658264,-27,-14,-2,-34,-15,-3,-4,1
1501880679659263,43,0,-29,-55,1,-1,-2,2
1501880679659263,5,-4,7,108,-1,1,0,-3
1501880679672263,-10,-1,0,13,-2,-2,-3,-12
1501880679672263,13,-6,0,50,6,-1,0,6
1501880679679264,-36,-6,2,-67,-22,-4,-5,-13
1501880679679264,39,5,-14,-15,0,-3,-2,10
1501880679695266,-33,3,6,49,3,1,2,-6
1501880679695266,2,-6,-25,-24,-3,0,-1,-1
1501880679697267,-27,-3,0,32,6,-1,-2,-4
1501880679697267,2,8,25,-56,1,0,-1,11
1501880679718266,-13,-2,12,2,-1,-1,0,-13
1501880679718266,6,0,20,-56,-3,-1,0,12
1501880679719272,-18,-4,-48,52,3,-1,0,-7
1501880679719272,8,-8,16,-26,-5,-2,-1,-10
1501880679731267,6,3,-6,-40,-1,0,-2,19
1501880679731267,11,-4,-5,-4,-8,-1,-2,-3
1501880679740267,0,-5,-25,-44,0,-2,-1,5
1501880679740267,0,8,38,42,0,-4,-2,6
1501880679755268,0,-7,-28,-26,3,2,0,-6
1501880679755268,-20,6,29,46,4,1,2,-9
1501880679757268,8,-7,-5,-2,-5,-2,-1,5
1501880679757268,-58,2,5,5,6,-3,-2,-17
1501880679778269,20,6,-14,30,0,1,2,-8
1501880679778269,-10,5,51,-18,6,0,-3,2
1501880679779272,6,-3,13,18,-16,-5,-2,-4
1501880679779272,11,-6,-4,-37,3,1,1,10
1501880679791285,-11,-6,3,-2,-2,0,-1,-1
1501880679791285,1,10,18,-49,5,5,5,-4
1501880679801273,-5,-17,-66,108,2,-5,-5,0
1501880679801273,1,-8,-13,-47,-4,-3,-2,-2
1501880679815275,-8,4,0,-10,-8,-5,-2,-1
1501880679815275,10,0,-28,-22,2,0,0,0
1501880679817272,3,9,32,-23,3,0,1,7
1501880679817272,-4,-5,-20,52,5,2,1,5
1501880679838287,-4,-4,-8,-21,2,1,-1,2
1501880679838287,-28,-5,-13,7,-4,-2,-3,-2
1501880679840276,1,2,29,32,-5,2,0,0
1501880679840276,14,2,16,-3,-1,-1,-1,4
1501880679851275,-19,2,3,-1,1,-1,0,-10
1501880679851275,-1,-6,-12,-31,-5,-3,-3,-7
1501880679860275,8,5,-10,-20,4,-1,1,6
1501880679860275,-10,1,-13,37,3,2,-2,-2
1501880679876274,11,-2,11,52,0,-4,-1,4
1501880679876274,7,-2,-5,-3,-13,-4,0,-1
1501880679877274,-17,4,1,63,6,2,3,-2
1501880679877274,23,3,-5,-67,-5,-3,-1,5
1501880679898277,-6,-8,6,-37,-4,-5,-3,-4
1501880679898277,-14,-7,-48,26,2,0,-3,-17
1501880679899276,-6,3,54,-25,-3,1,-2,-13
1501880679899276,-41,-8,-23,0,-3,-1,0,-8
1501880679911277,24,0,-6,-18,-4,-2,-3,2
1501880679911277,18,12,35,40,4,0,1,10
1501880679920277,-14,-3,-14,32,0,0,-1,7
1501880679920277,5,6,-15,-13,0,0,-2,-14
1501880679935293,2,-3,0,-19,2,0,1,-5
1501880679935293,-15,1,-41,-9,-3,-2,-1,6
1501880679937278,-11,-4,15,-36,3,0,0,-9
1501880679937278,-41,-4,43,47,-10,-8,-7,-11
1501880679958279,11,-3,-3,79,10,2,1,21
1501880679958279,10,2,-6,10,-4,-3,-2,-19
1501880679959280,-14,2,-2,9,3,3,4,2
1501880679959280,3,-14,-37,-53,-12,-4,-2,3
1501880679971283,14,3,37,9,0,0,-2,-2
1501880679971283,12,-3,-1,-5,0,-2,0,3
1501880679980281,11,-3,-32,6,-2,-3,-4,6
1501880679980281,12,4,-4,-27,9,2,4,-9
1501880679995283,-4,-1,-31,-27,-9,0,-1,-2
1501880679995283,8,1,55,44,1,-3,-3,2
1501880679997283,11,5,13,8,8,5,3,11
1501880679997283,3,1,16,-49,-13,-5,-2,6
1501880680018285,-10,-2,23,2,4,-6,-3,-6
1501880680018285,16,-4,-27,-32,0,1,-2,-14
1501880680019284,-5,-4,10,5,-3,-5,-3,-9
1501880680019284,18,1,-11,10,2,5,3,10
1501880680031298,-6,-1,-42,28,-6,1,0,1
1501880680031298,1,-1,14,-77,1,-3,-1,4
1501880680040284,1,-2,10,68,5,-2,-2,3
1501880680040284,5,1,-9,5,0,0,-1,-5
1501880680055286,5,1,18,13,-2,1,-3,-3
1501880680055286,-6,1,-52,4,8,2,1,6
1501880680057286,-6,-2,-15,-47,-7,-1,-2,-13
1501880680057286,-12,-1,25,22,3,-3,-2,10
1501880680078290,-3,-1,12,-28,-1,-2,0,2
1501880680078290,-34,-1,-15,-12,-1,0,-1,-1
1501880680079287,13,2,7,3,-1,0,-2,0
1501880680079287,4,2,3,43,-3,0,-1,-17
1501880680091301,5,-6,-10,17,-2,-4,-3,-1
1501880680091301,-17,-9,1,-10,-1,-1,-1,5
1501880680100295,31,5,-12,-25,-6,-2,-2,-11
1501880680100295,-9,1,-38,-13,6,5,3,-5
1501880680115289,-32,-4,7,9,0,-1,-3,-1
1501880680115289,-13,-8,-38,-1,-2,-4,-3,-6
1501880680117290,-5,-6,6,-13,4,2,1,-3
1501880680117290,15,1,4,53,-2,-3,-2,0
1501880680138293,-3,-3,-2,11,-8,-3,-1,2
1501880680138293,-1,8,22,53,4,0,-1,2
1501880680140291,-17,-5,-6,-77,-14,-3,-1,12
1501880680140291,6,-2,5,27,5,0,-1,-2
1501880680151296,-12,5,5,2,10,1,1,-4
1501880680151296,31,-6,18,-28,-13,-3,-4,11
1501880680160296,-3,5,-31,-12,-2,0,1,-17
1501880680160296,6,12,37,-8,-2,0,1,4
1501880680175307,-5,-6,-28,-21,-3,-2,-3,-11
1501880680175307,5,-4,0,-39,1,1,2,-3
1501880680177294,-32,2,33,72,1,-3,-4,13
1501880680177294,31,5,-14,-22,-9,0,2,4
1501880680198293,-16,-6,-29,-3,4,0,0,-11
1501880680198293,11,3,63,37,-3,-1,-2,5
1501880680199294,-2,-7,-32,-64,-7,-4,-3,7
1501880680199294,-14,-2,1,20,8,1,-1,-3
1501880680220294,5,3,17,-8,-2,0,1,7
1501880680220294,14,-3,-5,10,2,0,-1,4
1501880680226297,-8,-5,9,-3,-1,-1,-3,-24
1501880680226297,21,-5,-18,9,4,1,0,7
1501880680235314,30,2,10,-3,-3,-1,-1,9
1501880680235314,-59,-2,-18,12,-7,-3,-2,-39
1501880680237297,28,2,6,51,10,0,0,12
1501880680237297,-9,-2,-13,10,-5,-3,-1,-3
1501880680257298,-32,-8,19,-30,-9,-3,-2,-11
1501880680257298,32,1,2,25,1,-2,0,2
1501880680259298,-4,-1,-7,-15,0,1,1,11
1501880680259298,-2,8,13,-22,-1,0,-1,-2
1501880680280300,-8,0,-5,-5,-2,-3,-2,1
1501880680280300,13,-2,-14,22,-2,0,0,22
1501880680282299,-7,-3,2,-72,-6,-1,3,-6
1501880680282299,1,0,27,31,7,-2,-3,1
1501880680295302,16,4,-19,-60,3,1,2,-5
1501880680295302,-9,-8,-16,20,-8,-3,-3,6
1501880680297300,-10,3,23,38,9,2,2,-2
1501880680297300,38,-2,30,-24,-4,-4,-4,0
1501880680318301,7,3,-6,-23,-2,3,2,-6
1501880680318301,-6,2,16,16,3,-2,-3,-9
1501880680319308,-33,-8,-89,-49,-7,-1,2,16
1501880680319308,74,0,53,32,12,1,1,25
1501880680340304,-13,-6,-13,-14,-8,-4,-6,-22
1501880680340304,9,7,-10,-29,1,0,1,4
1501880680342305,2,6,31,54,-1,-1,-2,0
1501880680342305,-46,-11,-18,-13,-6,-2,-1,-7
1501880680354304,15,2,-5,0,3,-1,-1,6
1501880680354304,14,4,-32,-37,-2,2,2,-1
1501880680361303,-28,-9,18,24,5,-2,-4,-11
1501880680361303,-23,-4,-13,-24,-5,-1,-1,-8
1501880680378305,2,6,41,82,4,-1,0,4
1501880680378305,-5,-6,-95,-46,-8,-3,-4,1
1501880680379305,60,9,55,-5,0,2,1,0
1501880680379305,-33,-5,-38,-19,2,0,-2,-25
1501880680400306,1,-4,7,23,-3,-3,-3,10
1501880680400306,-9,4,37,-71,-9,-4,-1,5
1501880680402310,34,-14,-32,4,-6,-3,-1,3
1501880680402310,3,-4,-15,-12,0,0,2,8
1501880680414347,2,4,1,56,4,1,0,-1
1501880680414347,-10,-2,1,-1,6,3,0,-10
1501880680421307,-3,6,11,-25,-2,-2,-1,-1
1501880680421307,-18,-6,-80,-1,-8,-3,0,-4
1501880680438314,-5,-11,-26,-21,-4,0,0,23
1501880680438314,6,2,35,60,10,0,-1,11
1501880680440307,-13,-8,13,49,0,-3,-4,9
1501880680440307,9,2,6,-31,-7,-6,-5,-27
1501880680460309,-25,-1,-10,8,1,0,-1,2
1501880680460309,3,5,46,-23,-1,3,1,-9
1501880680462330,-5,1,4,-6,5,0,-3,15
1501880680462330,-4,2,22,20,-5,-3,-4,11
1501880680474349,10,-1,20,27,3,-2,-1,-7
1501880680474349,-6,-6,-29,7,-3,-1,0,3
1501880680481352,-15,4,8,-3,-3,-2,-4,-17
1501880680481352,-16,-3,9,-69,-3,2,1,0
1501880680498311,3,4,-12,-15,0,1,1,-3
1501880680498311,-25,-13,4,33,3,-2,0,-2
1501880680499311,5,-3,-19,29,-3,-3,-2,-4
1501880680499311,-11,2,-7,-32,2,2,3,6
