timestamp,emg1,emg2,emg3,emg4,emg5,emg6,emg7,emg8
1501880073626502,6,-1,0,-5,3,1,-9,1
1501880073626502,-3,-1,-3,16,2,2,7,0
1501880073641503,-10,-4,8,-46,-13,-8,-3,-7
1501880073641503,7,1,-3,8,7,5,3,1
1501880073643503,0,2,9,15,0,4,-1,4
1501880073643503,-4,-2,-24,56,2,-5,-2,-2
1501880073664518,1,-1,-14,-102,-7,-2,-16,10
1501880073664518,20,-4,15,22,-6,-3,11,-11
1501880073665504,-3,3,19,88,3,3,-36,1
1501880073665504,19,-4,-18,74,16,3,20,-7
1501880073677504,-10,-7,11,-15,-18,-7,12,22
1501880073677504,22,11,15,-88,6,3,36,-5
1501880073686506,15,3,-27,-29,-5,-1,-52,-13
1501880073686506,13,-10,31,13,-5,-22,-26,-24
1501880073701507,-38,-9,-11,-40,0,-1,-6,11
1501880073701507,-96,0,7,3,15,16,7,25
1501880073703507,78,-9,-10,16,-8,-10,-12,34
1501880073703507,-61,15,1,-93,5,17,54,-81
1501880073724508,49,7,-43,39,10,-6,12,-1
1501880073724508,51,-9,10,-98,-7,0,-61,76
1501880073725508,-34,18,44,127,42,5,38,-64
1501880073725508,69,-37,-33,-92,-31,-14,-41,98
1501880073737510,-74,10,25,-71,-12,9,34,-23
1501880073737510,-37,-8,-9,51,19,-3,-62,-33
1501880073746519,15,8,-19,-13,-15,8,81,41
1501880073746519,34,-25,-56,-48,-1,-3,-2,-15
1501880073761527,-59,16,4,-2,28,28,52,1
1501880073761527,63,-36,-61,93,-48,-43,-84,-10
1501880073763520,1,-12,86,-73,3,-7,-17,-52
1501880073763520,-39,10,-38,-8,-12,-5,33,8
1501880073784513,-28,24,60,127,27,17,-22,-53
1501880073784513,51,-42,-49,37,-24,-12,-26,-17
1501880073785512,7,20,-54,-50,9,17,17,43
1501880073785512,14,9,114,88,18,13,64,36
1501880073797513,49,-9,29,9,-21,-12,-42,12
1501880073797513,-76,1,-77,22,-16,-3,74,-50
1501880073806512,2,-17,61,43,-30,-18,-14,-4
1501880073806512,97,32,60,24,27,0,-122,108
1501880073821513,-8,-7,19,-34,6,17,93,-26
1501880073821513,22,19,108,-10,33,19,40,59
1501880073823514,95,20,-70,26,31,14,20,56
1501880073823514,-128,-43,-32,-75,-60,-23,-56,-37
1501880073843514,-69,-2,72,5,-2,-13,-29,-29
1501880073843514,18,24,-11,2,15,-5,-24,-9
1501880073845514,-13,-17,-52,-42,3,-4,-54,81
1501880073845514,-49,9,38,127,17,7,65,-15
1501880073867517,126,-11,-2,-58,-3,-5,-65,-24
1501880073867517,6,-2,-33,24,13,16,91,71
1501880073869517,27,22,-4,-105,-52,-21,-68,-59
1501880073869517,-35,-3,-39,-52,5,9,67,27
1501880073881519,-28,11,39,127,-7,-12,-46,-53
1501880073881519,-17,5,-2,-41,30,5,-2,16
1501880073883520,24,7,60,126,32,10,47,-6
1501880073883520,17,-31,-98,-21,-54,-8,-34,-38
1501880073904519,-45,-7,-72,93,1,-9,-2,-8
1501880073904519,64,25,43,16,5,13,14,-11
1501880073905518,-81,-19,8,127,26,3,-18,-59
1501880073905518,7,10,44,-91,17,-6,-51,10
1501880073917530,16,-26,-92,39,-5,-2,55,31
1501880073917530,-10,21,83,-44,-12,-2,-22,-24
1501880073926519,-51,-28,-100,50,-19,5,26,29
1501880073926519,-28,16,-38,-91,-7,-2,-15,-84
1501880073941521,23,-4,-16,-6,-7,-10,-9,11
1501880073941521,30,-14,-49,-81,-9,-4,-4,-23
1501880073943521,-10,-15,18,-9,3,-2,10,-55
1501880073943521,41,13,13,-40,11,14,-1,18
1501880073964524,11,-16,-24,-70,2,-1,-22,7
1501880073964524,-22,8,6,-3,11,-3,15,-28
1501880073965534,-32,-23,-17,11,-22,-13,-9,-9
1501880073965534,20,13,48,50,20,2,-6,0
1501880073977523,33,-18,-42,-119,-30,-9,-7,56
1501880073977523,-35,-8,36,109,-8,-10,-11,-18
1501880073986523,5,13,-4,-40,0,2,4,7
1501880073986523,-17,10,17,67,31,6,-62,-73
1501880074001525,99,-1,1,48,-5,-3,60,39
1501880074001525,-10,1,13,-22,-21,3,-8,-35
1501880074003525,55,-1,3,-11,11,-3,-11,79
1501880074003525,39,-8,36,78,-11,-11,11,-62
1501880074024527,-64,8,-14,-14,8,5,-60,38
1501880074024527,-49,-19,-37,-32,-11,-5,41,-63
1501880074025528,-21,8,60,66,17,5,13,-13
1501880074025528,31,-4,-42,3,-24,-9,18,60
1501880074037527,16,-14,-31,-33,-8,-7,-41,2
1501880074037527,25,19,17,127,2,5,24,77
1501880074046529,-73,7,0,-31,-16,-5,-5,-22
1501880074046529,-30,-15,-57,58,-3,-1,8,28
1501880074060528,-4,15,97,39,18,9,12,-16
1501880074060528,-17,-15,-25,-24,-14,-11,-27,3
1501880074067547,-23,-11,-45,-115,-12,-2,-10,-3
1501880074067547,3,12,35,-2,1,-1,31,0
1501880074084530,64,19,-26,23,5,5,19,98
1501880074084530,11,9,-2,-64,13,8,-14,-78
1501880074085529,-24,-3,17,-33,-15,-9,-14,-29
1501880074085529,-34,-4,7,-3,8,-5,-24,-23
1501880074106530,-75,-9,-18,8,-7,-1,21,-87
1501880074106530,26,2,8,65,8,3,-16,109
1501880074108530,34,-9,-2,-71,-11,2,6,42
1501880074108530,-50,17,20,-12,24,9,11,-55
1501880074121535,14,-9,13,-3,-1,-11,-29,-45
1501880074121535,6,0,58,123,-5,-7,5,-20
1501880074123531,-19,20,31,69,15,7,6,-22
1501880074123531,14,-27,-38,-94,-24,0,-16,18
1501880074144534,7,16,-2,57,15,2,7,-24
1501880074144534,20,-4,12,-56,-13,-12,-25,35
1501880074145532,18,-4,-1,91,0,11,34,26
1501880074145532,47,20,40,13,-7,-3,10,43
1501880074166537,-97,-12,-22,41,-5,-4,-19,-93
1501880074166537,22,-6,4,58,4,1,-5,-7
1501880074168535,1,-15,-49,-30,-11,-12,-15,-33
1501880074168535,-7,7,19,-73,-8,-5,-10,16
1501880074181535,82,10,12,42,2,3,4,107
1501880074181535,-27,-12,-21,-23,-4,-5,22,-9
1501880074183535,9,6,11,-36,9,3,-28,23
1501880074183535,-76,-15,-3,65,1,-1,20,-88
1501880074204535,62,11,24,-68,-4,-3,-7,20
1501880074204535,-34,4,5,-99,-9,1,22,-9
1501880074205536,17,-10,-23,-27,-8,-9,-9,-14
1501880074205536,100,21,47,-33,1,12,15,94
1501880074226550,-35,-15,-59,70,-9,-9,-4,11
1501880074226550,-49,5,-29,-65,-15,-3,-27,-33
1501880074228537,-98,-9,-28,68,0,-4,26,-76
1501880074228537,82,-1,-1,67,10,0,-7,1
1501880074240538,-47,-9,23,48,9,5,-7,-1
1501880074240538,33,0,-18,-39,-22,-11,3,-14
1501880074247540,54,-6,22,-19,-10,-5,-11,35
1501880074247540,10,2,-24,-64,-4,-3,-6,23
1501880074264543,-19,-11,12,98,6,0,12,-14
1501880074264543,1,16,-13,-15,17,12,-2,-4
1501880074266552,51,10,24,-16,-7,-2,-1,10
1501880074266552,-47,-7,22,-26,8,3,4,2
1501880074286543,-16,6,-9,-93,-6,-2,5,45
1501880074286543,-33,-12,-10,28,-1,-3,-25,-46
1501880074288541,38,4,-16,32,-5,-10,-15,-9
1501880074288541,-59,10,31,86,25,15,24,-25
1501880074300545,22,2,-25,-109,-33,-9,1,-3
1501880074300545,-16,-21,-83,56,-13,-4,-7,23
1501880074307544,-19,9,75,-26,15,6,8,-3
1501880074307544,13,-3,66,63,8,-7,-16,15
1501880074324544,35,-7,-26,53,4,-6,-9,64
1501880074324544,-79,4,8,16,9,8,21,-67
1501880074325543,-14,2,2,-75,-2,2,-8,24
1501880074325543,-7,-7,-49,-71,-9,-7,-5,-34
1501880074346545,-3,3,45,47,18,7,-2,-16
1501880074346545,42,-6,9,-80,-10,-6,-8,32
1501880074348546,-14,8,-4,-22,-7,4,3,-35
1501880074348546,12,-17,-82,36,-11,-4,-4,17
1501880074361559,-3,1,7,32,12,1,-9,2
1501880074361559,21,3,53,51,19,4,9,65
1501880074367546,-64,-8,-42,-67,-14,1,17,-12
1501880074367546,34,-1,-63,54,-8,1,-3,26
1501880074384553,-25,-7,4,-13,-3,-5,-4,-25
1501880074384553,40,2,-27,39,2,-2,-2,-15
1501880074385549,23,12,21,-56,11,5,3,0
1501880074385549,-17,-8,12,36,-1,-1,-10,-31
1501880074407548,-8,7,-18,-24,5,7,18,4
1501880074407548,27,0,35,42,5,-5,-2,57
1501880074412588,39,3,-8,13,13,7,0,78
1501880074412588,-47,-1,8,-14,-10,-11,-12,-82
1501880074420549,-37,-3,2,13,0,5,26,-72
1501880074420549,87,0,-25,0,-7,-12,-22,31
1501880074427588,6,4,38,76,5,11,21,-27
1501880074427588,-35,2,-60,-66,4,3,-3,15
1501880074443567,-7,-8,11,-75,-2,-3,2,19
1501880074443567,-28,-8,4,64,0,-3,-1,-1
1501880074445552,-14,1,-2,77,6,-2,-3,39
1501880074445552,-9,-1,17,-57,-5,1,-5,-59
1501880074466568,-21,7,-26,-10,0,1,-4,-44
1501880074466568,-40,-10,-4,-53,-2,0,-1,-26
1501880074468551,-37,-7,-30,-24,-11,-11,-15,7
1501880074468551,-3,-7,1,-39,-16,-1,8,49
1501880074480553,10,7,4,-99,14,3,-11,14
1501880074480553,-53,-3,10,62,-12,-1,3,-36
1501880074487573,19,-20,-37,-36,1,-10,-1,-13
1501880074487573,28,8,38,23,10,4,-6,-71
1501880074503553,10,-11,-7,55,-7,-2,-5,21
1501880074503553,-21,14,30,3,20,4,-2,39
1501880074505553,-19,-2,-16,-31,-19,-4,-11,-25
1501880074505553,5,9,31,-14,1,2,17,17
1501880074526557,44,-15,-67,-50,-12,-8,-12,-13
1501880074526557,-6,-6,12,-10,-5,-1,8,-38
1501880074528572,-5,-2,30,58,16,6,2,7
1501880074528572,27,1,-51,20,-2,0,12,50
1501880074540556,7,-9,1,23,5,1,-6,-52
1501880074540556,-53,8,-2,-108,-14,-1,-23,-52
1501880074547557,26,3,11,55,-11,-4,17,1
1501880074547557,-50,-3,4,14,13,-1,2,49
1501880074563582,21,7,22,51,7,4,10,52
1501880074563582,10,-1,-26,-27,7,6,-4,39
1501880074565585,9,0,45,51,5,-3,-8,-35
1501880074565585,-29,-13,-27,1,-2,-2,3,75
1501880074586579,-3,10,39,88,1,-1,-2,-62
1501880074586579,6,-5,-76,-117,-20,-1,-11,-19
1501880074588574,22,2,-63,2,12,2,3,65
1501880074588574,19,5,84,42,-6,-3,-1,28
1501880074600563,-20,-19,-51,2,-9,-4,-4,27
1501880074600563,25,11,39,-52,-3,4,13,24
1501880074609561,17,-8,-27,-64,-6,-2,-3,-17
1501880074609561,9,-4,-71,41,2,-2,-3,-55
1501880074623599,-52,2,1,-52,1,1,1,41
1501880074623599,46,-2,43,47,2,-2,-4,-60
1501880074625563,30,4,-35,-92,-18,-2,1,45
1501880074625563,16,6,57,39,-7,-9,-15,-10
1501880074645561,18,1,27,17,0,1,13,33
1501880074645561,-61,-7,-31,91,16,-2,-10,-28
1501880074654582,-17,-15,8,-98,-10,-5,-1,-77
1501880074654582,4,2,15,13,-12,-2,1,12
1501880074660601,73,18,44,-36,8,9,17,97
1501880074660601,-37,-14,-33,13,-7,-7,-9,-31
1501880074669572,2,-12,72,106,16,-4,-10,-1
1501880074669572,26,9,-16,-45,-4,2,2,-13
1501880074683564,-21,-2,15,-11,-1,1,-8,-40
1501880074683564,39,24,51,113,12,8,13,40
1501880074685565,29,-26,-58,-24,-11,-5,-1,20
1501880074685565,-50,-8,-18,-62,-8,0,-1,-63
1501880074706581,-3,8,59,53,0,-5,-12,-25
1501880074706581,10,-4,-37,-9,5,0,6,57
1501880074708565,-18,10,25,103,9,2,-6,-18
1501880074708565,4,-1,14,-47,-4,-4,-2,36
1501880074720567,-28,-10,-56,-9,-11,-10,-3,-117
1501880074720567,19,1,31,-17,10,5,-3,15
1501880074729569,-14,-6,16,-62,-22,-7,-7,10
1501880074729569,5,7,-20,-37,11,6,11,21
1501880074743568,-9,3,61,75,-6,-5,-8,-35
1501880074743568,-13,-14,-67,-32,-10,-9,-1,-19
1501880074745569,-26,16,62,-29,13,6,1,-4
1501880074745569,42,-12,-32,74,3,2,-6,-10
1501880074766590,36,-1,-43,-128,-14,-7,-1,22
1501880074766590,12,-4,29,89,-5,-3,-5,19
1501880074768569,-74,6,-21,10,5,6,5,-73
1501880074768569,3,-13,-40,105,0,-5,4,-10
1501880074780571,-5,8,-1,-34,-5,-4,-14,-25
1501880074780571,28,-13,15,-19,-5,-3,4,13
1501880074789571,-4,9,-2,64,7,-1,4,14
1501880074789571,-31,-11,-24,-116,-19,-4,3,5
1501880074804572,0,3,-23,-63,8,8,2,35
1501880074804572,19,-4,1,-11,-14,-8,-8,-2
1501880074805571,-57,0,34,9,3,-2,-13,-82
1501880074805571,4,7,66,27,0,-1,12,15
1501880074826586,12,-7,-87,-30,2,1,-2,12
1501880074826586,-47,4,13,49,10,4,5,16
1501880074828574,72,-6,-16,-113,-28,-7,-2,42
1501880074828574,-9,-5,-13,14,-14,-5,-15,-9
1501880074840573,-4,6,49,13,3,3,-1,-13
1501880074840573,-36,1,7,44,10,9,14,-7
1501880074849574,-17,-2,-49,27,12,1,-3,-56
1501880074849574,-3,-17,-18,-64,-18,-16,-25,26
1501880074863577,-10,7,42,45,-7,-1,16,-38
1501880074863577,3,-2,5,-73,-3,2,-12,2
1501880074865585,48,2,-24,-62,-2,-3,9,75
1501880074865585,-41,6,-7,19,13,7,-4,-82
1501880074886576,25,-11,-51,21,0,-7,-13,15
1501880074886576,26,0,-6,7,-8,-1,14,39
1501880074888577,-69,5,29,25,3,2,-13,-70
1501880074888577,27,8,19,39,12,4,22,42
1501880074900578,-18,-6,3,-60,-18,-3,-5,75
1501880074900578,-8,14,32,16,10,-3,-8,-87
1501880074909577,55,-23,-110,1,-13,-1,7,108
1501880074909577,-3,0,51,-25,11,-4,-7,-30
1501880074923579,-11,4,33,48,3,3,6,-8
1501880074923579,6,-2,2,-103,-8,-6,-5,24
1501880074925577,-4,9,38,-35,3,-1,-2,1
1501880074925577,35,-6,8,-12,-4,4,5,97
1501880074946582,-10,12,45,57,28,9,6,6
1501880074946582,42,-11,-33,-93,-42,-13,3,76
1501880074948580,-36,-1,-15,42,14,4,-8,-13
1501880074948580,-13,4,-27,26,2,1,2,14
1501880074960581,17,-1,-19,-5,1,-2,-2,48
1501880074960581,24,2,-13,19,11,1,0,-31
1501880074969584,-55,-4,37,105,1,-3,-10,-61
1501880074969584,-17,-3,-62,-95,-29,-4,6,-42
1501880074983582,0,3,-16,12,2,0,0,12
1501880074983582,-15,-4,31,90,11,-1,-8,-53
1501880074985582,25,1,29,33,-1,-2,7,21
1501880074985582,71,15,28,-97,7,7,4,12
1501880075006583,17,-4,-13,103,4,-7,-11,-53
1501880075006583,-48,-10,-47,-104,-6,-2,8,-1
1501880075008584,19,9,-7,0,6,-2,-3,-1
1501880075008584,-5,-8,53,1,-6,-9,-16,6
1501880075028583,-7,-14,-50,-83,-9,-1,3,10
1501880075028583,-20,2,51,38,3,1,0,-3
1501880075030584,-49,1,-23,-85,-7,-2,1,-49
1501880075030584,-20,0,17,120,20,4,1,5
1501880075043606,-13,-8,-14,-18,-17,-7,-4,-20
1501880075043606,28,-1,0,-14,2,6,-1,43
1501880075045585,25,-9,-47,-36,-16,-12,-12,-63
1501880075045585,17,5,0,37,12,1,8,15
1501880075066587,-14,-3,24,-82,-18,-6,-15,41
1501880075066587,5,4,-15,59,17,1,6,1
1501880075068586,13,7,43,-43,2,11,12,92
1501880075068586,-19,-18,-67,124,-9,-14,-18,-87
1501880075088590,1,-7,45,94,14,1,11,42
1501880075088590,-24,3,-14,-106,-28,-5,-15,-52
1501880075090589,7,-4,46,28,-6,-1,6,35
1501880075090589,-27,3,-22,-14,7,6,4,21
1501880075103590,8,1,13,-70,-10,1,-1,-29
1501880075103590,4,0,-27,101,7,-5,-4,80
1501880075105589,-7,7,67,19,11,7,3,-66
1501880075105589,26,0,-32,-26,-1,7,14,83
1501880075127593,-17,-2,4,-33,-16,-9,-1,-23
1501880075127593,9,-1,2,16,9,1,8,33
1501880075128589,30,-8,-45,-62,-10,-6,-7,4
1501880075128589,31,-4,-21,0,4,2,5,30
1501880075149595,53,16,0,96,18,10,2,52
1501880075149595,3,-3,45,-19,-15,-8,-9,-12
1501880075151592,-62,-9,-37,54,9,-3,-3,-42
1501880075151592,-6,8,30,-50,-1,4,-9,-32
1501880075164593,-8,-16,-70,-53,-3,1,4,-13
1501880075164593,25,13,11,26,2,1,-7,-10
1501880075165595,36,-5,-22,34,1,-5,1,27
1501880075165595,-15,14,25,27,15,4,0,-34
1501880075186593,-37,-22,-9,-104,-28,-9,-8,-20
1501880075186593,11,10,32,48,11,6,3,29
1501880075188593,-3,-13,-71,26,-6,-2,-11,36
1501880075188593,4,-9,1,-48,-11,-7,9,79
1501880075208594,-30,-2,1,-11,2,-3,-8,-66
1501880075208594,-15,3,-25,-5,6,4,-2,-64
1501880075210601,30,-2,-21,56,-6,-1,7,5
1501880075210601,14,1,13,5,-5,2,-5,-27
1501880075223595,-6,16,41,33,9,2,-3,-10
1501880075223595,14,-17,-10,-111,-14,-6,5,-29
1501880075237596,-2,12,26,41,10,2,4,44
1501880075237596,-21,0,55,27,0,-3,-8,-60
1501880075246597,74,4,-7,41,6,1,-5,76
1501880075246597,-38,-5,-9,-15,-1,0,0,-38
1501880075248598,-8,6,13,-56,-5,1,10,23
1501880075248598,15,5,-13,39,12,2,15,-10
1501880075268599,-17,-4,-3,-3,-17,-3,-2,20
1501880075268599,-15,1,-14,40,9,2,-3,-4
1501880075270598,-10,8,56,-65,3,0,-8,-57
1501880075270598,-28,-15,-20,8,-15,-10,-16,-12
1501880075283600,-21,4,-4,81,14,3,17,-10
1501880075283600,10,3,24,-71,-18,-1,4,13
1501880075290599,-33,-1,-14,-58,1,4,3,-33
1501880075290599,20,-4,28,8,-15,-10,-10,18
1501880075306601,-7,-6,-43,11,9,1,0,18
1501880075306601,0,-4,9,-46,-3,1,3,-4
1501880075308600,27,4,17,36,-1,-1,-5,28
1501880075308600,-22,2,9,30,8,4,4,-20
1501880075328616,1,-2,23,-87,-11,1,-2,12
1501880075328616,-6,-1,-16,25,7,-2,1,75
1501880075330605,29,2,-36,-2,-9,-1,0,-10
1501880075330605,-6,-12,-25,-39,-5,-1,-11,24
1501880075342602,-3,8,9,5,1,0,22,-79
1501880075342602,6,0,60,111,6,1,1,-6
1501880075351602,3,-6,-13,-13,-3,-4,-6,42
1501880075351602,37,19,29,77,14,4,1,-45
1501880075366605,18,-3,-50,-117,-20,-3,-9,15
1501880075366605,73,-2,-10,31,4,0,6,78
1501880075368609,-38,-2,50,79,5,-2,-4,9
1501880075368609,-29,-2,15,55,8,-5,0,-51
1501880075388608,-20,0,-25,-72,-10,0,-3,-21
1501880075388608,-18,-7,-33,36,7,5,6,19
1501880075390607,55,3,35,-37,-15,-6,-8,20
1501880075390607,-1,-4,-7,-15,3,-1,4,30
1501880075403607,-6,4,57,62,4,-5,-6,-13
1501880075403607,-44,5,-8,22,6,-1,-10,-48
1501880075410622,-2,-15,-8,-76,-11,-6,9,40
1501880075410622,9,3,1,-37,-4,3,-5,-28
1501880075426609,-35,-3,15,40,1,-5,-11,-46
1501880075426609,-4,-1,18,82,7,-2,-2,-31
1501880075427608,-14,5,-3,-58,-8,0,-11,-59
1501880075427608,-4,0,-43,-79,-15,-5,2,1
1501880075448607,19,-7,43,46,9,-3,2,6
1501880075448607,-42,-6,-45,-23,-4,3,4,6
1501880075450610,11,-7,-27,25,2,-3,-7,-28
1501880075450610,1,0,0,-48,0,0,4,72
1501880075463611,58,8,-4,11,3,-2,-7,39
1501880075463611,-37,9,41,-41,5,4,1,-98
1501880075470610,-8,-2,36,107,4,0,-2,16
1501880075470610,-6,-5,-20,11,-6,-1,9,43
1501880075486611,-12,9,58,25,6,3,11,22
1501880075486611,50,-2,-18,-10,-5,-3,-1,59
1501880075488610,-20,-11,-24,-5,-11,-3,5,6
1501880075488610,-4,2,-28,31,6,0,-11,-5
1501880075508631,-35,-7,-9,-1,-5,-2,-5,-54
1501880075508631,-4,1,-11,-15,-2,-3,0,9
1501880075510614,-32,10,36,15,9,3,-1,-57
1501880075510614,-30,-3,18,-3,-5,-3,-4,-29
1501880075522642,7,-11,-4,90,-2,-3,-6,16
1501880075522642,16,-2,-41,-59,-19,-4,10,1
1501880075532613,-4,7,44,4,7,0,-4,-3
1501880075532613,11,-2,-47,-61,5,5,8,-9
1501880075546617,-14,-2,23,110,5,4,-3,-34
1501880075546617,26,15,12,-4,2,-9,-9,-6
1501880075548613,18,-13,-27,-23,-1,3,7,51
1501880075548613,-56,6,45,36,1,-1,3,-70
1501880075568617,35,-11,-60,-99,-3,-2,-11,51
1501880075568617,24,-4,-25,37,4,1,-2,62
1501880075570616,8,18,33,41,10,5,19,8
1501880075570616,-3,-8,13,-107,-16,-9,-11,-14
1501880075591616,-8,0,-17,-25,-3,2,7,-25
1501880075591616,-17,7,30,-7,4,1,-2,-7
1501880075593617,-8,-14,-24,41,9,0,6,-16
1501880075593617,15,0,33,37,3,2,-3,90
1501880075606618,-1,6,-21,26,1,-6,4,7
1501880075606618,45,8,99,-73,-3,3,-1,45
1501880075608619,-40,-16,-63,33,-3,-3,-3,-53
1501880075608619,3,-3,22,44,4,-3,-7,18
1501880075628632,-11,-7,-49,-94,-8,-2,4,-3
1501880075628632,1,7,39,7,-4,-4,-10,10
1501880075630623,31,-8,-41,48,-2,0,4,75
1501880075630623,-46,-5,-15,28,-9,1,7,-17
1501880075642619,17,13,10,-56,3,1,-8,-64
1501880075642619,-23,-9,-44,40,3,1,8,-18
1501880075651620,6,6,12,-41,2,0,1,36
1501880075651620,2,3,-10,-32,-9,-6,-8,-55
1501880075666621,-10,-4,20,29,11,3,8,-7
1501880075666621,-4,-8,11,-16,-18,-8,-14,-9
1501880075668621,-8,12,20,-26,-1,2,-2,-22
1501880075668621,77,-11,-48,-19,7,0,3,62
1501880075689622,-23,2,-4,-4,-4,-1,-5,54
1501880075689622,-36,-4,-2,50,6,-2,3,-94
1501880075691624,-1,2,-15,-65,-12,-3,-7,10
1501880075691624,0,0,17,17,3,3,-5,-22
1501880075702623,-8,-6,-29,36,-7,-5,-1,5
1501880075702623,1,2,10,-10,6,4,3,15
1501880075711623,51,-5,-36,6,-10,-4,-2,54
1501880075711623,-58,4,12,26,-1,3,5,-26
1501880075726638,13,-13,7,-7,-9,-5,-6,27
1501880075726638,-19,-2,20,-6,2,3,1,-54
1501880075728624,-9,4,40,11,9,1,-6,-72
1501880075728624,16,13,27,-24,-8,-6,1,20
1501880075748626,10,7,39,2,3,7,11,25
1501880075748626,-28,-17,-92,17,-12,-12,-19,-60
1501880075750629,3,12,75,-23,3,4,6,8
1501880075750629,21,-16,-66,-1,-15,-10,-16,-8
1501880075762627,-34,-1,-11,-22,9,3,7,-13
1501880075762627,7,-1,-8,10,4,1,-1,-17
1501880075771628,-24,-4,-14,20,3,-1,-15,-72
1501880075771628,-7,-2,9,-29,-6,-1,10,-5
1501880075786629,-6,5,4,16,-3,-2,-5,15
1501880075786629,14,-1,-6,-17,9,3,0,17
1501880075787630,-8,-11,-24,40,-20,-8,-11,9
1501880075787630,0,-1,-5,-5,0,0,6,15
1501880075808631,-9,7,22,-8,2,-5,1,-9
1501880075808631,90,6,56,29,-5,-1,4,114
1501880075810629,-51,-6,3,23,3,2,-9,-52
1501880075810629,19,-3,-23,-29,-5,0,-1,26
1501880075822630,-3,5,27,34,4,0,6,-10
1501880075822630,-22,3,16,-3,4,1,-10,-57
1501880075831631,21,-8,-11,-71,-10,-3,5,31
1501880075831631,5,5,3,-18,-3,-2,-2,-15
1501880075846635,-22,0,-11,-2,3,-1,-7,-27
1501880075846635,-16,-11,-40,71,-1,-3,2,9
1501880075848631,-9,-1,-14,-76,-7,-2,3,5
1501880075848631,10,-4,4,49,8,-5,-9,16
1501880075868634,23,0,-6,-38,2,7,9,33
1501880075868634,2,-6,-33,-95,-13,0,-1,18
1501880075870633,-12,14,27,73,16,2,8,-13
1501880075870633,-3,-1,2,-63,-17,1,-8,-31
1501880075882647,7,-4,3,2,1,-5,-9,15
1501880075882647,-28,-8,-43,85,-10,-8,-7,-68
1501880075891635,29,-5,-49,-14,1,-2,0,33
1501880075891635,6,18,80,89,26,10,10,17
1501880075906635,-11,-10,4,5,-18,-4,-8,-65
1501880075906635,-22,1,15,-90,-7,-1,-3,54
1501880075907637,10,11,-43,10,2,-1,6,39
1501880075907637,-17,-16,-20,36,2,-6,-5,-5
1501880075928637,32,5,44,-29,4,5,-1,15
1501880075928637,48,3,-44,-1,-4,-4,-6,45
1501880075930637,-1,-7,-14,-27,-22,-9,0,-51
1501880075930637,-33,-5,1,-25,-1,1,0,-20
1501880075942640,-1,-8,13,48,7,6,-3,19
1501880075942640,4,6,-22,-47,1,0,15,-4
1501880075951639,2,-7,-25,-31,-2,-6,-8,24
1501880075951639,14,4,31,39,4,-1,-1,11
1501880075966639,-15,-6,-23,-19,-6,-3,-5,-26
1501880075966639,-3,5,43,46,15,10,9,9
1501880075968640,-1,-6,-20,-13,-10,-5,-4,24
1501880075968640,-8,0,-23,-38,2,0,-10,13
1501880075988641,-21,2,4,19,-6,-3,20,-62
1501880075988641,-30,3,64,28,5,0,-2,-57
1501880075990642,33,-10,-29,6,6,2,3,53
1501880075990642,-2,-1,-5,-39,-6,-2,-4,-2
1501880076011642,7,0,-38,-6,-2,-4,-6,-32
1501880076011642,-6,0,12,90,7,5,1,-12
1501880076013642,-20,4,74,41,-3,-1,-11,-22
1501880076013642,6,-3,1,29,3,-3,-3,11
1501880076026645,0,-2,-24,-51,-8,-2,-4,22
1501880076026645,21,-2,-30,4,0,0,8,-21
1501880076028642,19,11,53,52,14,6,7,-8
1501880076028642,-8,-9,-43,-40,-9,-3,-7,-5
1501880076048645,9,7,39,74,6,2,13,47
1501880076048645,5,-12,-62,-93,-10,-8,-20,10
1501880076050644,4,-5,-17,-46,-1,-2,1,67
1501880076050644,9,10,26,-51,-6,-3,-3,4
1501880076071646,-7,2,-35,-62,1,4,-15,-19
1501880076071646,-38,-12,-10,61,-3,-3,-3,-31
1501880076072647,-4,8,48,34,-13,1,21,3
1501880076072647,-3,-3,-3,3,17,-3,0,15
1501880076086646,9,1,-14,-22,1,5,0,21
1501880076086646,-20,-1,-40,-20,-1,1,-7,-37
1501880076087647,13,-2,65,12,0,-1,1,59
1501880076087647,2,9,30,38,-14,-5,6,-50
1501880076108662,-12,-10,-19,-1,-3,-8,-11,-61
1501880076108662,-14,4,15,-69,-6,-2,-11,-21
1501880076110647,-35,-6,-19,55,-5,-4,2,-33
1501880076110647,-9,-6,-59,-6,-5,-1,-4,25
1501880076131650,-4,5,17,77,16,0,-2,11
1501880076131650,6,-2,7,-16,-2,-2,5,10
1501880076133648,4,-10,-11,-47,-6,-3,-1,-2
1501880076133648,-6,13,22,-34,7,9,-2,-2
1501880076145665,8,-11,-2,42,-11,-2,1,9
1501880076145665,0,1,-1,-12,1,0,9,38
1501880076152649,-14,6,8,1,9,-1,-8,-47
1501880076152649,10,-12,-32,-32,-2,1,7,65
1501880076168651,14,1,20,42,4,2,-8,-11
1501880076168651,-17,5,27,-6,-2,1,1,8
1501880076170651,-9,-1,-48,-6,8,4,6,-68
1501880076170651,3,-2,31,83,-6,-3,0,-28
1501880076191654,-12,1,3,-25,1,-2,-4,40
1501880076191654,-14,-14,31,-26,-15,-10,-7,-5
1501880076192655,37,20,45,-44,11,3,-1,86
1501880076192655,-42,-15,-48,15,-8,-2,-1,-31
1501880076205661,12,2,30,18,4,-2,0,13
1501880076205661,52,7,5,82,18,8,9,89
1501880076212656,-39,-8,-44,-91,-24,-3,-12,-44
1501880076212656,7,0,18,10,9,-1,-2,-18
1501880076228668,1,8,28,-52,-10,-7,0,32
1501880076228668,21,-21,-83,44,-2,-2,-3,4
1501880076230658,-22,-1,-14,49,6,-1,-9,33
1501880076230658,7,-3,8,-65,-5,2,-1,0
1501880076251658,-11,2,24,12,-3,-3,3,-8
1501880076251658,-4,2,-3,23,4,-1,-1,7
1501880076252655,0,-5,-19,-28,1,-1,-1,-10
1501880076252655,9,-1,-30,-12,-7,-1,-12,-4
1501880076265657,17,-12,-13,64,-2,-3,14,87
1501880076265657,-33,4,44,-49,-11,-6,-9,-12
1501880076272682,2,0,-2,47,13,3,7,-3
1501880076272682,-12,1,16,21,3,0,1,-9
1501880076288659,15,2,9,-67,-2,4,0,-13
1501880076288659,-15,-2,-26,11,2,-4,-13,-23
1501880076290658,44,9,36,-26,-5,2,1,28
1501880076290658,1,-13,-33,19,-1,-3,6,-6
1501880076310686,3,0,-13,45,7,3,2,5
1501880076310686,-6,-10,-17,-47,-9,-4,-4,-62
1501880076319659,-15,-3,-38,-64,-10,-4,-10,-29
1501880076319659,34,11,28,-15,5,3,5,69
1501880076325715,-20,-6,-35,58,1,-5,-1,-11
1501880076325715,17,-4,-3,-39,-5,1,5,38
1501880076332668,0,-3,-8,-48,3,-2,-8,-30
1501880076332668,-2,-8,-13,6,-11,-4,-8,-19
1501880076348662,25,5,-2,-37,1,4,7,69
1501880076348662,13,8,3,35,10,5,6,-58
1501880076350661,-51,-11,-16,9,-11,-8,-20,-29
1501880076350661,6,9,5,-13,7,8,18,40
1501880076371710,-27,-14,-50,-28,-5,-3,-6,-39
1501880076371710,3,-2,31,71,9,-3,3,-72
1501880076373667,14,7,53,87,-3,0,-3,-22
1501880076373667,2,-2,-7,-61,-12,-7,-6,-14
1501880076385683,-13,2,2,-21,-2,-2,-11,-60
1501880076385683,-27,1,29,40,8,5,8,25
1501880076392684,8,-4,19,-25,-6,-5,-7,-14
1501880076392684,-50,-6,16,14,3,-1,-10,-19
1501880076408672,-4,-9,-30,-2,-6,-4,-2,33
1501880076408672,36,8,12,-98,-14,-2,3,69
1501880076410665,2,-6,-45,44,6,-1,3,-18
1501880076410665,7,4,6,-22,-9,-4,-5,-9
1501880076431701,17,8,55,-31,7,2,12,53
1501880076431701,-20,-6,16,30,0,-3,-10,-75
1501880076433699,15,6,16,-55,0,1,14,34
1501880076433699,-38,-7,-9,-3,-1,1,-5,-20
1501880076445687,20,-1,-30,36,-2,-4,-4,6
1501880076445687,-59,8,5,5,6,5,5,-35
1501880076452674,38,-8,1,-51,-19,-7,7,47
1501880076452674,29,6,-2,123,11,0,-8,-14
1501880076468703,-4,-7,15,-39,-13,-3,-6,-21
1501880076468703,2,-6,-38,8,0,0,-1,65
1501880076470672,12,5,-5,41,11,2,-5,72
1501880076470672,-23,-7,-8,-20,-8,-3,5,-57
1501880076491690,-2,1,2,-25,-5,1,-4,-22
1501880076491690,15,-4,6,-52,1,0,0,32
1501880076492691,-32,-5,-34,105,10,4,-1,-25
1501880076492691,43,-1,-20,-33,-8,-8,-7,29
1501880076505680,-35,-2,2,10,-5,-6,-5,-21
1501880076505680,-11,4,34,55,5,2,6,-15
1501880076514678,-17,9,-17,-96,-7,-2,-2,-25
1501880076514678,12,-11,23,28,11,1,9,3
1501880076528731,-28,0,-18,-38,-6,0,-7,-62
1501880076528731,24,9,-19,28,8,0,-4,35
1501880076530671,-2,-7,17,-65,-16,-2,5,36
1501880076530671,4,9,52,31,5,0,5,-15
1501880076551672,1,-6,-22,-6,1,1,-5,-1
1501880076551672,31,6,23,-37,-3,0,5,48
1501880076552672,-37,-7,-33,24,8,2,-4,1
1501880076552672,-45,-4,9,7,3,-4,-2,-49
1501880076564691,-14,2,11,57,1,2,-5,-35
1501880076564691,-17,-2,-7,-18,-10,-8,-3,-16
1501880076574673,6,0,21,-24,3,7,10,-11
1501880076574673,-2,5,-15,-31,-14,1,-3,-32
1501880076588674,37,-1,18,-8,8,0,3,25
1501880076588674,-9,-8,-26,12,0,-1,-7,-15
1501880076590675,-1,0,8,45,4,-2,5,-1
1501880076590675,25,-1,8,23,4,-2,-5,-11
1501880076611727,25,2,7,-8,-11,0,5,46
1501880076611727,-12,-4,-37,-50,-3,0,-3,-30
1501880076613689,1,4,3,16,-18,-5,-8,-42
1501880076613689,-10,4,-17,-60,10,0,6,18
1501880076625688,20,3,46,14,15,1,-2,13
1501880076625688,7,-9,-49,-44,1,8,4,28
1501880076633678,2,0,20,23,-11,-3,-2,-70
1501880076633678,1,-8,-25,3,0,1,-10,-4
1501880076648681,0,1,6,-5,-8,-5,-5,-7
1501880076648681,-17,7,4,27,13,7,20,-15
1501880076650680,-10,-3,10,-49,4,-4,-15,-90
1501880076650680,-22,-3,-12,57,-7,1,11,-10
1501880076671707,-25,-6,-23,-17,4,-5,-5,-28
1501880076671707,15,3,11,-10,-11,-7,-13,14
1501880076673684,28,0,27,-39,2,2,10,18
1501880076673684,8,1,-79,-36,-8,1,-6,50
1501880076685683,-16,1,39,108,6,0,5,-39
1501880076685683,40,-11,-14,-41,-14,-8,-8,12
1501880076693702,12,8,11,41,10,4,8,27
1501880076693702,-4,-7,-23,16,9,-4,-6,34
1501880076708714,2,6,-3,-54,-12,1,3,-22
1501880076708714,-28,-3,-2,4,-6,-3,-6,-16
1501880076710683,-3,-8,-20,4,2,-4,-6,-9
1501880076710683,22,6,27,28,10,2,2,12
1501880076731715,-25,-3,-7,-27,-2,-1,0,16
1501880076731715,-15,-4,-17,-14,0,-5,1,-19
1501880076733721,-20,-6,-18,29,-2,0,-7,2
1501880076733721,-6,-5,3,-33,-5,2,4,0
1501880076745697,6,5,-15,77,10,1,1,19
1501880076745697,-4,-3,18,-96,-10,-5,-5,-9
1501880076754686,11,5,-2,57,2,-5,-13,5
1501880076754686,-29,-6,-9,-57,-11,0,7,-9
1501880076768688,16,4,12,-42,-1,1,2,13
1501880076768688,7,4,16,36,0,-2,-6,29
1501880076770687,-24,-9,-20,10,0,-2,-4,68
1501880076770687,38,6,42,21,-1,1,-1,25
1501880076791708,-38,-4,-11,-26,8,3,-5,6
1501880076791708,-4,-8,-29,25,-12,-5,0,2
1501880076792687,10,-2,36,24,2,-2,-3,8
1501880076792687,-13,6,41,-11,-9,-2,2,-19
1501880076804708,14,-4,-68,20,4,1,5,15
1501880076804708,-16,7,28,24,10,6,1,-10
1501880076813694,15,-14,-3,-54,-9,-2,0,11
1501880076813694,-1,2,-3,21,2,-4,0,-14
1501880076828755,8,-1,9,-18,-5,-3,-6,6
1501880076828755,8,-4,1,3,4,-1,-9,-38
1501880076830690,-47,-4,-24,-12,-7,-3,2,-46
1501880076830690,1,5,-10,12,-9,0,0,8
1501880076851713,-10,-10,-2,-55,-6,-5,1,-11
1501880076851713,3,0,-32,26,1,0,0,0
1501880076852711,56,6,17,2,7,0,-5,-3
1501880076852711,3,-2,5,-3,5,-1,2,33
1501880076864691,-31,3,22,26,0,-1,-2,-47
1501880076864691,-11,-4,-12,-42,-11,-2,3,5
1501880076874696,-3,2,11,69,4,3,3,25
1501880076874696,2,-10,-21,-25,-4,-4,-12,3
1501880076888709,11,11,13,13,-3,-1,-4,1
1501880076888709,-15,-3,19,5,6,-1,12,39
1501880076890694,7,6,-9,-54,-1,1,1,-45
1501880076890694,2,-3,18,75,6,1,5,-1
1501880076911693,16,-3,13,-63,-12,-2,-3,-6
1501880076911693,-1,4,4,21,-10,0,-2,6
1501880076913699,25,5,-2,77,12,-4,0,39
1501880076913699,5,-11,-19,-83,-3,-3,-12,0
1501880076933698,-6,0,-27,-70,-14,-1,19,-29
1501880076933698,33,2,14,-11,3,1,-6,1
1501880076935697,-9,-6,15,46,8,1,1,3
1501880076935697,11,5,-3,-43,-4,1,-10,-9
1501880076948695,-3,-7,2,24,-9,-5,-5,10
1501880076948695,-18,11,27,-13,1,1,-8,8
1501880076950696,-14,-5,-9,21,1,1,5,-33
1501880076950696,-37,-1,-16,4,-1,-6,-3,-46
1501880076971700,-40,-8,-8,21,5,4,-4,31
1501880076971700,34,6,-4,-36,-6,-3,0,-60
1501880076972697,-31,1,-2,-10,3,1,-1,20
1501880076972697,28,2,20,30,-8,-2,1,14
1501880076993700,-1,4,-10,-2,5,2,-6,7
1501880076993700,3,-8,-15,24,8,1,-3,7
1501880076995700,7,8,28,-4,3,1,0,28
1501880076995700,-17,-11,-46,-65,-18,-8,-2,-22
1501880077008702,29,0,2,18,-1,-3,-5,51
1501880077008702,-36,7,47,69,14,3,-1,-2
1501880077010700,2,-20,-26,-128,-22,-7,-4,-4
1501880077010700,-1,8,49,43,1,0,10,17
1501880077031702,31,6,-68,65,13,1,-3,-9
1501880077031702,-14,-14,11,-53,-9,-8,0,-18
1501880077033701,4,1,-47,-16,-5,0,0,-9
1501880077033701,-81,-6,27,-24,0,0,-2,-33
1501880077053703,59,1,10,81,8,-2,-3,-6
1501880077053703,-30,-4,-24,-52,-16,1,-1,-4
1501880077055702,54,5,-1,-17,-3,-1,19,95
1501880077055702,9,0,-1,6,10,2,2,-16
1501880077068708,-26,-3,17,20,-9,-1,0,23
1501880077068708,8,-1,9,48,6,0,-5,-15
1501880077074717,-11,4,10,-58,-6,-2,-7,14
1501880077074717,16,-5,-26,-1,-5,1,-6,22
1501880077091706,-1,0,30,-22,2,0,5,23
1501880077091706,34,-5,-45,43,-1,-4,2,1
1501880077092706,-17,3,3,19,2,3,1,-28
1501880077092706,29,6,21,-17,-5,2,-3,16
1501880077113709,-19,-5,-22,-57,-9,-2,2,26
1501880077113709,-30,-9,-30,-85,-6,-1,-4,13
1501880077115706,10,2,59,86,7,-3,-1,-13
1501880077115706,23,7,-29,28,7,-2,-5,6
1501880077128720,-19,-2,35,28,-1,4,1,-23
1501880077128720,3,-3,-20,-15,-6,2,3,24
1501880077134707,-16,-2,-32,26,-1,-3,-8,-14
1501880077134707,17,-3,1,14,5,0,6,56
1501880077151707,-3,4,20,-29,-14,-4,-3,-38
1501880077151707,14,5,-5,-38,-4,-8,-1,25
1501880077152718,2,-2,13,-36,-3,3,-5,-15
1501880077152718,-13,-4,-13,49,2,-2,1,5
1501880077173724,38,-3,-13,46,10,3,1,-10
1501880077173724,-19,8,35,33,2,0,-5,-2
1501880077175709,0,-15,-54,-38,-9,-6,0,-2
1501880077175709,-30,2,20,24,2,-3,0,-23
1501880077188711,15,-9,-17,-56,-8,-3,0,5
1501880077188711,26,4,12,37,17,7,5,34
1501880077194711,-40,-1,8,6,-12,-3,-5,-14
1501880077194711,11,2,16,2,10,6,3,3
1501880077211727,1,-4,-14,-43,-5,-4,-6,-13
1501880077211727,1,1,3,-3,6,-2,0,14
1501880077213712,3,7,8,102,12,8,10,-2
1501880077213712,-21,-11,-5,-54,-7,-4,-1,-41
1501880077233715,27,3,-4,-28,-4,-2,-7,6
1501880077233715,-35,-2,24,43,4,2,17,-20
1501880077236713,-36,3,4,19,-3,-2,-14,-63
1501880077236713,-8,-6,-21,-73,-8,2,8,-4
1501880077248715,-2,0,5,1,14,-2,1,23
1501880077248715,-1,3,26,45,1,-3,-8,-66
1501880077254714,9,-3,-41,-105,-6,0,-1,53
1501880077254714,0,-3,-6,33,-1,-3,-2,-4
1501880077271716,-24,-6,21,54,-3,-3,-1,-5
1501880077271716,-11,7,20,54,3,1,12,27
1501880077272717,-2,-12,-48,-79,-3,-6,-3,15
1501880077272717,4,1,-3,-30,-2,-1,-14,-4
1501880077293716,29,4,19,-14,-6,-3,-9,47
1501880077293716,7,-6,-15,-25,-4,0,6,-15
1501880077295716,10,0,16,58,-23,-7,6,-13
1501880077295716,28,-5,-20,26,27,8,-2,45
1501880077308717,-19,0,4,17,-2,1,-2,-42
1501880077308717,8,0,35,-58,0,4,-8,38
1501880077315726,5,-6,-13,62,16,-6,-2,29
1501880077315726,20,13,29,2,-21,0,7,-63
1501880077331720,-17,-6,2,20,11,-3,3,33
1501880077331720,48,-6,-28,14,-27,-7,-10,-20
1501880077332725,8,6,35,-13,-2,5,-4,-13
1501880077332725,-27,-1,-1,28,2,-2,11,-4
1501880077354720,-2,3,-2,-6,0,0,8,8
1501880077354720,-12,0,-16,27,0,-3,-3,-7
1501880077356720,-3,-6,11,-61,-5,-5,-12,-6
1501880077356720,6,-3,-24,30,1,-3,-11,18
1501880077368727,-9,3,-11,-71,-11,10,19,-20
1501880077368727,30,-7,-15,47,5,-2,4,45
1501880077374734,-30,9,-1,0,13,4,-1,-70
1501880077374734,-40,-7,35,42,-5,0,3,-32
1501880077391722,12,-3,-16,-27,-3,-14,-19,8
1501880077391722,-24,-3,-24,17,-13,0,-5,-55
1501880077392722,10,0,32,20,7,2,-2,22
1501880077392722,-2,4,-1,-25,-11,-5,-1,-20
1501880077413723,-45,-10,-1,12,-2,-1,-4,-21
1501880077413723,24,4,-12,26,7,1,8,2
1501880077415729,0,-15,5,-36,-8,-1,-8,11
1501880077415729,7,0,-8,19,8,-2,-9,17
1501880077427739,3,5,-5,33,-2,1,14,6
1501880077427739,-31,-1,19,-33,0,-5,-6,12
1501880077436724,12,-5,-49,-41,-4,-1,2,1
1501880077436724,37,8,29,-45,-6,0,1,17
1501880077451726,-8,-4,4,-6,4,3,-1,5
1501880077451726,14,1,-26,-28,-3,1,-4,43
1501880077452727,3,2,3,25,2,3,5,-12
1501880077452727,-7,-5,-15,5,0,-5,0,-14
1501880077473741,2,6,-19,-89,-7,0,-4,-29
1501880077473741,-1,-3,4,45,4,1,-1,11
1501880077475728,7,0,13,22,1,-4,0,13
1501880077475728,-13,6,13,5,-1,6,0,21
1501880077487729,-8,-8,12,21,5,-4,2,-10
1501880077487729,3,1,-18,-118,-19,-8,-13,-3
1501880077496732,1,0,13,-4,0,1,10,60
1501880077496732,-1,-1,3,7,2,2,-4,13
1501880077511730,-10,-1,-24,-26,0,0,-1,-18
1501880077511730,5,3,-1,-10,3,1,0,33
1501880077512731,12,5,9,41,2,-1,-4,-8
1501880077512731,22,6,4,18,-6,-2,2,18
1501880077533731,-22,-10,-5,9,0,3,1,-50
1501880077533731,-4,-16,-45,-5,-9,-4,-7,-8
1501880077535730,-9,6,18,-13,1,2,8,-22
1501880077535730,15,-4,-1,16,1,-4,1,-22
1501880077547731,15,5,-10,-22,1,-2,-9,29
1501880077547731,-13,-5,-28,2,-7,-2,-3,-46
1501880077556731,-19,-3,3,57,10,-1,-1,-44
1501880077556731,60,5,52,-13,-7,-1,-3,25
1501880077571732,-64,-11,-66,-42,-5,-3,-8,-57
1501880077571732,-18,3,48,35,5,1,12,-1
1501880077572733,30,-2,-6,36,-2,1,-7,9
1501880077572733,-21,1,-6,26,5,-1,0,-36
1501880077593734,16,7,25,20,-4,-4,-6,1
1501880077593734,-9,4,11,-29,-1,-1,-7,17
1501880077595734,-21,-4,-4,-25,-9,-3,-4,-52
1501880077595734,-32,-1,12,26,6,0,2,-8
1501880077607750,14,-3,-16,4,-3,2,1,17
1501880077607750,-2,3,8,-4,12,2,4,-18
1501880077616738,-3,-7,4,-26,-5,-7,0,16
1501880077616738,-8,-4,-26,-14,1,-2,-6,13
1501880077631737,14,6,24,-15,-4,0,5,21
1501880077631737,-4,0,-35,53,1,0,0,0
1501880077633737,-7,8,30,26,3,1,1,0
1501880077633737,1,-11,-37,-43,-2,-2,-5,-35
1501880077653737,42,-7,1,43,-6,-7,9,40
1501880077653737,-41,5,3,-16,2,-2,-11,-43
1501880077655737,15,-6,-44,-10,-13,-3,0,16
1501880077655737,-24,-5,-25,5,-4,-3,-4,13
1501880077667756,4,1,31,-22,1,-1,-9,1
1501880077667756,23,-2,-1,23,-1,0,14,9
1501880077676739,6,3,13,-6,-2,2,-6,7
1501880077676739,-36,-2,-3,20,7,3,6,-14
1501880077691760,-8,-3,-13,-29,-2,1,-2,-10
1501880077691760,9,-7,32,-33,-8,-7,-10,33
1501880077692740,-32,-1,-18,-2,1,-1,1,-53
1501880077692740,45,1,8,-47,-3,-1,0,48
1501880077713794,-5,0,-7,84,3,0,2,-5
1501880077713794,0,0,16,-38,2,0,-1,-7
1501880077715743,9,7,10,15,0,-2,-6,39
1501880077715743,10,-10,-33,14,-3,-2,-4,46
1501880077727803,14,6,9,31,3,-2,-3,-24
1501880077727803,10,-2,2,-6,-4,-5,1,11
1501880077736742,5,-4,-16,60,12,8,6,20
1501880077736742,-8,3,-2,-89,-15,-1,14,-10
1501880077751764,-13,7,22,-25,-2,0,-6,36
1501880077751764,-11,-12,-39,33,-2,0,-3,-50
1501880077752743,17,0,14,-26,1,-1,-2,33
1501880077752743,-42,-3,-26,32,-7,-3,-4,-44
1501880077773777,4,-10,4,18,-5,-4,-3,3
1501880077773777,-3,7,29,-21,4,2,4,1
1501880077775749,3,-6,-37,-7,1,0,2,-8
1501880077775749,-12,-1,8,33,-2,-2,-7,-54
1501880077787750,-7,4,2,13,5,3,0,-11
1501880077787750,27,-9,-1,35,-2,-6,-8,0
1501880077796748,-22,0,8,-44,-9,-4,-1,-10
1501880077796748,-5,2,27,8,2,-1,-2,2
1501880077811814,-1,1,-29,13,2,0,8,-6
1501880077811814,-12,-2,-10,-35,-2,2,-2,-15
1501880077812767,51,2,8,-3,-1,1,4,52
1501880077812767,-18,-1,-15,69,7,-3,-20,-32
1501880077833791,-18,-8,-21,-81,-30,-11,-3,-19
1501880077833791,1,9,13,1,2,1,-1,4
1501880077835749,-18,-17,-38,6,-1,-2,3,-13
1501880077835749,8,-5,39,-4,-2,1,-2,34
1501880077847753,13,-4,-32,20,7,1,-3,0
1501880077847753,-27,-1,-3,18,-6,-6,-4,-10
1501880077856749,1,3,-8,-65,0,3,-8,-15
1501880077856749,35,6,17,29,-1,-2,8,45
1501880077870803,-1,3,-1,23,5,-2,-2,-13
1501880077870803,-20,-4,21,21,2,6,3,-26
1501880077877820,-2,0,9,-41,-9,-5,-7,0
1501880077877820,-1,-5,-8,-1,1,-1,7,0
1501880077892752,11,4,20,-10,-2,0,0,15
1501880077892752,37,8,13,11,1,3,-3,28
1501880077901752,-27,-1,14,50,6,-2,2,-35
1501880077901752,-40,-3,-14,-108,2,2,0,2
1501880077916753,10,-1,-11,65,-6,-5,-6,5
1501880077916753,11,2,2,-11,2,0,5,46
1501880077917753,5,1,-15,74,8,0,-3,-19
1501880077917753,4,2,15,-85,-22,-6,-3,-1
1501880077931754,-11,10,56,17,14,6,4,1
1501880077931754,2,-8,-47,-29,-3,-1,7,4
1501880077932759,-3,-1,-4,-15,-5,-4,-9,5
1501880077932759,8,4,-12,54,8,4,3,0
1501880077952756,7,-5,5,-16,-1,0,-1,8
1501880077952756,-8,1,23,2,-5,-4,-1,-8
1501880077961756,-5,0,-23,-29,-2,1,1,-6
1501880077961756,13,4,13,44,18,4,-1,-1
1501880077983757,-1,2,6,-21,-18,-1,-4,-10
1501880077983757,-5,-17,-48,17,2,-6,-6,14
1501880077985758,-19,-4,-6,-53,-12,-10,-2,2
1501880077985758,7,3,1,10,-1,1,-1,-3
1501880077991760,-2,2,17,5,9,0,-3,-31
1501880077991760,1,1,-16,-3,2,3,7,-24
1501880077992760,-9,-3,8,-23,-4,0,6,8
1501880077992760,-1,-5,-12,19,2,-1,-8,12
1501880078013759,-6,-1,1,-25,2,0,3,19
1501880078013759,-5,-3,6,-14,-7,-3,-3,-14
1501880078015760,6,7,10,42,7,3,0,-8
1501880078015760,7,-9,-15,-34,-6,-7,-3,-1
1501880078036760,1,-5,-16,10,3,-2,-7,-7
1501880078036760,1,0,14,-5,-2,-2,3,-3
1501880078038759,3,2,4,2,2,0,0,7
1501880078038759,0,1,20,15,1,0,0,5
1501880078050762,-13,-12,-33,-13,-3,1,-3,-11
1501880078050762,3,4,14,14,1,-1,0,-9
1501880078057761,3,2,3,-4,7,1,1,10
1501880078057761,-2,-4,6,34,-9,-6,-2,-6
1501880078073761,-1,-1,-4,-14,3,-3,-2,1
1501880078073761,-5,2,5,-11,-1,0,-1,-1
1501880078075763,1,-2,0,-13,-8,-5,-3,-3
1501880078075763,3,-1,-3,1,-2,1,0,-2
1501880078095768,-2,0,-3,8,1,2,2,-3
1501880078095768,-1,1,7,49,7,-2,-4,15
1501880078096766,0,0,5,-42,-9,-2,-2,-6
1501880078096766,5,0,-19,-24,-3,1,0,2
1501880078109781,1,0,6,-13,-3,-3,1,6
1501880078109781,7,0,3,21,-4,1,-6,19
1501880078118766,-21,-1,1,13,4,-3,-4,-36
1501880078118766,4,-1,-2,12,1,2,2,2
1501880078133770,5,1,20,17,-1,0,-1,3
1501880078133770,-4,-6,-34,-54,-2,1,8,0
1501880078133770,18,-1,6,13,-3,-3,-14,7
1501880078133770,-6,-1,-2,-15,2,1,1,1
1501880078155768,-7,2,12,18,1,-1,1,-3
1501880078155768,-9,-3,-2,-33,-6,-2,-5,-9
1501880078156767,0,0,11,5,1,2,2,-1
1501880078156767,-1,-1,-8,-4,-1,-3,0,-6
1501880078178782,3,0,-11,-32,-2,2,-1,7
1501880078178782,-2,2,0,-5,-1,2,0,-4
1501880078179769,6,0,10,57,8,-3,0,6
1501880078179769,-1,-2,-4,-34,-5,-7,-5,9
1501880078193768,-3,-1,-9,-3,4,4,4,-6
1501880078193768,-11,0,2,1,-2,3,2,-21
1501880078193768,1,0,7,-32,-2,-2,-4,5
1501880078193768,19,-3,-17,41,-3,-4,-3,13
1501880078215769,-7,-2,3,9,-2,-3,11,3
1501880078215769,-5,-1,-2,-14,-1,-1,2,-14
1501880078216771,22,0,-6,-23,-3,0,1,12
1501880078216771,-7,0,3,46,6,2,-1,-10
1501880078229775,7,1,-3,-39,-10,-3,-5,22
1501880078229775,-11,-3,14,10,-4,-4,3,-2
1501880078238770,9,-1,-24,-17,0,1,3,-6
1501880078238770,-32,2,13,15,0,-3,-4,-41
1501880078253774,20,-2,-6,5,2,3,0,24
1501880078253774,1,-4,-17,-13,-1,-2,-10,-3
1501880078253774,-20,-1,-6,-3,-3,-3,3,-15
1501880078253774,13,-1,5,20,1,0,4,19
1501880078275787,-10,-3,-11,-63,-9,-3,-4,-10
1501880078275787,1,4,20,72,4,2,0,1
1501880078276774,-10,-8,-10,-20,-5,-2,-3,-13
1501880078276774,3,1,-6,-14,-3,-1,-2,2
1501880078298776,-5,-2,1,-16,3,-7,0,-11
1501880078298776,4,2,12,34,3,1,-3,-1
1501880078299774,2,3,4,-14,-3,2,-3,7
1501880078299774,-7,-3,6,-8,1,0,-2,-25
1501880078313775,-2,-1,-17,32,6,0,-7,4
1501880078313775,17,-7,-12,-16,-6,-6,6,34
1501880078313775,6,7,13,27,-2,4,4,-2
1501880078313775,27,1,8,-93,-8,-1,0,58
1501880078335779,-4,-13,-9,82,1,-3,-4,-28
1501880078335779,-2,-1,-11,-14,1,-2,-4,15
1501880078336776,-46,-6,1,-6,-4,-4,-6,-25
1501880078336776,17,4,14,26,1,4,2,22
1501880078349778,9,1,3,-12,1,3,1,11
1501880078349778,-8,1,11,-13,-3,0,-3,-7
1501880078358784,12,1,-1,-9,-1,-1,2,12
1501880078358784,-11,-8,-20,12,-3,-3,-3,-14
1501880078373780,-10,1,5,6,-3,-5,-1,-8
1501880078373780,-3,-4,-18,-24,1,1,-2,-7
1501880078374786,-2,7,6,40,13,4,-2,-12
1501880078374786,1,-5,0,-74,-15,-3,-2,-5
1501880078395781,-7,7,36,0,3,2,-6,-17
1501880078395781,7,-11,-18,-36,-8,-4,7,9
1501880078396782,22,-5,-13,52,1,-5,1,24
1501880078396782,-52,-3,-2,26,4,4,-4,-84
1501880078409782,17,3,12,-13,-2,-2,1,32
1501880078409782,-2,8,-8,-23,1,0,-6,-13
1501880078418783,-3,-4,6,10,0,-1,2,8
1501880078418783,-1,-4,-17,-19,3,0,-1,11
1501880078433783,-4,-2,-2,-1,-3,-3,-5,-11
1501880078433783,-7,-1,6,28,2,-2,-2,-12
1501880078434787,4,-4,-4,-1,-2,2,1,7
1501880078434787,1,2,-1,22,3,0,-2,-4
1501880078455786,-2,-6,-25,-12,-5,-1,1,-3
1501880078455786,15,1,9,-3,-2,-2,-4,32
1501880078456784,-6,-1,-3,-3,1,0,-1,-14
1501880078456784,3,2,9,1,-1,1,1,13
1501880078469786,-5,-3,-7,-11,-5,-2,4,-5
1501880078469786,-3,-1,-7,4,0,-5,-3,-4
1501880078478784,-3,0,3,19,-5,-1,0,0
1501880078478784,2,-4,-12,-19,-6,1,3,3
1501880078492787,1,2,14,37,4,-2,-3,6
1501880078492787,-9,2,0,17,9,3,-4,-24
1501880078500786,7,0,4,-42,-10,-5,6,28
1501880078500786,8,-2,-16,-2,-5,-5,0,8
1501880078515787,-3,3,-2,-9,3,5,-1,-7
1501880078515787,-4,-7,0,9,-3,-1,-2,-6
1501880078516787,-9,0,6,4,-1,-3,-3,-11
1501880078516787,0,1,-9,7,2,-1,-3,30
1501880078529794,-5,-4,-15,-28,-6,-1,-2,-9
1501880078529794,-2,2,0,0,1,3,3,-3
1501880078538788,-4,-3,-5,-6,-1,0,-3,-8
1501880078538788,0,-1,1,1,1,-1,1,4
1501880078553789,-3,1,7,8,1,-1,-1,-6
1501880078553789,-2,-3,6,-6,-3,-4,-4,0
1501880078553789,-1,-2,-4,-4,-4,1,-2,-1
1501880078553789,2,2,7,8,4,4,1,-4
1501880078575804,0,-2,-8,5,0,2,2,0
1501880078575804,-1,-1,0,-13,-5,-3,0,-5
1501880078576791,-1,-1,-7,-7,-3,-5,-1,0
1501880078576791,0,1,4,13,3,-1,-1,-6
1501880078589793,-2,-3,-2,0,-1,-1,0,-3
1501880078589793,-1,1,-1,-10,-9,-5,0,1
1501880078598791,-2,-2,-1,-9,8,0,-4,-4
1501880078598791,-1,-1,6,6,-2,-1,1,-3
1501880078613800,0,-2,-5,2,0,2,1,0
1501880078613800,0,1,2,-9,-1,0,0,0
1501880078613800,-2,-2,-2,-4,-4,-1,-1,0
1501880078613800,-2,-1,0,4,-5,-6,-1,-6
1501880078636797,0,-3,-5,-6,0,-1,-3,-1
1501880078636797,-1,-1,0,0,-1,3,1,0
1501880078637794,-1,0,0,2,1,1,0,-1
1501880078637794,0,0,1,2,-1,1,0,-1
1501880078649795,-3,-1,0,2,-2,-5,-2,-2
1501880078649795,-2,1,1,-3,-1,-1,-1,-1
1501880078658796,0,-3,-4,-5,-4,-2,-3,-2
1501880078658796,0,-2,-3,-4,0,-2,0,-1
1501880078673796,-1,-1,-3,3,-3,-3,-2,-1
1501880078673796,0,0,1,0,0,2,0,-1
1501880078673796,-1,0,-2,-7,1,3,1,-2
1501880078673796,-1,-3,1,3,0,-1,-2,-2
1501880078695797,0,-1,-1,0,-2,0,0,-1
1501880078695797,-1,-1,0,0,4,1,-2,-1
1501880078696800,-2,-2,-1,-1,0,-2,-1,-1
1501880078696800,-2,-1,1,0,-1,-1,-2,-3
1501880078709814,-1,-1,-2,0,-4,-2,0,0
1501880078709814,-2,-1,-1,-4,-3,-2,-3,-1
1501880078718802,0,-2,-3,-2,-3,-2,-2,0
1501880078718802,-1,0,-1,0,0,-3,1,-3
1501880078732820,0,0,0,-1,1,3,0,0
1501880078732820,-1,0,-1,3,-1,0,-1,0
1501880078733802,-1,0,-1,-3,-1,-1,0,0
1501880078733802,-1,-2,-1,-2,-2,-3,-3,-1
1501880078755801,0,-1,-2,-2,-3,-3,-4,-3
1501880078755801,0,-3,-1,-1,-2,-1,0,0
1501880078756801,0,-1,-2,-3,0,-1,-2,-2
1501880078756801,-2,-1,0,-3,0,-3,-1,0
1501880078778818,-1,0,-2,0,2,0,1,0
1501880078778818,1,1,0,-1,0,-2,-4,-4
1501880078779804,-1,-2,-2,-1,0,3,3,3
1501880078779804,-1,1,-1,1,-5,-2,-4,-2
1501880078793804,0,-2,-1,-1,0,1,2,2
1501880078793804,0,0,0,1,2,2,1,0
1501880078793804,-3,-1,0,-1,-3,-4,-3,-3
1501880078793804,0,0,0,0,1,-2,-2,-1
1501880078815812,-2,-1,-2,-1,-2,-2,-1,-2
1501880078815812,-1,0,-1,-1,-1,-2,-1,-3
1501880078816805,0,-1,-1,0,0,-1,2,-1
1501880078816805,0,-1,-3,-1,-1,0,-1,-1
1501880078838807,-2,0,-1,-1,-1,0,0,-1
1501880078838807,-1,-2,-1,1,0,-1,-1,1
1501880078839807,-2,1,-1,-1,-1,-1,-1,0
1501880078839807,-1,-3,-1,-2,-1,-5,-4,-3
1501880078853808,0,-1,-2,-1,-1,-1,0,0
1501880078853808,0,-1,-1,-2,0,-1,1,0
1501880078853808,-1,-1,0,-1,0,2,0,-1
1501880078853808,1,1,-1,-2,0,1,-1,-2
1501880078875822,-1,-1,0,-1,-2,-1,-1,-1
1501880078875822,-1,-2,-2,0,-1,0,-1,0
1501880078876811,0,0,-4,-2,-3,-4,-5,-3
1501880078876811,-1,-1,2,1,2,0,0,1
1501880078897811,-2,-1,-2,1,2,2,-1,-1
1501880078897811,-1,-2,-2,1,-1,-1,-1,2
1501880078898810,-1,-1,3,-1,-1,-1,-1,0
1501880078898810,-1,-1,-2,-1,-3,1,-2,0
1501880078912812,-2,-2,-1,-1,-2,-3,-3,-1
1501880078912812,-2,0,-2,-2,-3,0,0,-3
1501880078913814,1,-1,-1,-1,-3,0,-1,0
1501880078913814,0,-1,-2,-1,-1,-1,-2,0
1501880078935814,-1,0,-2,0,-2,-3,-1,-2
1501880078935814,-3,0,-1,-1,1,-1,-1,0
1501880078936812,-1,-2,-1,-2,0,-1,-4,-2
1501880078936812,0,1,-2,-1,0,-1,0,-1
1501880078957814,-1,-1,0,1,0,4,2,-2
1501880078957814,-3,-1,0,-1,-5,-2,0,-3
1501880078958814,0,0,-2,0,0,0,-4,-2
1501880078958814,-1,-2,0,0,1,3,4,2
1501880078973814,-1,-1,-1,-3,-3,-6,-4,-2
1501880078973814,-1,-1,-1,-2,-1,0,-2,1
1501880078973814,0,-1,0,-1,-2,-1,-1,-1
1501880078973814,-2,-2,-2,-2,-2,-2,-1,-1
1501880078995815,0,-1,0,0,-1,-1,-1,1
1501880078995815,-1,0,1,-2,0,1,0,0
1501880078996820,-1,0,-2,-1,-2,-2,-1,-1
1501880078996820,-1,0,-1,0,1,1,2,-3
1501880079018819,-1,-1,-1,-1,-2,0,-2,-2
1501880079018819,0,-1,-2,-1,-1,-3,-1,-3
1501880079018819,-2,-1,-1,0,-2,-2,0,0
1501880079018819,0,0,0,-1,-2,-2,0,-1
1501880079032834,-2,-2,-1,0,-1,0,-2,0
1501880079032834,0,-2,-1,-2,0,-6,-2,-3
1501880079033818,0,-1,-1,-1,0,4,2,0
1501880079033818,-1,-1,0,0,-2,-1,-1,-3
1501880079055820,0,-2,-3,-1,-2,-3,0,0
1501880079055820,0,-1,-1,-1,-3,-1,-2,0
1501880079056819,-2,-2,0,-1,0,-1,-2,-2
1501880079056819,-1,-1,1,1,1,-1,-2,-1
1501880079078820,-1,-1,0,0,-1,1,1,0
1501880079078820,-1,-2,0,-1,0,1,-1,-1
1501880079079821,0,-1,-1,-2,-3,-2,0,0
1501880079079821,0,-1,-1,-2,-3,0,1,-1
1501880079092823,-1,1,1,-1,-2,-2,-2,-2
1501880079092823,-1,-1,0,-1,-1,-2,0,-1
1501880079093823,0,-2,-1,-1,0,-1,-1,-2
1501880079093823,0,0,-1,0,1,-1,-3,0
1501880079115833,0,-2,-1,0,0,-2,-3,-1
1501880079115833,-1,-1,0,-2,-4,-2,0,1
1501880079116823,0,-1,-1,0,0,-1,-1,-2
1501880079116823,-3,-2,-2,-2,-1,-3,-2,1
1501880079137825,-2,0,-3,-1,-2,-2,-1,-3
1501880079137825,-2,-2,-2,-3,-3,0,0,0
1501880079138823,-2,0,-1,0,-2,-2,-1,-1
1501880079138823,-1,1,0,2,1,2,3,1
1501880079153828,-1,-2,0,1,0,-1,-1,-1
1501880079153828,0,-1,-1,2,2,0,-2,-1
1501880079153828,1,1,-1,-2,-1,-1,1,-1
1501880079153828,0,-2,-1,-3,-7,-5,-5,-3
1501880079175842,-1,-1,-1,-3,0,3,2,-1
1501880079175842,1,0,-2,0,0,2,-1,-1
1501880079176828,-2,-2,0,-1,0,1,-1,0
1501880079176828,0,-1,-2,-2,-1,-3,-1,-1
1501880079197828,0,-1,-2,-2,-5,-3,-1,-1
1501880079197828,-1,-1,-1,-3,-3,-1,-1,-1
1501880079198828,0,-1,-1,-1,-1,-3,-4,-2
1501880079198828,-1,-1,-1,-1,4,3,1,0
1501880079213833,-2,-1,0,-3,0,-1,-2,-2
1501880079213833,-1,-1,-2,2,0,1,-1,-1
1501880079213833,-1,-1,3,-1,0,-1,-3,-1
1501880079213833,-1,-2,-1,-2,-3,-3,-2,-1
1501880079235831,1,-1,-1,-2,-1,-4,-2,0
1501880079235831,-3,-1,-3,-2,-1,0,-1,-2
1501880079236831,-1,-3,-2,-2,-1,-3,-1,-2
1501880079236831,-1,-1,-2,-4,-1,1,2,0
