timestamp,emg1,emg2,emg3,emg4,emg5,emg6,emg7,emg8
1501927671735077,1,-4,-38,-52,-17,-8,-7,0
1501927671735077,-21,-8,-5,-25,-10,-4,-9,-31
1501927671736082,2,10,11,38,6,4,9,3
1501927671736082,0,14,63,82,21,2,3,-1
1501927671736082,-6,-22,-69,35,-14,-5,-16,-5
1501927671736082,-3,-2,-3,-39,-9,-2,2,2
1501927671737079,23,13,56,4,29,7,-6,33
1501927671737079,10,-21,-77,-69,-16,-9,2,-2
1501927671748086,6,1,5,91,-11,-14,2,-1
1501927671748086,-1,6,-9,-63,18,12,4,2
1501927671756078,9,-9,-21,23,-5,-2,-1,10
1501927671756078,-21,-13,-30,-87,-8,-14,-16,-14
1501927671763078,35,7,34,17,4,1,6,10
1501927671763078,-1,-4,1,127,11,0,-7,7
1501927671778104,-2,1,-13,7,-10,-2,2,-7
1501927671778104,-7,11,0,-50,2,9,9,-6
1501927671787121,-1,27,110,81,67,23,11,12
1501927671787121,-1,-20,-39,24,-31,-24,-19,-16
1501927671801114,-3,-5,-6,-29,-24,-9,3,10
1501927671801114,-1,-7,-2,-4,-9,-4,-8,-5
1501927671808145,0,9,29,-33,16,8,2,9
1501927671808145,-18,4,-7,25,0,10,16,-3
1501927671822148,10,-6,-9,-25,-4,-2,-8,17
1501927671822148,3,10,33,-45,5,1,1,2
1501927671863100,1,-3,-24,-42,-10,-7,-7,9
1501927671863100,-14,-13,-26,-1,-20,-7,0,-4
1501927671864091,-6,-5,-7,96,8,0,-9,-11
1501927671864091,-10,6,24,-72,-21,-4,6,-31
1501927671865085,-2,-5,-47,33,1,1,-14,-16
1501927671865085,6,8,44,-43,14,8,18,25
1501927671868135,-20,-8,-19,15,0,-9,-2,1
1501927671868135,34,7,-11,-14,7,6,-9,25
1501927671875096,-18,8,62,111,11,6,17,-6
1501927671875096,-4,-1,-22,-73,-3,-3,-10,-12
1501927671883131,8,9,19,76,17,4,-3,4
1501927671883131,3,-7,15,101,4,-5,-3,-1
1501927671890154,14,7,19,28,15,10,11,11
1501927671890154,-5,-9,-23,127,-3,-9,-11,-11
1501927671906148,-5,2,-11,-105,-16,0,6,-2
1501927671906148,-4,-5,-4,-25,-10,-12,-14,-1
1501927671912148,14,3,-19,-68,5,15,9,5
1501927671912148,-1,-5,-13,43,1,-2,0,7
1501927671936128,2,-8,-27,-117,-16,-5,-6,-20
1501927671936128,13,4,2,62,7,-3,4,21
1501927671938090,-13,-10,-14,-108,-30,-9,-1,6
1501927671938090,1,5,20,25,17,2,-6,-11
1501927671951129,7,-1,17,12,-2,-3,2,12
1501927671951129,35,0,-15,-15,9,4,-11,19
1501927671957091,-44,1,14,52,15,0,13,-29
1501927671957091,-25,-4,-17,-6,7,-4,-2,8
1501927671974094,2,-4,18,-6,-22,1,-3,1
1501927671974094,-16,-2,8,-63,-8,-2,7,-9
1501927671975091,16,-3,-3,-39,-5,-9,-14,12
1501927671975091,-2,-8,-31,96,-15,-9,-21,-20
1501927671996128,-5,-5,15,6,-1,3,14,2
1501927671996128,-1,5,10,2,5,8,1,-1
1501927671998095,8,10,37,49,21,-4,-7,-2
1501927671998095,13,-10,-20,-9,-21,-15,3,18
1501927672011102,36,9,13,-34,13,24,6,50
1501927672011102,-31,-2,-31,-79,4,2,5,-15
1501927672017095,0,-6,1,19,-3,-14,-8,-3
1501927672017095,-2,-4,0,41,11,14,10,-3
1501927672034110,-2,-2,-12,5,-26,-14,-11,-12
1501927672034110,-4,12,39,-35,19,11,4,7
1501927672035096,4,-16,-57,1,-25,-8,-2,10
1501927672035096,10,9,26,-56,2,-3,-24,-14
1501927672057135,-16,-1,15,111,23,1,24,-15
1501927672057135,-14,-7,-38,-67,-16,-6,-11,-13
1501927672059099,12,10,31,-54,9,7,8,4
1501927672059099,-33,-11,-41,-110,-20,-2,-2,-36
1501927672071108,0,4,20,2,17,1,-12,-3
1501927672071108,-14,4,9,74,6,3,3,-13
1501927672077107,10,-1,-26,94,1,-1,-1,-1
1501927672077107,13,6,50,49,-3,1,3,13
1501927672094131,-1,6,-18,-59,-1,3,3,13
1501927672094131,-12,-9,-45,-38,-7,-3,2,-14
1501927672095098,-2,-4,25,90,24,-1,-4,-3
1501927672095098,12,13,29,-106,-29,-6,3,6
1501927672116141,-10,-8,-14,65,3,-21,-19,-6
1501927672116141,1,-1,7,-34,4,18,12,-33
1501927672118125,-17,-2,7,58,-4,0,-3,-2
1501927672118125,9,3,-13,20,9,4,6,13
1501927672131120,23,-1,-12,-50,-12,-13,-14,-2
1501927672131120,-30,-2,-11,73,10,-2,4,-15
1501927672137163,-1,-7,-1,-77,-19,-7,3,2
1501927672137163,-2,4,17,-51,-6,10,5,-6
1501927672154147,-13,9,-12,-84,-1,8,4,-11
1501927672154147,7,-9,23,127,25,-8,-3,17
1501927672155104,4,-7,-1,-13,-33,-8,-13,-15
1501927672155104,-2,2,4,-5,18,-2,2,-1
1501927672176111,-3,-6,-48,14,8,2,-4,-1
1501927672176111,10,3,36,-45,-22,-3,-1,18
1501927672178114,-5,-4,-7,-37,5,-1,-4,-7
1501927672178114,3,-2,-33,-56,10,9,-4,4
1501927672190174,21,-1,37,78,-12,-2,10,22
1501927672190174,-25,-8,-7,-48,-12,-11,-9,-37
1501927672199105,5,8,4,-40,9,-2,-4,-5
1501927672199105,-6,-4,1,104,25,7,5,-2
1501927672214145,9,-7,-12,-23,-33,-4,-3,-1
1501927672214145,7,2,4,127,3,-3,-3,24
1501927672215118,3,3,7,-55,0,1,-2,1
1501927672215118,0,3,2,47,3,-1,2,8
1501927672236147,-2,3,21,-43,2,-2,-1,-10
1501927672236147,18,-8,-21,64,-2,-5,-2,8
1501927672238150,-1,1,-16,-18,-9,-1,-6,-11
1501927672238150,4,5,43,110,16,2,8,14
1501927672250168,-14,-11,-48,-3,-25,-3,-6,-9
1501927672250168,36,-3,-19,-128,-31,-6,-2,58
1501927672259108,-28,3,-8,35,18,6,2,-13
1501927672259108,2,-6,-15,-112,-48,-13,-8,0
1501927672274148,-10,2,34,107,29,6,8,-6
1501927672274148,1,-2,-7,44,8,-2,0,5
1501927672280173,8,-7,-29,13,-9,-3,-6,6
1501927672280173,13,3,7,-28,10,0,7,-9
1501927672296152,-28,-5,-14,-65,-2,5,-4,6
1501927672296152,3,0,13,118,1,1,4,4
1501927672298110,-9,-1,-4,-91,-13,2,-3,-13
1501927672298110,-5,5,33,97,7,-5,-7,-22
1501927672310183,3,-6,-55,52,7,-4,-5,-6
1501927672310183,1,0,18,58,15,0,1,-5
1501927672319124,0,1,0,75,-7,3,10,11
1501927672319124,0,-3,-6,-34,-2,4,1,8
1501927672334150,3,14,57,56,-16,1,5,1
1501927672334150,-12,-12,-79,-128,-21,-7,-9,-16
1501927672335127,3,-2,54,70,6,-2,-2,3
1501927672335127,-11,-7,4,6,-5,-6,-3,-7
1501927672356188,16,7,60,87,31,6,0,12
1501927672356188,-14,0,-58,-80,-43,-10,-4,-19
1501927672358114,5,-7,4,-86,-15,-4,-4,3
1501927672358114,3,-5,-40,-31,-4,7,3,7
1501927672370159,-11,-4,15,32,9,-4,-6,-14
1501927672370159,-3,6,54,93,24,2,-1,-5
1501927672379125,-1,-7,-24,-15,-22,-7,0,7
1501927672379125,-3,7,17,39,15,-3,-4,-5
1501927672394180,2,-7,-19,-16,4,3,2,-6
1501927672394180,-4,-5,1,-79,-14,-4,-3,2
1501927672395118,-2,-2,-14,35,7,7,3,3
1501927672395118,34,5,20,22,7,9,8,35
1501927672416183,-16,0,-50,-103,2,-4,-9,-27
1501927672416183,-18,-3,8,65,-1,-1,8,0
1501927672418153,-3,-6,-19,16,-8,-7,-6,-8
1501927672418153,1,-3,-7,-28,-1,-6,-4,11
1501927672430123,5,-4,-29,-36,-10,1,-2,0
1501927672430123,15,11,46,40,3,-2,1,1
1501927672439132,-6,-4,-72,-26,10,7,-3,-2
1501927672439132,-21,-1,24,-12,-8,-6,1,-19
1501927672454188,19,4,4,-35,0,2,-1,34
1501927672454188,-26,-1,24,78,8,0,-2,-58
1501927672455121,9,5,25,76,-7,-6,-2,7
1501927672455121,-3,-5,-50,-17,-11,1,-10,-20
1501927672476160,-11,-5,8,-80,-17,-7,6,-1
1501927672476160,5,1,-2,-64,14,6,1,17
1501927672478122,10,6,20,-21,9,3,0,9
1501927672478122,-17,-8,-21,39,-12,-4,-4,-19
1501927672490120,9,-2,7,53,5,-3,0,7
1501927672490120,-6,-11,-30,-70,-36,-12,-10,-5
1501927672499129,-3,0,-7,-51,-3,6,7,0
1501927672499129,7,5,16,-48,-10,-3,-5,4
1501927672514165,6,7,31,71,23,5,8,10
1501927672514165,-4,-10,-57,53,20,3,-12,-5
1501927672515124,0,3,2,-78,-23,-7,1,-10
1501927672515124,-6,-5,-19,-76,2,2,-4,-9
1501927672536157,1,4,29,-40,-6,0,13,10
1501927672536157,-1,7,5,73,21,2,7,-1
1501927672538128,3,2,29,-58,-1,-1,-2,7
1501927672538128,-3,3,23,127,17,1,4,5
1501927672550124,-15,-17,-47,-4,-13,-7,-12,-30
1501927672550124,18,0,14,-69,-2,0,-6,20
1501927672559127,-3,0,-12,11,8,2,4,1
1501927672559127,6,8,23,0,10,-2,-1,-1
1501927672574127,-9,-2,19,58,-2,1,-4,-13
1501927672574127,9,2,23,11,-2,6,3,35
1501927672575128,-4,-3,-9,-10,-10,-4,-3,2
1501927672575128,-9,-4,-11,39,3,-3,1,-21
1501927672596161,-5,-8,-37,-27,-11,-3,-7,-2
1501927672596161,3,9,22,1,15,2,3,5
1501927672598130,2,4,7,-41,20,5,0,4
1501927672598130,3,-6,-2,34,-4,-1,2,6
1501927672619162,-9,-4,1,-121,-15,-8,-6,-3
1501927672619162,-14,-4,5,21,-10,-13,-27,-23
1501927672620130,17,-7,-20,122,16,9,19,22
1501927672620130,-37,-4,-23,-117,-25,-5,-3,-39
1501927672634129,-10,4,-12,75,20,5,1,-7
1501927672634129,3,3,-4,-38,1,0,6,1
1501927672635129,-12,-7,-28,82,-11,-9,-12,-23
1501927672635129,20,-6,12,-37,-13,-7,-4,38
1501927672656143,2,0,-5,-22,-6,4,-5,-10
1501927672656143,-5,-2,-14,-82,-11,0,6,0
1501927672658132,-4,2,28,37,11,2,0,-2
1501927672658132,7,4,1,95,22,9,5,4
1501927672679170,10,-3,-13,-83,-36,-17,-8,10
1501927672679170,-10,-7,19,108,3,-4,-4,-20
1501927672680133,-5,5,29,31,23,3,11,7
1501927672680133,-11,-8,-21,-12,-12,1,-4,6
1501927672694166,7,12,47,53,25,3,6,4
1501927672694166,-4,-13,-28,57,-12,-5,-6,-13
1501927672695134,-5,1,4,-66,-11,-8,-5,-22
1501927672695134,8,7,9,-13,5,4,2,11
1501927672716168,-4,-13,-26,-36,-5,-4,-6,-9
1501927672716168,-6,8,5,4,12,17,12,-3
1501927672718136,-4,-6,-23,-64,4,-6,-10,2
1501927672718136,17,-1,11,-6,2,-8,2,-2
1501927672739169,-28,-3,-18,106,7,6,1,3
1501927672739169,5,1,2,-59,-5,-4,-6,6
1501927672740136,5,1,-2,2,3,2,8,1
1501927672740136,-11,7,6,-49,23,10,-2,-7
1501927672754138,12,-7,16,-21,-25,-16,2,10
1501927672754138,-6,3,6,22,0,2,-1,-29
1501927672755137,-16,-1,-5,43,-11,-1,-7,-12
1501927672755137,11,0,35,70,0,-2,-4,6
1501927672776196,-3,1,-15,0,1,7,6,-11
1501927672776196,-6,-4,3,-31,-7,-4,0,14
1501927672778139,8,4,15,58,5,5,-4,-1
1501927672778139,-8,-12,-14,-37,-18,-7,-3,-9
1501927672799180,4,2,12,48,15,3,-1,4
1501927672799180,0,-4,4,29,-7,-11,0,2
1501927672801141,9,6,4,-94,-6,2,-3,6
1501927672801141,-14,-3,-21,64,-4,-3,0,-7
1501927672813141,-2,2,16,-29,3,0,-1,-6
1501927672813141,10,-1,-17,-66,-2,-3,1,5
1501927672820151,2,0,41,-29,-1,-1,-6,6
1501927672820151,3,1,1,36,10,3,8,2
1501927672835175,-1,4,4,-35,-10,0,-2,-3
1501927672835175,-3,-8,-35,-86,8,0,-1,2
1501927672844151,5,-1,1,1,-3,-2,1,1
1501927672844151,-3,1,-17,-31,7,1,-2,0
1501927672859143,2,1,30,127,14,-14,-4,2
1501927672859143,14,0,-23,-1,-5,9,6,27
1501927672860144,-24,-7,-3,-2,-10,5,-1,-38
1501927672860144,7,-6,-3,-11,-1,-3,-4,13
1501927672881185,3,8,22,1,11,2,3,0
1501927672881185,2,-5,-19,125,-4,-9,-6,6
1501927672883146,19,-1,3,61,27,-1,-5,28
1501927672883146,-25,0,1,-100,-21,-8,3,-27
1501927672895187,4,7,-4,-73,18,18,5,1
1501927672895187,-1,-3,0,1,-13,-4,-1,-2
1501927672904145,-1,6,29,105,26,4,-1,-2
1501927672904145,-1,-12,-70,-58,-32,-12,-12,-4
1501927672919183,-7,-6,0,16,-7,-7,-4,-10
1501927672919183,1,10,22,-7,16,14,11,2
1501927672920147,-4,-6,-4,-72,-8,-4,-3,-4
1501927672920147,5,1,3,-7,-20,-7,-3,8
1501927672941158,-1,-4,-9,106,-2,13,1,-1
1501927672941158,6,0,2,-82,-10,0,10,2
1501927672943148,-26,-3,-29,71,-15,-4,-4,-20
1501927672943148,-4,-14,-10,92,-17,-15,-10,3
1501927672963190,3,2,-11,32,11,-3,-1,4
1501927672963190,0,0,10,-91,0,-2,-4,-6
1501927672964151,3,-2,-6,46,-8,0,-2,6
1501927672964151,6,10,21,-20,24,5,4,0
1501927672978190,-10,-9,-20,61,-11,1,-1,-10
1501927672978190,12,-2,7,-10,11,-1,-1,5
1501927672979151,-4,3,-26,-128,-11,1,5,6
1501927672979151,-5,1,17,63,10,-1,-6,-9
1501927673001158,1,2,14,-42,-11,-9,-2,3
1501927673001158,2,4,21,-42,5,5,-1,7
1501927673001158,14,-3,-21,6,14,0,6,7
1501927673001158,-2,-3,-24,-56,-47,0,-1,-1
1501927673023196,-11,-6,-15,40,9,1,-2,-10
1501927673023196,5,-1,21,55,-12,-10,-3,10
1501927673024154,-7,-8,-2,17,-6,-10,-9,-14
1501927673024154,8,10,28,17,27,10,7,9
1501927673038166,6,-1,-16,-60,-1,-3,-9,10
1501927673038166,-6,-9,-9,43,-6,-2,6,-9
1501927673039152,-7,-1,12,-11,-24,-5,-4,-14
1501927673039152,13,10,18,-54,27,9,6,4
1501927673061154,-20,-2,2,8,1,-3,-5,-14
1501927673061154,-12,-1,-3,20,16,-2,-7,-12
1501927673061154,19,-2,-6,-35,-15,-11,-7,19
1501927673061154,-5,1,-5,-13,13,7,8,5
1501927673083157,8,-5,-34,-65,-16,-4,-2,0
1501927673083157,-17,-1,-5,37,-1,7,4,-20
1501927673084158,16,1,27,-15,-3,-4,-7,27
1501927673084158,0,-7,-40,115,10,-2,-2,-3
1501927673098163,8,1,19,-70,-5,-1,-2,14
1501927673098163,-5,-7,-16,52,-30,-7,-2,-6
1501927673099156,-6,-5,-9,-31,5,-7,-3,-13
1501927673099156,-9,5,18,55,7,1,-4,9
1501927673121165,-3,-9,-6,6,2,1,1,-3
1501927673121165,0,4,3,-12,-2,-3,-4,2
1501927673121165,-3,4,13,-1,8,6,0,-7
1501927673121165,-2,1,10,-5,-6,2,-2,-6
1501927673143230,9,0,-22,-12,14,-3,5,23
1501927673143230,-15,-8,2,-37,-18,-7,-11,-21
1501927673144159,-7,-8,-48,51,-8,-8,9,-2
1501927673144159,4,2,-1,4,-3,0,-4,0
1501927673158221,3,-1,12,-14,-7,-1,-1,7
1501927673158221,6,8,8,20,26,4,-1,5
1501927673159175,-4,-5,-21,1,-5,3,-1,-2
1501927673159175,4,-1,31,59,15,-6,5,-1
1501927673181172,-20,2,-36,21,-19,17,-3,-18
1501927673181172,-3,-3,8,-78,-10,-7,5,-6
1501927673181172,0,3,16,46,4,1,-4,2
1501927673181172,-2,-6,-15,-46,-4,-4,-2,-4
1501927673203195,8,2,3,-20,6,0,-1,0
1501927673203195,-3,-1,7,3,-3,0,0,4
1501927673204165,-3,2,4,75,8,7,2,-4
1501927673204165,0,-4,-18,-28,-12,-4,-6,0
1501927673218196,-6,-6,7,-19,-13,-11,2,-9
1501927673218196,4,3,-6,57,11,2,-2,9
1501927673219165,1,-1,5,-21,4,1,-1,0
1501927673219165,-2,-2,-2,73,3,2,-1,0
1501927673241167,-3,-2,-9,-33,-2,-3,1,-7
1501927673241167,11,1,12,-48,-25,-6,-2,11
1501927673241167,-6,-4,-19,-74,-15,-3,-2,-4
1501927673241167,-4,1,17,-37,-3,1,0,-9
1501927673263167,1,-5,-5,15,-4,0,-2,-1
1501927673263167,-2,6,23,70,19,4,4,-3
1501927673264168,1,2,11,-47,1,1,0,-3
1501927673264168,-4,-8,-9,-45,-19,-13,-8,1
1501927673278179,6,4,8,19,12,-2,-1,1
1501927673278179,1,-6,-18,-29,2,5,4,18
1501927673279168,-4,8,9,68,9,-2,-1,-5
1501927673279168,7,0,4,-65,-16,8,7,8
1501927673301179,6,11,37,83,29,1,-9,0
1501927673301179,-5,-15,-11,-43,-27,-16,-8,-5
1501927673301179,6,0,9,15,0,-3,0,9
1501927673301179,-4,-4,-18,-28,2,0,4,1
1501927673323203,2,11,18,-33,11,5,2,-1
1501927673323203,0,2,10,42,0,3,-7,-2
1501927673324172,-1,-3,0,3,-3,-3,-2,-11
1501927673324172,-5,-1,-17,28,4,1,-3,-5
1501927673338180,0,-15,-39,-75,-27,-18,0,2
1501927673338180,-2,1,-24,-26,-2,11,3,-11
1501927673339171,-3,1,12,69,1,-1,2,-2
1501927673339171,-2,-2,-1,-67,-8,-9,-4,2
1501927673361171,-6,-4,-6,42,4,0,-1,-7
1501927673361171,1,4,0,-6,10,0,-3,-2
1501927673361171,0,3,18,-50,-2,2,1,2
1501927673361171,10,-4,-35,95,7,-2,3,9
1501927673383184,-10,1,27,52,-7,0,-4,-13
1501927673383184,-7,0,-2,20,7,-1,-4,-10
1501927673384175,4,4,18,-33,10,10,2,2
1501927673384175,0,-1,6,69,32,3,-12,-8
1501927673398174,-1,-6,-10,-47,-45,-12,14,4
1501927673398174,6,0,-6,44,0,-2,-2,11
1501927673399177,-8,-4,9,92,4,-3,2,-5
1501927673399177,-1,6,17,-62,5,5,4,0
1501927673421187,0,-2,-12,-16,0,-1,-14,-7
1501927673421187,1,8,28,-50,9,3,-1,-4
1501927673421187,2,1,-2,81,0,1,3,4
1501927673421187,-5,-13,-56,-58,-10,-3,-9,-10
1501927673443187,3,6,30,-47,-26,-5,7,4
1501927673443187,1,-6,-4,27,1,-5,-4,1
1501927673444179,-3,-3,-16,-9,-3,-22,-7,0
1501927673444179,0,4,19,89,9,26,10,-4
1501927673458191,-1,2,2,-3,15,1,-1,0
1501927673458191,4,-1,-1,-36,-2,-2,-3,0
1501927673459179,-6,-1,-4,51,4,-2,2,-2
1501927673459179,-6,-3,0,-23,-12,-10,-3,0
1501927673481191,6,3,11,58,13,5,5,5
1501927673481191,1,-6,6,94,8,-7,-2,10
1501927673481191,-2,-9,-28,-108,-34,-3,-6,-10
1501927673481191,7,2,10,40,-3,-4,3,5
1501927673503224,-9,0,-4,-72,-6,5,-5,-7
1501927673503224,4,2,-19,-20,5,2,2,4
1501927673504187,-5,-9,-18,-53,-9,-2,-3,-4
1501927673504187,5,6,39,74,6,-5,1,7
1501927673518214,-3,-10,-29,10,-13,-5,-5,4
1501927673518214,-10,2,18,-42,-3,-3,-4,-19
1501927673519183,10,-1,-11,-52,11,8,3,14
1501927673519183,-7,-1,-3,-84,-15,-3,0,-3
1501927673541194,-1,-2,-27,22,18,0,-1,-7
1501927673541194,-2,0,-7,-33,-1,-2,1,2
1501927673541194,-2,-2,-1,-6,-7,1,-3,4
1501927673541194,-7,-4,-17,2,6,-1,-2,-24
1501927673563216,-16,-2,22,52,-9,-5,-3,1
1501927673563216,-1,-1,-3,-54,-7,5,2,-14
1501927673564185,13,3,9,61,17,3,-2,26
1501927673564185,-6,-2,14,-69,-10,-1,-8,-8
1501927673578195,7,-3,-4,18,3,3,8,4
1501927673578195,-12,-1,-10,29,-3,-5,1,-16
1501927673579184,4,1,17,10,6,5,0,8
1501927673579184,0,0,-2,-18,-5,-7,-1,1
1501927673600195,1,-3,6,53,9,-2,-8,-4
1501927673600195,1,1,-40,44,2,6,5,5
1501927673601194,-10,-3,-7,9,-7,-11,-1,-14
1501927673601194,1,-1,-1,12,-1,0,-6,-1
1501927673623215,3,4,1,-30,2,-1,-2,3
1501927673623215,2,-1,-1,87,5,6,4,6
1501927673624192,-3,4,13,28,-10,-7,-7,-11
1501927673624192,-6,-9,-35,-87,-15,-2,3,1
1501927673638226,0,1,9,104,8,-3,0,-2
1501927673638226,-5,-8,-2,-4,0,-2,-3,-4
1501927673639190,6,6,0,7,13,8,5,0
1501927673639190,0,-6,-4,12,-24,-7,-8,4
1501927673660190,0,-2,-1,-20,9,-2,4,2
1501927673660190,-2,-5,-20,-20,-9,2,-5,3
1501927673661199,-4,1,15,36,2,-1,-1,-5
1501927673661199,-1,5,11,-11,3,-4,4,2
1501927673683200,5,-1,-12,-23,4,8,5,12
1501927673683200,0,-4,-5,-27,-7,-6,-8,-5
1501927673684194,-7,-7,0,-73,-27,-6,-5,-6
1501927673684194,12,5,19,65,11,2,4,5
1501927673698224,-22,-4,-17,-45,-3,-3,-1,-16
1501927673698224,8,5,10,20,9,3,-1,9
1501927673699191,-2,1,12,-5,12,5,7,-6
1501927673699191,-6,-1,-25,30,-9,-6,-4,-8
1501927673720193,8,-7,-9,-67,-9,-7,-9,2
1501927673720193,2,5,18,13,9,2,7,7
1501927673721193,-4,-9,-34,-87,-18,-6,-10,-21
1501927673721193,-8,-2,5,-42,2,-5,0,-4
1501927673743257,5,4,6,42,11,7,0,1
1501927673743257,-6,-4,-4,81,3,-2,0,-7
1501927673744196,11,4,-4,-21,-22,1,-1,13
1501927673744196,7,0,29,78,10,0,3,5
1501927673757194,-15,3,13,-19,-6,0,-3,-7
1501927673757194,7,-3,-4,-7,-8,-10,-2,2
1501927673766212,-4,1,7,96,15,4,2,2
1501927673766212,-2,-5,-8,90,13,1,-4,-4
1501927673780228,5,2,12,23,-38,-10,-9,2
1501927673780228,-3,3,7,-16,1,3,5,-1
1501927673781205,-8,-9,-9,72,5,1,0,-4
1501927673781205,1,1,1,-30,4,1,-2,-1
1501927673803230,0,-2,-3,75,15,0,6,-12
1501927673803230,-3,-3,10,24,-6,-9,0,3
1501927673804214,-5,2,2,-44,-2,8,-4,-14
1501927673804214,4,-4,1,-4,-3,-4,0,9
1501927673817234,3,-2,-18,-69,3,2,-4,4
1501927673817234,1,-4,-4,-85,-15,-7,-5,2
1501927673826198,-2,7,24,-25,12,-2,5,-1
1501927673826198,-8,-14,-40,73,-11,-4,-4,-6
1501927673841199,4,1,1,-6,-1,2,1,-2
1501927673841199,-1,3,2,11,6,1,-2,3
1501927673841199,-7,-4,25,-31,5,-4,-3,-6
1501927673841199,7,0,-12,-120,-10,-1,-2,9
1501927673863213,-1,-10,-17,53,-3,-8,-6,-4
1501927673863213,0,-1,1,13,3,1,1,-2
1501927673864202,-2,-2,-25,19,6,-8,-2,-9
1501927673864202,-3,10,38,42,4,21,4,-10
1501927673877235,7,1,-4,-64,-9,2,5,14
1501927673877235,-10,2,18,-41,-3,-2,-2,-27
1501927673886202,7,-3,-25,-21,1,-3,0,15
1501927673886202,2,-2,2,16,-8,-10,-8,1
1501927673901203,-12,2,25,62,15,4,5,-4
1501927673901203,-4,-5,-30,-8,7,6,-3,-3
1501927673901203,-4,-6,-16,-50,-21,-7,1,0
1501927673901203,4,3,-4,82,10,1,2,-2
1501927673923217,-2,-3,-5,-71,-12,-7,-6,-6
1501927673923217,0,-3,-8,15,2,-2,-2,1
1501927673924206,-2,0,-2,32,4,9,1,-1
1501927673924206,0,2,22,-100,4,4,4,4
1501927673937239,-2,-3,-17,1,13,0,3,-2
1501927673937239,0,-2,1,-16,-21,-8,-11,-2
1501927673946241,6,-1,-16,80,8,0,-1,1
1501927673946241,-10,-4,10,7,-11,2,-2,-4
1501927673960271,5,9,17,-36,-5,-1,1,3
1501927673960271,-4,-4,-13,-22,0,-2,1,-1
1501927673961209,-1,-1,3,-10,1,0,-1,0
1501927673961209,1,5,9,-8,12,-1,-1,1
1501927673983209,-4,-8,-4,-4,-10,-4,-1,-2
1501927673983209,2,3,7,41,2,5,2,2
1501927673984209,0,-1,-3,-47,-1,0,0,0
1501927673984209,-5,-1,1,75,9,-7,-3,-2
1501927673997208,5,0,-2,-84,-12,2,-2,4
1501927673997208,1,3,11,10,2,2,0,-3
1501927674005241,-6,-7,-18,-44,-7,-6,0,-4
1501927674005241,-2,-3,-2,-26,-7,-2,-1,-6
1501927674020208,3,0,8,50,10,5,3,5
1501927674020208,1,1,4,3,3,0,0,-6
1501927674021218,-4,4,43,36,0,-5,-5,-1
1501927674021218,-3,-5,-36,-45,-3,0,0,0
1501927674043244,3,0,7,12,3,-1,-2,-7
1501927674043244,0,-1,-14,8,-2,-1,-2,6
1501927674044220,-1,3,6,-48,11,-2,-1,-1
1501927674044220,-4,-6,-21,-78,-27,1,1,-5
1501927674057211,-1,3,-4,41,10,0,-2,-2
1501927674057211,-4,-6,7,65,-3,-8,-5,-1
1501927674073214,-2,-5,-31,-4,-5,-2,-3,0
1501927674073214,1,3,11,12,10,-2,1,2
1501927674080220,2,-1,4,22,5,2,-2,-1
1501927674080220,-2,2,-16,27,10,6,2,-1
1501927674081213,-1,-12,-25,-14,-27,-8,-5,-3
1501927674081213,0,3,10,37,4,2,4,0
1501927674103222,-2,-1,-1,50,3,-6,-4,1
1501927674103222,-1,-2,-25,-9,-2,-2,-3,-5
1501927674104217,3,2,18,24,2,6,1,2
1501927674104217,-2,0,-4,-12,2,1,1,0
1501927674126220,-3,3,10,-18,9,3,4,-1
1501927674126220,4,1,0,-7,2,3,2,8
1501927674127219,-8,-3,-13,-49,4,-8,-5,-5
1501927674127219,9,0,-2,-44,-10,-6,-2,6
1501927674140218,5,1,2,-14,2,0,-1,-9
1501927674140218,-13,0,0,-40,-8,-4,1,3
1501927674141217,-5,-3,-9,25,-4,4,2,-6
1501927674141217,2,-2,-2,20,6,-1,-2,5
1501927674163225,3,1,5,35,4,1,0,-1
1501927674163225,-2,-5,-14,-40,-5,-4,-1,-1
1501927674164219,1,-1,13,54,-2,-5,0,4
1501927674164219,-2,1,9,90,12,5,-12,-2
1501927674186226,1,-1,3,21,-6,3,6,3
1501927674186226,3,2,-24,-95,-7,2,3,0
1501927674187221,-10,-3,15,102,-3,-4,0,-7
1501927674187221,5,-4,-11,2,-12,-6,-3,7
1501927674201221,-6,-7,-15,73,5,-2,-5,-4
1501927674201221,1,0,25,-16,-4,0,0,-2
1501927674201221,8,6,2,-47,3,4,3,4
1501927674201221,-15,1,11,-26,-1,-2,1,-12
1501927674223223,-9,-5,-15,1,2,-3,-6,-7
1501927674223223,7,-2,-4,5,-15,4,5,6
1501927674224221,4,2,26,70,5,-2,-5,5
1501927674224221,-3,-6,-32,-35,-16,-6,0,-2
1501927674246224,1,-3,-9,-17,-8,-4,-2,5
1501927674246224,-7,-1,6,43,6,6,1,-7
1501927674247223,6,4,7,-25,-1,-1,-5,0
1501927674247223,2,0,-2,-16,10,2,2,-1
1501927674260234,-1,3,4,17,-1,1,-1,0
1501927674260234,-3,-6,5,-21,-7,-10,-8,-11
1501927674261236,1,4,-3,-43,8,8,9,1
1501927674261236,-4,-4,-17,-28,-1,-7,-4,-6
1501927674283234,0,2,3,-2,1,2,-3,3
1501927674283234,3,2,16,11,11,6,5,4
1501927674284227,5,-8,-37,47,-18,-7,-7,0
1501927674284227,-22,4,16,72,17,9,6,-9
1501927674306266,7,-1,16,41,-11,-10,-6,3
1501927674306266,0,-1,15,27,3,-6,-5,-3
1501927674307238,1,0,-12,-56,6,8,2,1
1501927674307238,0,-5,-3,-52,-28,-8,-3,-2
1501927674320239,-1,3,-3,-17,3,2,1,-2
1501927674320239,-6,0,10,7,4,-1,-1,-1
1501927674321236,-5,-1,-10,70,4,1,-1,-5
1501927674321236,5,5,22,27,1,4,0,2
1501927674343231,-3,-2,0,-21,-4,-8,-6,-1
1501927674343231,2,-5,-18,84,-9,0,1,0
1501927674344238,-4,0,6,-70,6,1,-1,1
1501927674344238,4,-2,3,-17,-6,0,-3,-3
1501927674366263,-1,-5,-3,0,-2,-4,1,-2
1501927674366263,2,2,3,-23,5,-1,1,2
1501927674367234,-3,-2,7,68,5,0,-6,-11
1501927674367234,2,3,-12,-73,-13,1,5,3
1501927674380263,1,-5,-3,2,0,-1,0,-8
1501927674380263,-15,0,22,56,5,-10,-5,-2
1501927674381241,4,-5,-28,45,-8,4,-1,10
1501927674381241,-1,2,0,-83,9,-6,0,-3
1501927674403265,-5,1,-5,62,7,7,3,-4
1501927674403265,4,3,11,-74,-14,-1,-1,0
1501927674404232,-3,-4,1,-39,8,-2,-4,-3
1501927674404232,-3,-6,-6,-14,-23,-2,-4,-4
1501927674426235,-2,0,1,4,0,-3,0,-1
1501927674426235,3,2,7,60,11,0,-6,2
1501927674427233,-3,-1,-14,-18,-7,-4,1,-1
1501927674427233,3,-3,-1,-1,-9,-1,0,1
1501927674440240,-2,-1,-4,-35,-2,-3,-1,1
1501927674440240,4,-3,-4,6,0,4,-4,-1
1501927674441234,-4,2,17,-30,0,-2,0,-4
1501927674441234,2,-2,10,67,16,-3,-3,-2
1501927674463270,-3,-3,-9,-87,-21,-4,0,-2
1501927674463270,-1,1,-2,23,3,3,3,-2
1501927674464236,-1,1,12,-16,-4,-5,-2,0
1501927674464236,-1,-1,4,76,6,4,1,4
1501927674486249,-7,-1,7,50,13,1,-1,-4
1501927674486249,-8,-3,-4,-86,-21,-8,-5,-16
1501927674487245,11,-4,-6,78,-7,-8,-3,9
1501927674487245,4,5,8,34,10,8,2,2
1501927674500296,9,-2,13,38,-4,0,1,8
1501927674500296,-11,-8,-45,-8,1,-2,-3,-6
1501927674501242,-2,5,21,-5,-5,1,3,-1
1501927674501242,-3,-7,-33,-4,-7,-6,-6,-5
1501927674523273,4,-1,-10,3,-1,0,-4,1
1501927674523273,5,2,9,68,18,1,1,5
1501927674524241,-3,2,6,-107,-30,-1,-3,-4
1501927674524241,4,-3,-21,-83,5,-3,3,2
1501927674546251,-10,-6,4,48,3,-4,-2,-7
1501927674546251,1,-1,-3,-87,-18,-3,-1,2
1501927674547245,0,5,14,-37,12,2,3,-2
1501927674547245,-8,-2,-9,65,1,-1,-2,-8
1501927674560242,7,0,-5,-49,-6,-3,-2,4
1501927674560242,2,1,9,30,5,2,1,5
1501927674561247,-1,-3,-9,103,13,6,1,-5
1501927674561247,5,1,23,79,2,-6,-3,-3
1501927674583242,-11,-1,-11,-4,-12,0,-4,-5
1501927674583242,5,-7,-11,10,-7,-6,-2,3
1501927674584243,-3,1,-1,-34,0,-2,-2,1
1501927674584243,4,5,19,45,14,4,2,2
1501927674606258,-4,-4,-29,-128,-10,2,0,-2
1501927674606258,3,4,18,79,5,-4,-3,-3
1501927674607244,-6,-8,-5,47,3,-6,0,-2
1501927674607244,-2,2,-8,-86,-15,1,3,1
1501927674620257,0,-3,-2,-2,4,-4,-3,1
1501927674620257,-3,-1,-15,25,-5,4,0,-9
1501927674621248,-1,-4,-11,28,9,-2,-2,-4
1501927674621248,1,5,16,0,2,-1,-1,4
1501927674643279,-1,1,10,69,6,6,5,-1
1501927674643279,2,-1,-16,-76,-4,-3,-1,2
1501927674644247,-6,1,1,-6,4,-1,1,-2
1501927674644247,1,-6,0,19,-7,-4,-6,-1
1501927674666281,4,2,10,22,4,-2,0,0
1501927674666281,-10,-3,-6,-39,-11,-6,-3,-3
1501927674667248,4,0,-11,-122,-18,0,-2,2
1501927674667248,-4,-1,-13,-19,-1,4,4,0
1501927674680260,-1,-1,-16,49,2,-2,-2,-4
1501927674680260,2,-5,10,-84,-6,-3,0,3
1501927674696250,-3,1,2,95,5,1,0,-1
1501927674696250,-3,1,-9,3,4,1,2,-2
1501927674703261,6,2,20,14,4,-6,-1,1
1501927674703261,-1,4,22,62,16,10,-2,-4
1501927674704250,2,0,6,2,-17,-6,0,3
1501927674704250,-3,-8,-17,58,6,-2,-3,-3
1501927674726251,-4,-1,9,55,2,1,0,-2
1501927674726251,1,0,-11,-39,-2,-2,1,4
1501927674727253,2,-2,10,14,2,-5,-5,-5
1501927674727253,-2,-2,7,17,-1,3,2,-1
1501927674740291,-1,3,-11,-76,-2,-1,-1,-1
1501927674740291,-2,-6,8,54,-1,-3,-3,0
1501927674748294,1,-1,-11,-27,-5,-2,-1,0
1501927674748294,1,7,24,-63,5,-1,1,0
1501927674763253,-5,-9,-24,-24,-14,-4,-3,-2
1501927674763253,0,1,4,74,9,1,2,-4
1501927674764262,-1,-1,-14,-3,-11,-1,-1,8
1501927674764262,-7,-6,0,-16,-7,-9,-8,-6
1501927674786287,8,6,19,1,8,8,2,10
1501927674786287,-2,-3,-16,41,-6,-3,-2,3
1501927674787256,5,0,-11,-10,3,2,0,-8
1501927674787256,-10,3,12,44,5,-7,-2,-3
1501927674800266,2,1,-9,-55,0,7,0,0
1501927674800266,-1,1,1,-72,-8,-6,0,3
1501927674808254,0,-1,3,-41,0,6,2,1
1501927674808254,4,-4,-19,72,0,-5,-2,1
1501927674823289,-6,-6,5,29,-9,-3,-3,-7
1501927674823289,-1,2,10,-17,-2,-2,-1,0
1501927674824258,-6,-2,-3,-27,-6,-7,-3,-4
1501927674824258,4,8,23,40,19,12,3,4
1501927674846290,0,-2,-6,-23,-23,-8,-3,1
1501927674846290,-6,-3,-16,32,-2,2,2,-8
1501927674847259,-1,2,-1,-24,5,1,5,-4
1501927674847259,-2,-4,22,2,2,-6,-8,-6
1501927674860260,2,1,-4,-75,-3,-9,-2,-2
1501927674860260,6,6,2,18,13,8,4,8
1501927674868258,-3,-1,4,-13,10,3,-1,3
1501927674868258,-1,-4,-7,-45,-5,-2,1,-2
1501927674883292,1,6,7,-1,7,-1,-1,0
1501927674883292,2,-5,-7,20,-3,-7,-5,0
1501927674884262,-2,3,14,-8,-1,3,3,-2
1501927674884262,1,-5,-14,-12,-1,-1,-4,-2
1501927674906294,0,-1,11,86,7,8,1,-3
1501927674906294,2,-1,-23,-85,-9,-1,0,0
1501927674907263,-6,1,3,117,5,-2,0,2
1501927674907263,1,1,22,-19,-2,-1,-3,2
1501927674920295,-6,-2,-19,-41,-2,-12,-6,-7
1501927674920295,3,-1,18,-79,-1,7,4,-1
1501927674928275,0,-2,-5,-88,-17,2,1,2
1501927674928275,-4,-3,-4,40,-8,-7,-4,-6
1501927674943296,-1,-1,23,71,6,-4,-5,9
1501927674943296,-4,0,-14,23,2,2,-1,-8
1501927674944264,1,-2,-8,-58,-7,1,-1,0
1501927674944264,1,3,16,19,5,6,5,4
1501927674966298,-1,-7,-39,-71,-14,0,-1,-4
1501927674966298,0,3,23,-28,4,-12,-4,-3
1501927674967265,-8,-7,16,127,-4,-1,-2,-8
1501927674967265,2,-7,-33,-104,-29,-9,-5,3
1501927674980277,-2,0,2,13,16,10,6,-1
1501927674980277,-2,1,10,-7,-11,-7,-2,1
1501927674988275,0,0,-14,-52,-1,1,-4,2
1501927674988275,0,2,-5,23,-1,-1,-2,0
1501927675003333,-3,-4,4,70,-1,-2,0,-3
1501927675003333,1,0,-2,12,2,2,0,5
1501927675004276,4,0,10,106,12,-1,-4,3
1501927675004276,-5,-5,-14,70,-3,3,2,-1
1501927675027281,1,5,-6,-89,-5,1,1,-1
1501927675027281,1,-2,-2,-10,-6,-1,-4,-1
1501927675028269,-10,-1,-1,-44,7,-2,0,0
1501927675028269,2,-1,-25,-23,2,-4,-5,-2
1501927675049285,0,0,4,33,2,5,6,2
1501927675049285,-7,-4,15,100,7,-5,-4,-5
1501927675049285,6,-1,-13,-3,-6,-2,-4,-5
1501927675049285,-2,0,-8,-57,-4,-5,2,-2
1501927675063282,1,2,2,16,6,8,3,1
1501927675063282,5,1,-12,-83,-2,0,1,-1
1501927675064272,-2,-6,17,104,1,-8,-5,-3
1501927675064272,3,1,0,-79,0,6,1,2
1501927675086304,-4,-2,5,-20,-8,-5,-4,-3
1501927675086304,-2,-1,4,84,10,3,1,1
1501927675087272,-1,0,-10,-7,4,-4,-2,1
1501927675087272,-1,1,6,-81,-23,2,-1,0
1501927675109275,0,-1,4,85,4,-2,0,0
1501927675109275,-1,-2,11,39,-4,0,-3,-5
1501927675109275,-12,-3,4,-53,-8,-5,-2,-4
1501927675109275,3,-1,-9,-5,6,1,1,0
1501927675123306,-2,-2,-11,50,-4,-3,-4,-2
1501927675123306,-1,-5,-19,-50,-12,0,-2,-1
1501927675124276,6,-3,-9,31,0,0,0,4
1501927675124276,-4,-2,2,62,6,2,4,-9
1501927675146308,1,2,-11,-46,11,-2,0,1
1501927675146308,-4,-3,3,103,-14,-7,-2,-3
1501927675147277,0,-5,4,-28,-3,-1,-1,0
1501927675147277,-2,-1,0,-59,-5,-1,-1,1
1501927675169310,-2,4,21,-46,5,0,0,-1
1501927675169310,0,-7,-20,61,-2,-6,-7,-2
1501927675169310,1,4,5,-65,4,1,1,-2
1501927675169310,1,3,30,127,27,9,3,5
1501927675183311,-5,-7,-35,-25,-40,-8,-4,-5
1501927675183311,0,5,1,-25,3,2,2,4
1501927675184277,-2,-3,-7,-35,-13,-6,-6,-2
1501927675184277,0,-2,7,51,6,-4,1,0
1501927675206321,3,1,15,49,4,4,2,2
1501927675206321,-1,6,-9,-44,5,5,4,-3
1501927675207293,-4,-2,1,-12,2,-4,-2,-5
1501927675207293,14,-1,-1,-11,-9,-5,-4,8
1501927675229280,-17,0,8,-67,-5,-2,-3,-5
1501927675229280,1,4,11,-64,7,3,1,1
1501927675229280,0,1,-6,41,9,3,2,-2
1501927675229280,-4,-2,-5,-57,-5,-4,-2,-3
1501927675243314,-5,-4,-5,-32,-9,-6,-2,-7
1501927675243314,8,0,-1,-52,1,-1,-1,4
1501927675244310,-1,0,-17,-20,-5,0,1,-2
1501927675244310,-7,-7,-10,60,0,-7,-3,-5
1501927675266316,6,6,15,41,9,8,4,3
1501927675266316,-11,-13,-24,35,-9,-10,-7,-6
1501927675267282,5,0,8,15,-5,-1,3,1
1501927675267282,-5,3,3,59,-1,-4,-3,-1
1501927675289283,1,-2,-10,3,-1,-4,-2,0
1501927675289283,-3,-7,2,-46,-2,-2,-2,-2
1501927675289283,13,4,2,-33,6,10,7,4
1501927675289283,-14,-4,-4,-8,3,-2,-2,-5
1501927675303295,0,2,5,61,12,1,-2,-3
1501927675303295,2,1,11,17,-14,-4,-2,6
1501927675304285,-2,-5,-19,-39,-7,-5,-5,-9
1501927675304285,-3,-3,-17,-38,-9,-1,-1,-4
1501927675325287,12,-3,-7,-28,-2,-6,-4,6
1501927675325287,-1,1,-2,-18,7,6,3,-5
1501927675326286,-8,-4,-10,73,0,-5,-3,-2
1501927675326286,2,3,1,-64,-2,3,0,1
1501927675349286,-3,-2,7,11,2,-5,-2,0
1501927675349286,1,2,-9,-25,-1,3,2,1
1501927675349286,-4,-1,22,88,-2,-4,-4,0
1501927675349286,3,1,15,-41,-6,1,-1,4
1501927675363299,-3,-9,-32,-8,-5,3,-2,-7
1501927675363299,-3,7,28,78,17,-2,-1,1
1501927675364288,-3,-1,-10,35,2,2,-1,-1
1501927675364288,2,-1,-6,-72,-14,-4,-1,-1
1501927675385288,1,1,14,-72,-8,-9,-1,-3
1501927675385288,-1,0,-7,6,6,11,4,-4
1501927675386288,-3,-1,-4,34,2,-3,-1,1
1501927675386288,2,0,2,-20,-13,0,-2,-1
1501927675409290,-1,-1,19,-14,-2,-1,2,3
1501927675409290,-1,-4,-14,-70,-11,-7,-4,2
1501927675409290,-3,-1,-10,-46,-3,0,-1,-4
1501927675409290,0,2,16,98,10,3,1,-1
1501927675423291,-4,-6,-3,-3,-1,-3,-4,-4
1501927675423291,3,2,12,1,0,1,2,0
1501927675424292,-1,-1,-10,60,-4,-6,-3,1
1501927675424292,-3,-4,3,-19,-5,-4,-4,-3
1501927675445326,0,1,1,96,15,7,6,3
1501927675445326,-5,-5,5,-49,-27,-7,-3,-4
1501927675446294,7,1,-4,-33,1,-5,-4,-1
1501927675446294,-16,0,-4,-2,10,9,2,-3
1501927675469293,1,1,-1,-13,-1,-2,3,0
1501927675469293,-6,-7,-19,29,-10,-6,-5,-5
1501927675469293,3,-4,12,70,-2,-2,-3,2
1501927675469293,5,1,2,-52,-8,-6,-2,5
1501927675483328,-2,-8,-28,8,4,3,-5,-3
1501927675483328,-7,-2,-1,88,10,4,2,-5
1501927675484297,-4,-4,-32,-128,-19,-5,-4,-3
1501927675484297,4,-1,7,112,15,2,0,1
1501927675505335,-2,2,6,-28,-11,-1,-2,0
1501927675505335,5,4,6,60,6,0,-1,0
1501927675506313,6,-1,6,30,2,6,5,5
1501927675506313,-5,-1,-9,-4,5,-3,0,-6
1501927675529300,4,2,3,-109,-9,-2,-3,1
1501927675529300,-2,0,-2,22,-1,-8,-6,0
1501927675529300,3,3,-3,-128,9,13,4,4
1501927675529300,-2,-6,-5,106,2,-5,-2,-4
1501927675543330,-2,-2,12,-28,-10,-7,-4,-1
1501927675543330,-1,3,-2,49,12,1,-1,-4
1501927675544300,-4,5,6,-23,3,3,5,-8
1501927675544300,-2,-5,-11,-67,-6,0,-2,-5
1501927675565333,4,1,-4,48,3,0,-2,3
1501927675565333,-7,-7,2,46,7,-2,-3,-3
1501927675566310,-1,2,3,-63,-11,-2,-1,3
1501927675566310,4,5,7,-78,11,8,2,0
1501927675589300,-1,0,-7,59,3,-5,-1,-3
1501927675589300,1,0,-1,-80,-7,-1,1,0
1501927675589300,-5,-2,-7,102,2,-5,-2,-4
1501927675589300,9,-3,-7,5,-9,-3,-2,2
1501927675603313,-7,0,-33,-58,-6,2,0,0
1501927675603313,1,-5,13,58,-1,-4,-3,0
1501927675604303,-6,2,10,-8,7,4,1,-2
1501927675604303,7,-2,-2,12,-2,-6,-5,3
1501927675625304,0,3,-5,-25,0,1,-2,-7
1501927675625304,-4,-2,7,-73,4,3,1,0
1501927675626302,3,2,0,37,1,1,1,2
1501927675626302,-2,-5,-5,28,-2,-5,-3,-1
1501927675649307,-9,-6,1,59,4,-1,-3,-10
1501927675649307,5,0,-16,-75,-8,3,2,8
1501927675649307,-1,-2,21,4,-3,-5,-3,0
1501927675649307,2,1,-22,-88,-4,0,-3,2
1501927675662312,-6,-5,30,127,2,-6,-1,-3
1501927675662312,8,4,22,-32,-6,-4,0,1
1501927675670306,-10,-5,-24,-67,-6,6,-2,-4
1501927675670306,-2,-4,1,-6,-8,-6,-5,-3
1501927675685339,-2,2,3,-3,4,0,0,1
1501927675685339,6,1,2,89,7,-1,-3,2
1501927675686329,-1,-4,7,-39,0,-4,-1,0
1501927675686329,-6,3,2,-21,-1,6,3,-1
1501927675709308,5,1,7,35,-4,-3,-2,3
1501927675709308,-3,-3,-27,-107,3,3,0,-2
1501927675709308,-5,-4,2,91,-7,-7,-6,-5
1501927675709308,1,-2,-3,36,-1,-5,1,6
1501927675722341,0,-2,2,-41,7,8,0,1
1501927675722341,-1,3,-9,9,-5,-4,-2,-7
1501927675730342,-1,-1,-13,-16,2,-2,-2,0
1501927675730342,-1,4,30,-35,1,11,6,-1
1501927675745309,2,-1,-21,-5,-6,-4,3,6
1501927675745309,-6,1,-8,-33,-3,-3,-3,-4
1501927675746311,0,-3,19,15,1,-2,-4,-1
1501927675746311,-1,-1,-17,53,4,-5,-1,-2
1501927675769321,1,2,24,-67,13,10,4,0
1501927675769321,2,0,9,107,3,3,-1,-1
1501927675769321,-1,-2,-6,111,1,-5,-1,-2
1501927675769321,-1,1,3,-42,-6,-2,-2,-1
1501927675782344,2,-3,-15,17,-5,-6,-1,-4
1501927675782344,-4,-4,-10,-38,-1,4,2,-1
1501927675790313,-1,-2,18,60,8,-4,-4,-2
1501927675790313,-1,-1,11,56,3,-3,-1,-4
1501927675805325,-1,-1,-10,8,4,1,-6,6
1501927675805325,2,-1,3,-23,-12,-1,2,-1
1501927675806322,0,2,-13,-59,1,7,3,3
1501927675806322,-6,-8,-14,-36,-3,-7,-3,-9
1501927675829316,-2,1,15,-21,3,-5,-3,0
1501927675829316,-13,-3,-4,-15,-1,-13,-2,-1
1501927675829316,9,1,-21,-91,-1,17,3,2
1501927675829316,3,2,7,84,14,-3,2,1
1501927675842327,-2,0,7,52,-1,0,-1,-2
1501927675842327,-2,-6,-3,118,7,-1,-2,3
1501927675850349,-5,-2,0,-85,-30,-7,-1,-4
1501927675850349,-3,-2,-5,48,-9,-13,-8,-1
1501927675865325,-2,-2,-7,-98,-12,9,4,-2
1501927675865325,1,3,13,3,5,2,0,-1
1501927675866323,0,1,-7,88,13,-1,-1,4
1501927675866323,-2,-4,-6,63,12,8,5,-4
1501927675889318,-1,-4,-4,-75,-29,-12,-6,-5
1501927675889318,5,4,17,87,9,4,-2,3
1501927675889318,-9,-2,5,7,-3,-2,-2,-7
1501927675889318,1,-2,8,62,13,-6,-1,-3
1501927675902318,-2,-3,-13,2,-9,2,-1,0
1501927675902318,0,0,7,-8,-2,5,0,-1
1501927675910352,2,-4,3,81,4,-11,-1,1
1501927675910352,-2,-1,-22,-51,-12,1,-2,0
1501927675925330,-2,-3,16,38,0,-4,-3,-3
1501927675925330,2,-4,-18,-87,-14,-15,-5,-1
1501927675926329,-1,4,0,62,17,12,3,2
1501927675926329,-5,-6,-17,-33,-5,-2,0,0
1501927675949321,-4,-2,-2,-34,-6,-7,1,-3
1501927675949321,1,-3,-3,-7,-6,0,-4,-3
1501927675949321,-1,5,-2,-100,5,-1,1,-7
1501927675949321,4,1,17,-6,4,3,0,4
1501927675962358,-2,0,1,75,8,-5,-2,-3
1501927675962358,1,-4,-17,-32,-7,0,-3,0
1501927675970333,-3,-4,6,3,-8,-17,-5,-2
1501927675970333,1,4,5,-41,1,18,5,0
1501927675985363,-1,-3,-10,16,4,-3,0,2
1501927675985363,-3,0,16,15,8,-2,-5,-3
1501927675986333,4,3,1,-6,-9,-1,5,4
1501927675986333,-1,1,2,-3,-4,-4,-4,-3
1501927676009337,0,-2,-5,27,6,-3,-2,-2
1501927676009337,-2,0,-19,-31,-5,2,5,-3
1501927676009337,-1,-1,7,-118,-16,2,-6,1
1501927676009337,-2,2,10,-23,7,-2,2,-1
1501927676031359,-4,-5,-14,49,-4,1,-2,0
1501927676031359,0,1,-3,-4,-5,-3,-1,5
1501927676032327,-11,-3,-7,23,-1,2,-2,-10
1501927676032327,2,-1,3,12,-5,-6,-4,1
1501927676045360,4,5,6,-31,4,7,3,3
1501927676045360,-3,-3,-10,42,6,-4,-3,-2
1501927676046328,6,1,-2,-75,-7,4,3,4
1501927676046328,-4,0,6,-9,-17,0,0,-2
1501927676068361,0,3,21,88,11,-2,0,-4
1501927676068361,-1,-4,-26,-62,-7,2,2,1
1501927676069341,1,-2,2,16,4,-3,-1,1
1501927676069341,-5,-2,-5,-48,-2,-8,-3,-6
1501927676091364,3,2,0,-37,-6,-1,-1,4
1501927676091364,-7,-4,15,51,10,5,-2,-6
1501927676092331,2,0,-2,-8,4,1,-1,3
1501927676092331,-1,-2,-4,-52,-13,-7,-5,0
1501927676105341,-3,0,8,55,12,0,2,0
1501927676105341,13,-1,-2,-127,-19,-2,0,2
1501927676106338,-18,-7,-16,78,-3,-4,-2,-8
1501927676106338,2,0,2,31,5,3,0,1
1501927676129356,2,-1,3,-12,0,0,-3,-3
1501927676129356,-7,0,0,68,-3,-2,2,-2
1501927676129356,10,0,5,13,5,3,4,5
1501927676129356,-1,-3,-21,55,-10,-3,-3,-2
1501927676151372,-1,-3,3,10,4,-6,-1,-3
1501927676151372,-3,-1,5,-22,-4,6,-3,-4
1501927676152342,0,-2,-1,16,-11,-10,-5,-1
1501927676152342,-5,0,2,-8,6,13,5,-1
1501927676165373,1,0,-2,-18,2,0,1,2
1501927676165373,-1,0,-13,-32,1,3,1,0
1501927676166349,0,-1,6,-56,-4,-8,-1,-1
1501927676166349,1,-3,1,25,-2,-5,-6,-1
1501927676189335,0,1,-9,-11,8,8,1,1
1501927676189335,-2,-3,2,-64,-19,-9,-3,-2
1501927676189335,1,-1,-11,-13,-5,3,-1,0
1501927676189335,-2,-3,-5,-15,5,-5,-2,2
1501927676211337,0,2,4,-42,1,-2,-4,-3
1501927676211337,-4,-1,10,81,7,2,5,-1
1501927676212337,1,0,2,36,3,0,-3,-2
1501927676212337,-1,1,-6,1,-2,6,0,-2
1501927676225368,-1,-1,-4,-6,-6,-6,-5,2
1501927676225368,1,1,10,5,3,-4,-1,-1
1501927676226341,-3,-4,-23,44,1,4,-1,-1
1501927676226341,-2,-2,4,13,2,2,-2,-2
1501927676249347,-2,-3,-9,-33,-10,4,4,-4
1501927676249347,2,2,-3,19,10,-3,0,0
1501927676249347,1,1,9,-42,3,-1,-2,0
1501927676249347,-4,-2,3,4,-1,-7,-1,-2
1501927676271382,-3,-5,-24,-51,-22,-2,-1,-2
1501927676271382,-3,-1,-4,22,7,-2,-6,-2
1501927676272342,1,1,8,7,3,-2,6,1
1501927676272342,2,0,-2,9,3,7,1,-2
1501927676285375,1,1,-8,19,-1,3,1,1
1501927676285375,0,3,10,-28,21,4,1,0
1501927676286348,-5,-9,-3,-6,-23,-20,-11,-5
1501927676286348,-1,0,7,-22,-3,3,-4,-3
1501927676309357,0,0,4,74,9,4,5,-1
1501927676309357,0,0,-5,-21,-19,-2,2,0
1501927676309357,3,4,2,-19,10,3,0,1
1501927676309357,0,1,-7,-12,1,-5,2,1
1501927676331385,-3,-2,-6,5,-2,1,-6,-2
1501927676331385,-2,-2,3,66,-1,-5,-3,-2
1501927676332343,1,2,4,-22,2,2,4,1
1501927676332343,1,0,-9,-27,-5,-3,-3,-1
1501927676345384,-1,1,-1,-6,4,-4,-3,0
1501927676345384,0,0,21,90,10,5,-1,-1
1501927676346352,-2,0,-5,-5,-7,0,1,0
1501927676346352,-1,-1,-3,61,11,3,3,0
1501927676368389,-1,-2,-1,-53,-23,-19,-5,-3
1501927676368389,-1,-3,-11,-30,1,11,2,-2
1501927676369378,1,-1,-9,103,8,-1,-2,1
1501927676369378,-1,-2,14,3,-2,-6,-2,-3
1501927676391386,-2,-1,9,-4,3,-5,2,-2
1501927676391386,-1,-1,-22,-39,-3,5,1,0
1501927676392346,-1,-2,19,112,8,-2,-3,-3
1501927676392346,-1,-3,-8,-94,-27,-10,-2,0
1501927676405388,-2,-3,-6,-27,3,-1,-2,-1
1501927676405388,-3,-3,-4,0,4,-4,-1,-2
1501927676406362,-1,0,6,36,-1,5,0,-1
1501927676406362,0,0,0,14,5,3,5,2
1501927676429358,0,0,-2,-31,-6,-1,-1,-2
1501927676429358,-1,1,28,101,-2,-2,0,-2
1501927676429358,-3,-10,-58,-128,-17,-10,-6,-5
1501927676429358,-3,-6,-7,-33,-10,-25,-9,-4
1501927676451389,0,0,10,22,17,21,11,1
1501927676451389,1,-3,-14,-53,-10,4,1,0
1501927676451389,0,3,9,6,4,-2,-3,-1
1501927676451389,1,3,0,47,5,-4,0,1
1501927676465391,-2,-2,2,91,2,0,-4,-1
1501927676465391,-2,-1,-4,-48,-3,-8,-5,0
1501927676466352,-1,0,-4,-1,-7,5,1,-2
1501927676466352,-4,-5,-10,-23,1,0,-1,-4
1501927676489364,0,0,14,80,-1,1,-2,0
1501927676489364,-1,2,1,-7,-4,-4,-2,-2
1501927676489364,0,-3,-10,11,6,1,-1,0
1501927676489364,-2,0,2,23,-11,-5,-3,0
1501927676511397,-1,0,36,53,10,1,-1,1
1501927676511397,-4,-13,-52,-11,-26,-11,-6,-4
1501927676512384,1,1,12,36,3,-1,5,-2
1501927676512384,-2,1,-2,32,6,11,2,-2
1501927676525400,-1,-2,-10,-7,-2,-9,-2,-3
1501927676525400,-2,-3,3,0,-4,-6,-4,-1
1501927676526363,0,3,15,-91,5,10,6,0
1501927676526363,-1,-2,-4,13,-4,-3,-4,-2
1501927676549395,1,2,-11,-37,3,6,0,0
1501927676549395,0,0,1,3,3,-3,0,0
1501927676549395,-2,-1,2,30,-2,-4,-5,-2
1501927676549395,-2,1,31,51,0,0,-1,-1
1501927676571400,-5,-9,-33,62,-16,-7,-4,-4
1501927676571400,3,5,17,-7,16,4,5,3
1501927676572358,-2,-3,-18,-17,-12,4,3,-1
1501927676572358,0,-4,-16,-75,-13,-1,-2,-1
1501927676585403,2,1,3,-70,-7,-14,-7,-1
1501927676585403,-5,-4,-2,-48,0,8,4,-2
1501927676594363,3,5,19,16,9,4,0,1
1501927676594363,-3,-5,-14,90,6,-4,-1,-1
1501927676608428,-4,-5,-20,-44,-9,3,-4,-3
1501927676608428,0,0,6,75,0,-3,2,-2
1501927676610369,-1,0,12,-39,4,-11,-2,0
1501927676610369,2,3,-14,-2,6,16,4,1
1501927676631398,-1,0,14,66,10,-7,-1,0
1501927676631398,-1,1,4,-39,-24,-5,-3,0
1501927676633396,-3,-5,-7,9,-7,-5,-6,-4
1501927676633396,-1,-2,-6,1,7,5,0,-1
1501927676645400,-2,-2,-6,-72,-9,0,-1,1
1501927676645400,1,4,31,38,11,0,-3,-3
1501927676654367,-2,-3,-17,-13,-3,2,4,0
1501927676654367,1,5,-3,-84,0,-1,-1,0
1501927676668431,1,1,-3,-108,-6,-4,-2,0
1501927676668431,-3,-2,14,82,11,4,1,1
1501927676670373,5,-5,9,60,-2,-9,-4,-1
1501927676670373,-2,4,11,4,8,9,4,-1
1501927676691404,0,3,0,17,7,6,2,3
1501927676691404,0,-2,-15,-44,-7,-22,-7,-2
1501927676693364,0,3,7,25,2,14,2,-1
1501927676693364,-1,-3,3,18,1,-4,-2,-1
1501927676705382,2,0,7,14,-5,5,2,-1
1501927676705382,-3,0,-3,-24,5,-3,-3,-2
1501927676714370,-1,-4,-10,38,-5,-6,-1,1
1501927676714370,0,-4,-3,-20,-7,-6,-4,-3
1501927676729395,-3,-2,-6,-44,-4,-3,0,0
1501927676729395,-1,1,2,66,7,12,2,-1
1501927676730376,0,3,10,14,8,0,3,2
1501927676730376,1,-1,4,85,6,-4,0,0
1501927676759392,-3,-5,5,-43,-14,-3,-4,-4
1501927676759392,0,0,10,17,-6,0,-1,0
1501927676760370,-2,-1,-3,2,4,-8,-3,0
1501927676760370,-1,-4,-10,-11,-3,-15,-5,0
1501927676765401,0,1,-8,37,11,23,8,1
1501927676765401,1,0,1,-29,2,1,1,-1
1501927676774374,-3,0,-3,-1,-2,-2,-4,-3
1501927676774374,0,-1,8,39,-23,-5,-1,0
1501927676789398,-1,-3,-9,22,-3,-11,-4,-2
1501927676789398,-2,-3,-13,-48,-3,2,-1,-1
1501927676790370,-4,-4,-4,57,-2,0,-2,-1
1501927676790370,2,3,6,-84,2,-2,3,-1
1501927676811412,0,0,-7,52,3,3,1,3
1501927676811412,1,-1,-1,-1,-1,0,-2,-1
1501927676813372,-2,-1,-7,-22,6,-3,-2,-5
1501927676813372,-2,-2,0,-27,-10,5,2,0
1501927676834372,0,0,5,-66,-8,-5,-1,-1
1501927676834372,0,-3,-15,74,4,-4,0,2
1501927676835373,-1,4,19,-55,2,6,-2,-1
1501927676835373,-3,-2,-28,-61,-12,0,0,-2
1501927676849398,-1,-2,1,39,1,-14,-4,-5
1501927676849398,-3,-2,4,-10,0,5,0,-4
1501927676850373,2,-4,-9,-24,-4,0,-1,0
1501927676850373,0,-2,9,33,7,0,-1,0
1501927676871416,-1,0,4,-13,-1,-8,-3,-2
1501927676871416,0,-4,-9,-20,-3,-10,-1,0
1501927676873376,-2,-1,5,-2,-3,9,2,0
1501927676873376,0,-1,-10,-7,2,-4,-4,-1
1501927676885390,0,-1,0,4,1,-1,-4,-4
1501927676885390,0,2,-5,-7,0,2,0,1
1501927676894376,0,-2,1,-5,-4,0,2,1
1501927676894376,-1,-2,3,1,2,2,-2,1
1501927676908443,-3,-1,3,5,0,1,-2,0
1501927676908443,-2,-2,-6,3,-2,-4,-2,-2
1501927676910379,-3,-1,0,-26,-6,-11,-5,-1
1501927676910379,-3,-1,0,50,4,9,0,-1
1501927676931378,0,-2,0,-1,4,2,2,1
1501927676931378,1,0,2,-8,-2,1,0,-2
1501927676933379,0,-2,-5,-10,-5,-5,-2,-2
1501927676933379,-1,-1,0,-8,0,-22,-7,-4
1501927676955412,-4,-2,1,9,1,17,3,-1
1501927676955412,1,0,-2,-3,1,0,3,1
1501927676957380,-1,-1,0,-8,0,3,2,1
1501927676957380,-1,1,-1,4,3,0,1,0
1501927676968381,-1,-1,1,3,-2,-9,-3,-2
1501927676968381,0,-1,-4,-17,-4,-4,-7,-1
1501927676970383,-1,0,-1,9,1,-4,4,0
1501927676970383,-1,-1,3,-11,1,6,3,0
1501927676991425,0,-1,-3,3,-1,-2,-2,-1
1501927676991425,-2,-1,-3,-3,-1,2,-1,0
1501927676997422,1,0,0,0,-2,-5,-3,-3
1501927676997422,-2,-1,0,-3,2,4,0,0
1501927677014421,-2,0,0,-1,0,-6,-4,-1
1501927677014421,-2,-1,-3,1,0,6,1,-1
1501927677015383,0,-1,1,-2,0,1,-1,-1
1501927677015383,1,-1,-2,-7,-1,-1,1,-1
1501927677028448,-1,-1,-1,4,-4,-6,-4,-2
1501927677028448,0,-3,-3,-8,-7,-7,-4,-1
1501927677030394,-2,-1,-3,-2,1,-4,-2,-2
1501927677030394,1,-1,0,-2,5,13,3,1
1501927677051426,1,-1,0,3,-2,-2,0,1
1501927677051426,-3,-1,-2,-2,-1,2,0,0
1501927677053413,-2,-1,0,-5,-5,-5,-5,-1
1501927677053413,0,-2,-2,0,-2,-3,-2,-1
1501927677073426,-1,1,-1,1,2,5,3,-2
1501927677073426,-1,-1,0,-2,1,3,0,-2
1501927677075415,-1,0,0,3,0,5,4,0
1501927677075415,-1,0,0,-4,-3,-10,-4,0
1501927677088426,0,0,-3,-2,-2,6,-2,-2
1501927677088426,-2,0,-1,-1,-2,-5,1,0
1501927677095427,-2,-1,-3,-3,-2,-3,-2,-1
1501927677095427,0,0,2,-1,1,2,-2,-3
1501927677111430,-2,-1,0,0,1,-4,-1,0
1501927677111430,0,-3,0,-1,-1,-7,-2,0
1501927677113421,-1,-3,-1,-1,1,9,2,1
1501927677113421,-3,-2,-1,-3,-3,-2,-1,-1
1501927677134391,-2,-1,-1,0,-3,-6,-3,-3
1501927677134391,-1,-2,-1,-4,-1,-2,-3,-1
1501927677135392,-1,-1,0,-1,0,0,1,-1
1501927677135392,-3,-1,-3,-1,1,-1,-3,-1
1501927677148434,1,0,0,1,-1,0,2,0
1501927677148434,-3,-1,-1,-1,-3,3,2,-3
1501927677155401,1,-2,0,-2,-3,-4,-1,0
1501927677155401,-2,-1,-1,1,0,0,0,0
1501927677172437,-2,-1,-1,0,2,-2,1,-1
1501927677172437,-1,0,-2,-2,-1,-2,-2,-2
1501927677174407,-2,-1,0,-1,-1,-4,-6,-1
1501927677174407,1,0,0,-3,-3,3,2,-1
1501927677194420,0,-2,-2,0,0,4,-1,1
1501927677194420,0,-1,-1,3,5,6,6,0
1501927677195404,0,-1,-1,0,-2,-7,-4,-2
1501927677195404,-2,-3,-1,-3,-4,2,-2,-3
1501927677208461,-1,-1,-2,0,-2,-8,-4,-1
1501927677208461,-2,-2,0,-1,-1,3,-2,-1
1501927677215405,0,0,-3,-3,-3,-1,-2,1
1501927677215405,0,0,-2,-1,-3,-6,-1,1
1501927677231434,0,-2,-1,-2,-3,-4,-1,-1
1501927677231434,-2,-2,-2,1,0,-2,-3,0
1501927677232404,-3,-2,-3,-1,0,4,4,0
1501927677232404,-1,-3,-1,-2,-2,-3,-5,-1
1501927677253439,2,-3,-1,-1,0,3,2,3
1501927677253439,11,0,-1,-1,-1,-1,2,3
1501927677255406,-16,-3,-1,-1,-3,-2,-4,-6
1501927677255406,1,0,-1,-2,-1,0,0,-3
1501927677276473,0,-1,-2,0,-2,1,0,7
1501927677276473,-6,-1,0,-3,-1,-6,-1,-5
1501927677278409,4,-1,-1,0,-2,-5,-6,-2
1501927677278409,2,0,0,0,1,4,3,1
