timestamp,emg1,emg2,emg3,emg4,emg5,emg6,emg7,emg8
1501934465013909,10,0,-42,21,-33,7,2,6
1501934465013909,-15,-10,-22,-77,-60,-19,-10,0
1501934465014913,-2,-2,-10,-45,6,-3,-1,-8
1501934465014913,4,7,56,-23,-21,-14,3,4
1501934465016923,-9,-14,-12,10,0,8,-5,-3
1501934465016923,9,-2,-12,46,-7,-4,2,19
1501934465017931,7,3,6,-71,-43,-2,-12,3
1501934465017931,-13,-4,13,-13,18,1,15,-12
1501934465023931,5,2,-34,-43,-7,6,4,0
1501934465023931,-10,-9,12,107,65,-19,-17,-6
1501934465030916,-2,1,-3,-43,-49,-3,1,2
1501934465030916,2,-10,-63,-24,2,2,-6,2
1501934465045912,2,12,57,73,-10,-12,2,2
1501934465045912,6,9,43,-48,10,15,9,-5
1501934465055913,-3,-15,19,70,20,-3,-2,-1
1501934465055913,-1,-4,-59,-81,-2,-1,-8,-3
1501934465061913,-8,-5,16,14,16,2,-3,-10
1501934465061913,2,2,-59,22,-47,-4,3,-3
1501934465085914,3,5,2,33,-6,-6,2,-6
1501934465085914,-6,-5,-12,14,1,7,4,14
1501934465086914,-8,-4,10,-49,6,-9,-8,-32
1501934465086914,-1,0,-3,52,27,8,4,-1
1501934465124937,-1,-1,-8,25,0,-1,4,5
1501934465124937,4,10,28,-53,7,6,2,-5
1501934465125936,5,13,71,24,56,17,4,3
1501934465125936,-21,-33,-51,54,-33,-34,-20,-13
1501934465128917,-2,-1,15,-30,-7,-5,6,0
1501934465128917,-1,-5,-15,-23,-1,-3,-4,1
1501934465128917,8,7,6,47,3,3,0,6
1501934465128917,-6,8,24,73,18,14,11,-13
1501934465135920,2,0,-12,-83,-20,-11,-7,4
1501934465135920,-4,-4,-8,22,18,-1,-5,-1
1501934465142922,-8,-10,-15,-112,-28,-13,-16,-1
1501934465142922,13,10,-5,67,48,18,20,5
1501934465149918,-1,-1,-11,4,-7,5,4,2
1501934465149918,-7,2,21,72,-8,-2,-4,-15
1501934465164922,13,-2,-9,8,-25,-8,-7,25
1501934465164922,-12,-1,-14,-57,-10,3,11,-1
1501934465172918,-2,0,13,-14,9,-4,-22,-17
1501934465172918,0,-1,23,101,12,2,12,1
1501934465196965,10,-8,-31,-22,-23,-7,3,16
1501934465196965,-31,1,13,-60,10,-3,-12,-41
1501934465197952,12,0,13,86,11,4,9,12
1501934465197952,-11,-4,-14,-115,-32,-1,-13,-13
1501934465210980,5,-3,10,56,14,0,14,6
1501934465210980,10,4,1,-3,2,8,-11,1
1501934465211926,1,3,-19,-76,4,3,2,8
1501934465211926,-4,-3,3,-40,-12,-7,2,-3
1501934465233969,-8,3,14,89,41,11,-3,-14
1501934465233969,8,0,1,-93,-19,-3,-11,13
1501934465233969,-2,-2,-5,-31,-8,2,15,30
1501934465233969,10,0,-22,72,9,-2,0,17
1501934465256996,-6,-3,-4,38,-7,-4,0,-14
1501934465256996,-2,5,25,-22,-18,-1,4,-4
1501934465257930,-7,-9,-7,11,-2,-6,-9,-3
1501934465257930,1,-4,-32,12,17,4,2,3
1501934465269972,-7,-2,-8,-72,-45,-8,-6,-2
1501934465269972,8,0,1,63,15,-1,-12,5
1501934465278994,3,9,33,121,17,8,14,-3
1501934465278994,2,0,-16,-41,-38,-2,1,6
1501934465294939,-6,5,18,45,22,5,4,-10
1501934465294939,5,-5,-6,3,4,-8,4,19
1501934465295928,-13,-6,-13,1,-38,-5,-15,-35
1501934465295928,9,-1,4,-17,16,-1,-2,16
1501934465317008,-9,-1,-5,-66,-11,-1,-1,-10
1501934465317008,-2,-7,-5,5,-36,-6,-7,1
1501934465317934,7,16,39,106,58,13,13,11
1501934465317934,-12,-19,-71,2,-3,-12,-10,-11
1501934465329976,-4,-4,10,0,-8,-1,-5,-9
1501934465329976,8,4,-6,-103,-12,2,9,8
1501934465338932,3,-2,-3,-44,-1,1,5,18
1501934465338932,0,5,37,-1,-6,0,-1,-26
1501934465353964,7,-7,-39,46,7,0,-5,8
1501934465353964,-2,2,8,-5,4,4,7,8
1501934465353964,-22,-16,-33,-41,-22,-16,-19,-20
1501934465353964,2,2,13,-60,-6,-1,8,6
1501934465376933,-3,2,-5,22,7,-2,3,1
1501934465376933,0,1,-18,50,-3,1,-3,-9
1501934465377934,8,-2,0,-13,-31,-9,-4,2
1501934465377934,-6,1,32,91,45,6,-6,-3
1501934465389942,-7,-8,-8,7,-30,-11,-4,1
1501934465389942,-1,-1,-7,-80,-22,-6,-3,-12
1501934465398936,-2,2,-7,57,25,1,-1,-10
1501934465398936,8,4,-4,-10,14,-3,3,9
1501934465413973,-4,-4,4,-27,-57,-2,-8,-7
1501934465413973,2,-4,-7,105,31,5,5,20
1501934465413973,-5,-2,-4,-14,-25,-2,-6,-9
1501934465413973,-1,2,18,39,13,3,-2,-2
1501934465436939,-3,-1,-25,-81,3,-2,1,-6
1501934465436939,-1,-3,-7,28,-3,-8,-2,2
1501934465437939,2,7,20,23,31,6,-2,-7
1501934465437939,-10,-13,-32,-5,-54,-12,-1,-1
1501934465449949,2,10,39,-3,24,-1,-1,-5
1501934465449949,1,-3,-3,66,22,5,0,-2
1501934465458938,2,3,15,33,-12,-3,-3,5
1501934465458938,-1,3,8,-4,-4,3,4,-1
1501934465473941,-3,-2,-17,-40,1,7,7,3
1501934465473941,1,2,14,-75,9,-2,-1,-3
1501934465473941,5,5,-6,-39,-1,-3,-1,3
1501934465473941,-1,-6,-14,43,-7,13,-1,5
1501934465496982,0,0,5,-12,8,-6,-2,-6
1501934465496982,4,10,18,-23,6,5,3,2
1501934465497943,-2,-2,2,3,10,5,2,-4
1501934465497943,1,4,-4,-38,-3,-4,1,-5
1501934465510002,-2,-5,-19,55,25,0,0,8
1501934465510002,-1,-3,2,1,13,7,-2,-4
1501934465518979,-1,0,-2,-8,5,0,1,-1
1501934465518979,7,4,6,-16,-8,0,0,-1
1501934465533943,-9,-1,5,91,8,-4,-8,-4
1501934465533943,-6,-12,0,-58,-20,-20,-2,-3
1501934465533943,-4,-5,8,30,-10,5,1,-4
1501934465533943,3,0,3,14,10,-1,-6,-6
1501934465556957,-1,1,-4,-55,-10,-2,0,-10
1501934465556957,0,0,-8,43,-14,-6,-7,1
1501934465557946,5,-1,-2,-17,15,4,-4,9
1501934465557946,-3,4,20,14,-7,6,10,-9
1501934465569978,-2,-7,-2,23,5,-10,-7,-4
1501934465569978,7,5,-2,17,-11,3,1,4
1501934465578983,-3,-3,-9,-76,-20,-9,1,-5
1501934465578983,-1,3,8,0,5,0,0,0
1501934465593957,2,-1,-29,-44,6,9,7,8
1501934465593957,5,9,53,-2,10,14,7,3
1501934465593957,-1,-5,-10,-51,-10,0,1,-3
1501934465593957,-6,-3,-14,-67,3,-7,-6,-4
1501934465616948,4,5,19,-52,-17,-5,1,1
1501934465616948,-1,-3,-16,76,-17,3,-2,0
1501934465617950,-2,-1,3,78,-1,-8,-6,-6
1501934465617950,-4,-2,-15,1,22,-3,-2,2
1501934465629948,8,3,40,127,20,8,1,-1
1501934465629948,-12,-1,-8,47,14,-1,-1,-12
1501934465638951,2,-1,-8,-103,-21,0,7,5
1501934465638951,-4,-4,3,3,-23,-7,-5,2
1501934465653949,1,-2,-22,-76,-16,2,3,1
1501934465653949,1,-2,-12,-13,-3,-2,-2,-2
1501934465653949,-3,-2,-2,26,24,-3,-7,-7
1501934465653949,-4,-2,-2,-33,-53,-8,-2,3
1501934465676962,-1,2,3,34,-2,-1,0,-11
1501934465676962,3,-3,-13,-43,2,-3,-4,5
1501934465677951,1,3,3,67,25,-6,0,1
1501934465677951,3,0,25,7,9,11,-3,-1
1501934465698964,-1,-3,-32,-43,-14,-7,1,7
1501934465698964,-9,-10,-5,24,5,-3,-4,-5
1501934465699953,3,5,1,-86,-10,3,2,-2
1501934465699953,-1,-4,-23,-52,-5,-11,-5,-1
1501934465713991,-1,0,-3,32,-2,-1,-1,-1
1501934465713991,4,4,3,-90,-22,-5,2,3
1501934465713991,-4,-5,-12,20,-5,-1,-2,-2
1501934465713991,-1,0,-3,44,8,2,-1,5
1501934465736978,-2,-3,-1,1,4,1,3,-3
1501934465736978,-2,-1,1,-25,-2,-1,-4,-3
1501934465737955,-2,-2,3,42,8,-7,0,2
1501934465737955,-4,-3,3,47,-9,6,-2,-5
1501934465758982,4,6,44,-75,3,2,0,0
1501934465758982,-4,-8,-48,-44,-13,-8,-3,-2
1501934465759957,-2,-5,-1,43,-15,-1,-6,-3
1501934465759957,2,-1,-8,-19,17,-14,2,1
1501934465773993,-4,2,15,-32,30,18,4,-5
1501934465773993,1,1,5,58,-10,-1,1,-1
1501934465773993,2,-6,-16,-110,-42,-6,-4,-9
1501934465773993,-4,5,21,42,21,-3,-1,-1
1501934465797003,-3,-4,-11,-77,-37,-7,-3,5
1501934465797003,5,1,-8,-35,3,-2,7,12
1501934465797960,-6,-10,-12,127,33,2,-11,-24
1501934465797960,2,2,3,-21,-36,-3,1,-1
1501934465818969,0,1,-1,34,10,-3,-3,-1
1501934465818969,-2,-3,-3,-46,-24,-6,-6,-6
1501934465819960,-2,0,2,9,-8,1,4,7
1501934465819960,-1,-3,0,-10,11,7,-1,0
1501934465833990,-1,-1,-3,67,11,-4,1,0
1501934465833990,-3,-1,-12,-5,-3,-1,-6,-3
1501934465833990,-5,-9,-1,32,-11,-20,-5,-3
1501934465833990,8,7,-12,-54,4,31,13,3
1501934465856969,-6,-6,-1,80,28,-6,-4,-2
1501934465856969,-4,1,9,-59,-22,-7,-4,-11
1501934465857970,1,1,8,12,16,2,3,5
1501934465857970,-2,-4,-6,5,9,-7,-4,-1
1501934465878970,3,2,-4,-45,-18,-1,0,1
1501934465878970,-2,-3,8,29,25,6,2,-3
1501934465879971,-4,-1,-5,76,-13,-3,-1,0
1501934465879971,-4,-9,-26,-94,-17,-12,-7,-2
1501934465893992,5,-2,0,2,-2,2,3,-4
1501934465893992,-3,3,27,127,21,0,0,1
1501934465893992,-4,-8,-32,-110,-41,-1,-1,5
1501934465893992,0,-1,9,46,5,-4,-3,-3
1501934465916978,-2,-2,-1,-18,-5,-4,-3,-1
1501934465916978,1,-2,-11,-15,36,6,1,2
1501934465917965,0,-2,11,-8,-5,-1,0,0
1501934465917965,-5,0,10,51,7,1,-1,-8
1501934465938965,-8,-4,-8,-64,-37,-6,-4,-10
1501934465938965,8,0,4,3,-7,-5,1,10
1501934465939969,-3,2,-3,-8,22,12,-3,-6
1501934465939969,6,6,30,-8,-23,-1,4,6
1501934465953969,-6,-6,-10,-8,23,1,0,2
1501934465953969,-3,-3,-22,-37,-16,-3,-4,-2
1501934465953969,1,3,9,-89,-7,0,2,1
1501934465953969,-2,2,-17,-33,-1,-3,0,-5
1501934465976974,1,-5,-11,74,7,3,0,7
1501934465976974,-1,1,24,38,1,-2,-2,11
1501934465977969,-2,-3,-11,-27,7,-6,0,-9
1501934465977969,-1,2,8,66,3,6,1,2
1501934465998971,0,-2,-3,28,0,-3,-3,-6
1501934465998971,5,-3,-1,48,4,-3,-1,7
1501934465999971,2,3,21,-9,12,6,1,4
1501934465999971,-1,-6,-15,-47,-9,-8,-4,3
1501934466013971,-9,-3,-12,-59,-25,-6,-8,-14
1501934466013971,-3,2,8,-30,-17,-10,1,-11
1501934466013971,2,0,-6,-3,12,21,5,6
1501934466013971,2,0,11,13,32,-2,0,3
1501934466036971,2,0,-17,-29,-14,-4,-2,5
1501934466036971,-3,-1,-9,-62,-16,-1,0,-9
1501934466037973,0,9,5,-42,0,0,2,-11
1501934466037973,-3,-19,-32,-24,-7,-20,-12,3
1501934466058975,-1,3,11,37,12,8,-2,-13
1501934466058975,-4,0,10,0,8,4,-1,2
1501934466059975,-2,-2,-14,-30,-14,-7,-2,-6
1501934466059975,8,5,16,40,0,9,8,21
1501934466073976,35,4,17,19,12,-1,5,21
1501934466073976,-16,-7,-23,8,7,6,0,-11
1501934466073976,-32,-12,-12,-2,-10,-17,-22,-8
1501934466073976,-6,1,-6,70,-1,-11,-2,-16
1501934466095009,9,0,16,74,5,19,7,23
1501934466095009,5,2,9,23,17,6,-1,1
1501934466103978,-2,2,-6,34,14,5,2,-17
1501934466103978,-4,-4,1,54,-15,-11,-7,-24
1501934466118987,-6,1,22,67,-15,-10,-3,-3
1501934466118987,-1,4,27,7,2,-4,-4,-9
1501934466120985,58,-2,-17,96,1,-2,8,29
1501934466120985,-48,-4,1,-80,-16,8,-2,-28
1501934466141979,-14,2,2,-18,10,4,-7,-16
1501934466141979,-6,-3,-16,56,1,-3,-3,18
1501934466142979,20,0,16,-11,-29,-9,-5,-3
1501934466142979,6,1,2,-13,18,5,6,7
1501934466154979,-9,-5,-13,-31,-6,-7,-1,13
1501934466154979,13,3,9,5,3,-3,1,82
1501934466163979,-5,5,6,-11,3,14,8,10
1501934466163979,0,1,20,32,5,2,-3,1
1501934466178013,19,-5,-13,-121,-29,-31,-9,38
1501934466178013,-24,-3,-6,-7,1,22,7,-34
1501934466186994,-1,-3,-10,31,34,-2,-3,16
1501934466186994,1,5,-7,46,16,9,4,-17
1501934466201996,26,0,-7,-29,-54,-10,0,-16
1501934466201996,0,-3,-6,-47,-16,-8,-8,-46
1501934466203003,12,4,15,-28,22,10,13,49
1501934466203003,-8,-7,-15,52,-6,-4,-5,-18
1501934466224000,-19,-4,-35,-57,0,0,-7,-24
1501934466224000,28,-2,-4,5,-4,-7,1,19
1501934466225985,-40,-1,19,53,-4,-2,-7,-36
1501934466225985,24,1,-14,-63,8,-3,2,25
1501934466238985,-19,0,-11,118,46,11,8,-30
1501934466238985,-8,-9,-20,-83,-73,-7,1,-11
1501934466240984,5,3,-2,52,9,0,-5,-10
1501934466240984,16,-4,-7,-90,3,-2,-6,36
1501934466262018,-13,0,1,59,19,6,5,-11
1501934466262018,22,4,2,-10,2,-2,1,22
1501934466262986,-19,-2,7,27,-9,-19,-4,-18
1501934466262986,-7,1,21,4,-5,9,1,-22
1501934466283988,2,2,-6,-67,12,11,3,9
1501934466283988,5,1,16,-9,22,3,-1,2
1501934466285987,-14,-4,-19,-56,-6,-8,-7,-5
1501934466285987,3,3,37,20,6,-3,6,2
1501934466298999,-1,-9,-14,-53,-6,-2,-3,11
1501934466298999,-19,-2,5,82,12,-3,-5,-43
1501934466300996,0,0,-4,-113,-33,4,4,18
1501934466300996,7,-1,-6,13,6,-6,-8,-10
1501934466321992,-5,0,16,99,33,5,-1,10
1501934466321992,2,1,2,-94,-57,-6,-6,-10
1501934466322989,1,-1,-3,26,-9,0,2,3
1501934466322989,3,-7,-35,-55,-4,-1,0,12
1501934466343990,-2,-4,18,-6,-15,-7,7,16
1501934466343990,-28,-3,-44,-40,20,0,-5,-15
1501934466345990,-1,-1,16,21,8,1,-1,-21
1501934466345990,6,2,6,30,-15,-21,3,6
1501934466358992,-4,-2,-6,0,-5,29,-5,-32
1501934466358992,10,4,4,21,3,-1,8,7
1501934466364999,-3,-3,14,54,12,-2,-6,-9
1501934466364999,-10,-2,-5,10,12,-4,1,7
1501934466382025,0,0,6,-62,-6,-11,-8,4
1501934466382025,7,2,8,33,7,-1,-1,-1
1501934466382993,3,-1,-10,18,-3,-5,1,-2
1501934466382993,10,8,38,-59,2,14,-1,11
1501934466403996,-9,-8,-40,1,-20,-8,5,-1
1501934466403996,-2,-3,-11,-16,4,4,0,-14
1501934466405996,4,-8,-20,-50,-10,-14,1,15
1501934466405996,-7,2,6,-20,-5,4,-6,8
1501934466419995,4,5,12,-37,4,2,2,9
1501934466419995,-3,0,14,8,18,-7,-4,-4
1501934466424995,7,3,-1,-87,-8,4,2,-1
1501934466424995,-3,-9,-24,-53,-38,-3,-3,-4
1501934466441996,-36,-4,8,45,14,-5,-8,-35
1501934466441996,-1,-2,5,14,-16,-2,-2,2
1501934466442998,-1,0,-7,53,13,3,5,27
1501934466442998,-8,-1,-4,16,4,1,0,-27
1501934466463997,8,-2,1,64,-6,-11,-4,5
1501934466463997,1,1,31,47,17,7,3,-5
1501934466465998,-9,-4,-15,-16,4,0,-4,7
1501934466465998,3,-4,-27,-6,3,9,0,6
1501934466478997,2,2,20,-42,-31,-14,-4,-1
1501934466478997,3,3,9,58,18,0,5,28
1501934466485003,4,-3,1,54,2,-2,-4,-37
1501934466485003,-5,-4,-8,-32,-6,-10,-4,-13
1501934466502005,-7,1,3,36,27,11,4,-6
1501934466502005,1,-2,-11,-91,-5,0,-3,9
1501934466503000,-1,5,25,65,2,4,3,-11
1501934466503000,4,4,-10,19,-2,-5,-4,4
1501934466523999,-19,-11,2,72,-8,-1,-5,-12
1501934466523999,-2,-6,-14,60,-23,-8,-4,-2
1501934466526002,2,3,12,24,4,4,3,16
1501934466526002,-2,-2,-1,27,3,1,-6,-11
1501934466539002,9,2,0,35,20,6,-1,2
1501934466539002,-4,-5,-13,-24,-17,-11,-5,-7
1501934466545004,-4,-1,-4,-54,-7,6,-4,1
1501934466545004,7,1,9,127,37,10,6,28
1501934466562005,-3,8,6,-58,-24,-2,0,-21
1501934466562005,1,-1,6,-23,8,0,-5,-10
1501934466563003,-2,1,10,-42,2,-2,-2,-1
1501934466563003,-10,-4,-7,-7,-5,-4,-2,-13
1501934466584006,12,2,3,-2,6,0,-1,19
1501934466584006,-4,1,3,33,17,-1,1,-10
1501934466586008,0,3,5,-103,-14,-3,-3,7
1501934466586008,-11,-4,18,117,10,-3,-5,-16
1501934466599007,-6,-10,-17,66,-15,-5,0,1
1501934466599007,4,-4,-19,-66,-35,-12,-4,27
1501934466605009,2,-1,-4,57,7,-2,0,6
1501934466605009,3,1,-2,-49,-8,2,4,29
1501934466622007,4,2,4,16,8,3,1,-13
1501934466622007,-7,-4,-4,43,14,5,1,6
1501934466623007,8,-1,-22,-60,-9,-1,-3,-16
1501934466623007,-9,2,8,41,-6,-3,-3,-3
1501934466644006,9,-2,-3,-6,19,-1,5,23
1501934466644006,-1,-1,-9,-84,-18,-4,-5,-5
1501934466646006,4,4,8,-23,19,11,3,-4
1501934466646006,-3,-3,-20,-79,-12,-8,-3,-6
1501934466658011,4,2,-9,10,31,0,-2,8
1501934466658011,2,-2,6,11,-22,-2,0,-1
1501934466665009,-4,-3,0,54,5,-8,0,-5
1501934466665009,3,1,4,-88,-10,4,0,-2
1501934466682009,-3,-4,-7,19,-4,-10,-4,3
1501934466682009,-1,2,3,40,12,6,1,-14
1501934466683008,-4,-6,-15,-36,-25,-3,-2,10
1501934466683008,3,-2,-10,-20,-12,-12,-1,-7
1501934466704010,-7,-1,11,27,-12,5,-5,0
1501934466704010,1,-1,-11,-36,2,-2,-10,-1
1501934466706013,-3,-2,-3,9,8,3,4,2
1501934466706013,-1,1,-7,3,4,-16,-3,-6
1501934466718015,2,-1,3,-21,3,14,0,-3
1501934466718015,-3,1,8,30,21,2,4,-1
1501934466727011,-3,-2,0,49,3,-3,-5,-8
1501934466727011,5,2,7,7,20,4,2,5
1501934466742015,6,0,-7,7,-9,-9,0,23
1501934466742015,-13,-9,-17,38,-3,-2,1,-42
1501934466743012,-6,-4,-11,-89,-8,-5,0,-8
1501934466743012,-7,-4,5,28,-2,1,-6,-7
1501934466764018,-3,5,1,-90,4,4,3,4
1501934466764018,-1,-4,-6,84,5,1,1,6
1501934466766014,2,0,0,43,-27,-8,-4,2
1501934466766014,-9,-4,-3,-41,-12,-8,-3,-15
1501934466778015,2,0,4,-3,-8,2,0,-8
1501934466778015,1,2,2,-50,-6,-2,-2,16
1501934466787015,-6,-2,-11,6,25,6,0,-10
1501934466787015,8,7,22,100,22,-9,-2,16
1501934466802017,-6,-12,-18,-106,-45,5,1,-10
1501934466802017,3,2,0,-62,6,-5,0,11
1501934466803015,-3,-7,-11,44,-1,-2,-4,-1
1501934466803015,6,3,8,104,17,1,2,9
1501934466824042,-2,-3,-7,-22,-1,-3,-3,-6
1501934466824042,-9,-1,13,56,14,1,0,-11
1501934466826018,8,1,13,13,-2,-3,-1,15
1501934466826018,-1,-7,-23,-20,1,2,-9,-8
1501934466838018,5,9,25,19,-7,-6,7,13
1501934466838018,-3,-4,-9,35,-1,1,-5,-43
1501934466847018,-4,0,4,21,-5,-8,-1,-5
1501934466847018,2,5,20,-94,-44,17,8,1
1501934466862018,-10,-6,-22,-6,5,-18,-8,-21
1501934466862018,5,1,18,69,35,12,2,16
1501934466863019,1,1,9,-20,-18,-8,7,5
1501934466863019,-17,-6,-17,-16,1,6,-2,-16
1501934466884029,0,1,4,72,24,-5,-2,-2
1501934466884029,6,1,-9,-91,-19,-8,-2,19
1501934466886022,-9,-2,10,106,11,3,-5,-12
1501934466886022,3,3,18,4,9,2,2,19
1501934466898042,-5,-6,-29,-59,-6,-4,-5,-8
1501934466898042,-5,-5,-7,28,-5,1,0,6
1501934466907023,6,0,8,1,4,4,1,-1
1501934466907023,9,1,10,66,24,4,4,13
1501934466922026,1,2,4,-60,-37,-8,0,-3
1501934466922026,0,2,19,98,22,2,0,-1
1501934466923022,3,2,1,-62,-26,10,4,8
1501934466923022,-5,-11,-54,-56,-7,1,-1,4
1501934466944029,1,2,7,-39,21,-13,-2,2
1501934466944029,-7,-4,-33,-116,-38,7,1,1
1501934466946024,-7,-1,-3,34,12,-4,-2,-7
1501934466946024,1,0,-8,-97,-34,3,4,-4
1501934466958036,0,-2,-15,-21,-6,2,-3,-1
1501934466958036,4,0,9,81,39,-1,3,2
1501934466967026,-4,-5,-28,-99,-27,-6,-5,22
1501934466967026,-5,-1,12,-9,-15,-4,-3,-11
1501934466982031,-1,-1,11,-40,-14,-3,-4,-6
1501934466982031,0,-1,3,13,-9,4,-1,2
1501934466983028,-4,2,4,31,13,3,0,-6
1501934466983028,2,-1,10,14,16,-5,-4,-10
1501934467004075,0,1,-11,36,3,7,-1,2
1501934467004075,1,2,22,-18,5,-4,-1,7
1501934467006033,-1,-2,-12,-67,3,-7,-1,-5
1501934467006033,-7,-5,-12,88,13,5,-5,-13
1501934467018033,-4,-3,32,85,-1,-2,-1,-1
1501934467018033,-5,-2,-11,-95,-46,-20,-7,-8
1501934467027030,0,-1,3,46,10,14,1,-7
1501934467027030,-1,0,2,48,-3,-1,11,9
1501934467042077,4,0,20,37,5,4,1,6
1501934467042077,0,1,12,28,10,-1,1,-3
1501934467043044,-12,-8,-8,-35,-4,-13,-10,-4
1501934467043044,5,7,34,14,-6,4,3,2
1501934467064037,-7,-8,-61,1,-4,-5,-1,3
1501934467064037,-1,4,4,-63,17,7,0,2
1501934467066032,0,-8,-26,4,-9,-13,-7,-2
1501934467066032,-4,-1,-7,-61,-4,0,0,-6
1501934467078055,1,3,9,-51,-29,-1,1,-1
1501934467078055,7,-4,-8,42,18,-1,2,16
1501934467087035,5,4,24,81,11,4,0,-24
1501934467087035,-16,-7,-13,-20,-2,-13,-6,-10
1501934467102033,4,2,7,29,14,-14,2,4
1501934467102033,-2,2,1,32,-15,28,11,2
1501934467103033,5,5,14,12,5,5,-1,2
1501934467103033,-4,-5,-9,-1,-14,-3,-6,-14
1501934467124054,6,2,-6,-13,13,0,-2,12
1501934467124054,-12,-3,4,33,-13,-13,-4,-17
1501934467126038,-2,-2,-3,-90,-8,0,0,-3
1501934467126038,1,3,-4,89,16,0,1,5
1501934467147038,-7,-4,-7,-59,13,4,-5,-26
1501934467147038,0,2,16,-20,-5,-3,-1,-3
1501934467148036,-7,0,-5,8,0,1,-1,-4
1501934467148036,1,0,-3,38,-1,-3,1,-7
1501934467162062,-2,-3,0,-25,-8,5,-1,0
1501934467162062,1,-2,-6,108,14,-7,-8,2
1501934467163042,4,5,9,-93,-22,7,5,-1
1501934467163042,3,-2,-5,-57,-31,-6,-5,13
1501934467184081,-3,-1,9,96,11,5,3,-10
1501934467184081,-3,-4,-16,-40,-2,-14,-4,-9
1501934467186045,-3,-1,-2,27,6,-4,-4,9
1501934467186045,2,1,12,-33,16,20,3,6
1501934467207107,-1,-3,-4,7,-5,-4,-2,0
1501934467207107,-4,-1,-4,-56,-18,-2,-3,-8
1501934467208064,6,3,23,66,10,-6,1,-1
1501934467208064,-8,-4,-3,-51,3,-4,-1,-10
1501934467222065,7,0,-12,-71,-1,3,-2,8
1501934467222065,-2,-2,14,109,14,4,4,5
1501934467223040,0,-6,-8,-89,-19,-7,-3,-7
1501934467223040,-4,-2,-2,26,-4,2,-2,-1
1501934467244046,-2,5,13,18,2,4,2,-7
1501934467244046,6,3,-6,-37,15,5,1,21
1501934467246042,-6,-5,-6,38,-24,-11,-6,-9
1501934467246042,6,9,25,-13,9,-7,1,2
1501934467267048,-9,-10,-10,89,4,4,-9,-12
1501934467267048,-4,-4,-18,-114,-34,-8,0,-9
1501934467268043,-5,-3,-8,31,12,10,-2,4
1501934467268043,4,-1,-4,-12,7,-2,-1,4
1501934467281049,-2,0,24,88,1,-4,0,7
1501934467281049,4,-1,-13,-60,11,-1,-5,-1
1501934467288044,1,1,1,45,21,2,2,6
1501934467288044,-7,-5,-17,-29,-17,-8,-4,-14
1501934467304045,-2,2,10,2,16,2,2,-4
1501934467304045,4,0,1,91,2,0,-1,5
1501934467306046,-7,-7,-33,-37,-12,0,-1,-7
1501934467306046,8,-2,-4,36,6,3,0,15
1501934467327048,-17,-4,-5,-33,-21,-7,-3,-12
1501934467327048,-4,4,14,55,17,-2,-2,-9
1501934467328047,2,-1,-4,36,-31,-4,-1,1
1501934467328047,7,-4,-12,102,20,-2,-6,5
1501934467341047,2,0,-2,-105,-26,3,-1,9
1501934467341047,-6,-1,16,28,-7,-5,-1,-13
1501934467348051,-1,1,-5,77,28,9,-2,5
1501934467348051,-2,0,12,66,19,-1,2,-4
1501934467364048,1,-4,-35,-43,-19,-12,-5,-4
1501934467364048,6,4,5,68,27,16,7,15
1501934467366050,-6,-1,20,-44,-16,-12,-3,-14
1501934467366050,5,-4,-11,-80,-34,1,-2,14
1501934467387050,3,2,3,14,15,0,0,7
1501934467387050,-4,-3,-4,-26,-6,0,0,-5
1501934467388050,3,0,-4,-6,22,0,0,4
1501934467388050,-5,-2,-4,-7,-11,-11,-3,-12
1501934467401056,-2,2,18,35,13,5,-1,12
1501934467401056,-3,-7,-6,32,-14,-7,-6,-5
1501934467408052,-2,4,4,-71,-10,4,4,-4
1501934467408052,-2,1,1,0,-8,3,-1,-5
1501934467424052,6,1,0,-43,-3,2,3,2
1501934467424052,-5,-3,-10,-89,-3,-7,-6,-10
1501934467426052,-6,-6,-21,22,0,-21,-5,-3
1501934467426052,5,0,0,37,16,18,4,11
1501934467447053,10,4,19,71,1,-3,3,-8
1501934467447053,-13,-2,3,21,4,6,4,-2
1501934467448053,2,0,6,-31,-5,0,0,2
1501934467448053,-3,-2,-3,-55,-21,-6,-5,-2
1501934467461054,2,0,10,60,26,-4,-2,0
1501934467461054,-3,-2,-15,5,-15,-1,-2,-5
1501934467468054,3,-2,3,26,-26,-1,0,5
1501934467468054,-8,0,4,4,-6,-9,-1,-15
1501934467484078,2,2,-6,-14,6,5,0,8
1501934467484078,-3,-7,-4,-61,-8,-2,-1,-7
1501934467486055,-2,-1,-5,-18,15,7,1,3
1501934467486055,7,-2,-5,10,-8,-5,-3,15
1501934467507062,-9,-1,-2,-64,-12,-3,0,-28
1501934467507062,6,1,-2,14,-10,-15,-6,8
1501934467508057,-5,-2,0,52,13,21,3,-8
1501934467508057,-2,0,-6,-75,-8,-5,1,-3
1501934467521057,-4,-4,-12,-33,-4,6,-1,0
1501934467521057,2,2,6,-1,0,-3,1,-2
1501934467528081,0,-2,18,32,7,-6,-6,2
1501934467528081,-6,-1,-17,64,2,2,2,-19
1501934467544082,-1,-5,-7,57,11,-4,-4,18
1501934467544082,-3,0,-4,-84,-14,2,2,-17
1501934467546065,4,1,-3,42,36,-1,5,3
1501934467546065,-6,-1,3,-46,-19,4,-3,-11
1501934467566059,-2,1,9,72,8,-3,1,-4
1501934467566059,6,-4,-16,-26,-4,-2,-3,16
1501934467573084,-2,-1,-1,-49,-3,-5,-5,-3
1501934467573084,1,-3,9,79,1,-22,-3,0
1501934467581084,10,2,-5,-34,-2,26,5,5
1501934467581084,-4,1,-4,41,9,-3,1,9
1501934467588066,-4,-2,-3,-13,-11,-3,-1,-7
1501934467588066,0,1,7,-26,13,0,-1,-2
1501934467604061,-4,-1,7,46,-14,-6,-3,-5
1501934467604061,6,3,2,72,25,6,3,9
1501934467606063,-1,-7,-36,-72,-31,-9,-4,-6
1501934467606063,-5,-4,-4,26,3,3,-2,15
1501934467627077,-5,2,9,16,4,-1,-1,-4
1501934467627077,1,2,10,3,8,3,0,-8
1501934467628068,4,-2,-3,-20,10,-4,-4,18
1501934467628068,-5,-1,4,15,-19,2,-1,-22
1501934467640106,-2,-2,-10,-18,-4,-13,-2,4
1501934467640106,-1,-1,13,4,-1,15,0,-6
1501934467649076,1,0,-3,12,1,-7,-3,-3
1501934467649076,3,3,20,-13,-8,1,0,2
1501934467664089,1,-2,-14,48,18,-4,0,8
1501934467664089,-1,-3,-5,-91,-36,-2,-3,-17
1501934467666068,-3,-3,-12,59,1,0,0,0
1501934467666068,-4,-6,-2,-98,-1,-4,-3,-1
1501934467687099,-5,-3,-4,-15,-12,-2,-3,-3
1501934467687099,0,0,5,23,6,-7,-2,2
1501934467688089,2,3,2,15,-3,6,3,7
1501934467688089,3,3,-4,20,-1,11,4,3
1501934467700071,-3,-9,-13,-40,-21,-22,-8,-6
1501934467700071,-2,2,17,-51,-5,14,2,0
1501934467709068,-3,-2,-16,-41,0,-5,-1,-4
1501934467709068,-3,-2,9,72,6,-6,-2,4
1501934467724117,1,-2,-16,75,16,7,3,2
1501934467724117,-8,-3,-19,-29,-21,-10,-4,-7
1501934467726077,0,3,17,-46,7,4,1,-3
1501934467726077,-9,-2,6,69,6,-6,-6,-6
1501934467747141,5,1,7,-16,4,6,0,2
1501934467747141,4,-1,2,61,22,-7,2,1
1501934467748074,0,-4,-19,5,6,-1,-2,-3
1501934467748074,-6,0,-21,-128,-19,4,3,26
1501934467760073,-3,-2,7,-23,-2,0,-4,-4
1501934467760073,4,6,19,127,22,-10,0,10
1501934467769079,-12,-6,-1,49,-6,10,-2,-19
1501934467769079,3,1,0,5,12,-1,-2,-3
1501934467784119,2,2,19,5,21,-1,0,0
1501934467784119,-6,-5,-7,-43,-27,-6,1,-17
1501934467786076,-4,1,11,-9,-6,-5,-2,15
1501934467786076,0,-4,-9,65,12,-5,-2,-7
1501934467807117,0,2,20,22,4,9,0,7
1501934467807117,0,-5,-26,25,-26,-5,-5,0
1501934467808087,2,3,15,7,0,-3,-2,-3
1501934467808087,4,-1,8,58,26,5,3,3
1501934467820090,-5,1,-2,-24,-13,-18,-4,-12
1501934467820090,3,0,-2,-87,-20,9,1,-2
1501934467829076,-4,-3,-19,-52,14,8,1,12
1501934467829076,-1,-1,-25,-31,-17,-7,-2,-12
1501934467843079,3,0,10,12,6,13,0,1
1501934467843079,-1,-1,-7,-93,1,-5,2,5
1501934467852080,2,2,9,40,2,-6,-2,-5
1501934467852080,2,1,11,-2,6,4,0,-1
1501934467867080,0,-3,-22,-96,-51,-7,-1,-1
1501934467867080,-1,0,13,1,14,3,-2,3
1501934467868079,1,-3,-11,58,12,5,0,-10
1501934467868079,-2,-6,-1,83,-28,-14,-4,10
1501934467880080,0,2,8,-13,0,1,0,2
1501934467880080,2,0,4,0,7,4,0,4
1501934467889082,3,-1,1,-21,-10,-3,-3,0
1501934467889082,0,-1,-12,-49,10,5,-2,-5
1501934467904114,-6,-4,-6,26,-2,-17,-5,-9
1501934467904114,0,1,-9,15,7,18,0,-7
1501934467906084,4,2,5,-3,11,0,2,14
1501934467906084,1,2,8,45,14,4,1,-2
1501934467927119,1,-3,-27,-99,-78,-2,4,12
1501934467927119,-5,-1,6,69,12,-7,-2,-12
1501934467928084,5,2,14,-35,-13,-7,-3,6
1501934467928084,2,-3,1,-35,10,3,1,-4
1501934467940093,0,1,-13,13,17,0,0,3
1501934467940093,-2,1,2,78,18,0,1,2
1501934467949083,-6,-2,19,41,-36,-4,-4,-10
1501934467949083,0,-5,-24,-30,-26,-8,-4,2
1501934467964089,-1,-1,-2,21,22,14,0,-10
1501934467964089,4,-2,-8,-89,-6,-12,-2,3
1501934467966085,-7,5,30,102,44,2,4,7
1501934467966085,0,1,-2,-12,-5,7,2,-1
1501934467987088,-2,1,1,25,5,1,2,6
1501934467987088,-4,-7,-22,-42,-13,-5,-6,1
1501934467988086,-1,-3,9,24,0,-6,-3,-8
1501934467988086,-5,0,10,-56,-5,-4,-1,-17
1501934468000088,0,-2,8,11,23,5,-3,10
1501934468000088,-1,0,4,48,-13,-14,-3,4
1501934468009087,-3,-3,-15,-73,-28,-2,-4,-9
1501934468009087,-5,2,6,-4,9,5,0,-4
1501934468024094,3,-5,-9,25,2,-2,-4,3
1501934468024094,1,2,20,19,7,-4,-1,6
1501934468026091,1,0,1,-25,-3,12,6,-4
1501934468026091,-3,-3,-5,10,22,-11,-3,2
1501934468047089,-2,0,5,-52,-9,13,-1,-7
1501934468047089,-1,0,0,-3,-9,-3,2,0
1501934468048089,5,2,-5,-15,-6,-4,-2,5
1501934468048089,3,4,23,64,26,7,1,3
1501934468060123,-6,-7,-22,-64,-31,-19,-5,-7
1501934468060123,-4,-3,-5,76,6,-1,-4,-4
1501934468069092,2,-2,-13,-15,5,11,1,-4
1501934468069092,-1,1,7,-77,-5,-7,0,6
1501934468084093,-4,-4,-2,-13,7,-1,-2,-10
1501934468084093,2,0,4,16,1,6,1,1
1501934468086092,-3,-5,-7,-42,-7,-10,-3,-6
1501934468086092,2,0,6,-45,-17,3,0,3
1501934468107094,-3,-4,-14,41,24,1,1,-2
1501934468107094,-5,-3,-10,-46,-22,-5,-3,-3
1501934468108095,1,-2,-16,28,8,-18,-5,2
1501934468108095,-1,0,11,23,14,28,2,-7
1501934468129100,8,2,17,37,8,-2,3,-1
1501934468129100,-11,-6,-2,-19,3,-6,1,-10
1501934468131096,-4,-3,6,-22,-4,-1,-1,-5
1501934468131096,-1,-3,-35,-28,-10,-7,-3,1
1501934468152095,-5,-2,4,-24,-9,0,1,-3
1501934468152095,6,0,-5,0,10,5,-3,-7
1501934468153097,-5,0,5,-75,-36,-5,-1,0
1501934468153097,1,-6,-9,-87,-18,-4,0,10
1501934468167095,0,0,-5,50,9,-1,-3,8
1501934468167095,1,3,-4,-31,-7,-4,-1,-6
1501934468168098,7,2,18,46,12,9,0,-4
1501934468168098,-10,-8,-16,21,15,-35,-9,-9
1501934468189098,1,1,9,-54,-17,31,5,-2
1501934468189098,-2,-1,-6,4,3,-4,-1,5
1501934468191100,-2,-2,5,-4,-7,-1,-3,4
1501934468191100,4,4,14,25,14,3,3,-6
1501934468204103,-3,-1,-7,40,6,-15,-6,-11
1501934468204103,-2,-3,-3,-5,-1,-3,1,2
1501934468206100,-5,-7,-42,-5,-10,9,3,-1
1501934468206100,7,1,6,44,-14,-1,-2,8
1501934468227101,-1,2,11,6,-2,-5,-3,-3
1501934468227101,2,-4,-10,-20,21,3,-8,3
1501934468228100,-4,4,10,4,-9,-4,0,-7
1501934468228100,-4,-4,-19,24,-10,-2,2,0
1501934468249101,0,-1,7,56,4,-1,-2,-1
1501934468249101,1,3,-2,-33,-1,4,1,4
1501934468251104,4,6,27,67,24,5,1,-2
1501934468251104,-6,-5,-10,-94,-17,-3,-5,4
1501934468263107,-1,-1,-6,61,27,-9,-1,1
1501934468263107,-1,-3,-7,56,-6,5,0,-3
1501934468270103,-2,-3,1,-104,-48,-5,-6,-2
1501934468270103,5,4,-7,-25,-10,11,6,3
1501934468287109,-6,-5,-12,-10,4,-10,-2,-12
1501934468287109,2,1,1,-39,-11,-3,-1,4
1501934468288105,1,-1,-1,52,16,-3,0,2
1501934468288105,4,1,-6,61,9,3,-1,7
1501934468309103,-9,-4,-2,-14,-37,-9,-6,-8
1501934468309103,4,-2,-7,20,21,7,1,6
1501934468311115,2,4,5,31,10,-3,7,5
1501934468311115,-3,-3,4,37,4,0,-2,-12
1501934468323138,1,0,-25,-118,-10,0,-2,1
1501934468323138,-6,-2,9,13,-8,-14,-5,3
1501934468330166,1,-4,-5,24,7,15,0,-6
1501934468330166,1,2,-11,-97,-4,-2,2,-1
1501934468347141,-2,-1,12,98,16,5,0,-1
1501934468347141,0,0,1,-89,-26,-10,-2,2
1501934468348112,3,1,-16,20,11,-2,-4,1
1501934468348112,-5,-2,7,16,13,-6,0,1
1501934468369155,4,5,34,84,7,8,5,4
1501934468369155,-8,-5,-23,-66,-17,-3,-1,-7
1501934468371119,8,2,23,6,10,-7,-3,11
1501934468371119,-9,-5,-23,-87,-18,0,-3,-5
1501934468383142,0,-1,1,0,8,-2,1,4
1501934468383142,-1,-3,-2,56,3,7,0,-4
1501934468390143,-4,-1,-2,-44,-23,-5,-2,-4
1501934468390143,1,-2,6,57,2,-5,-4,3
1501934468407156,0,-1,-6,-64,-6,-18,0,-2
1501934468407156,-1,-1,3,38,3,27,3,0
1501934468409111,-5,-2,7,-33,-9,2,1,-7
1501934468409111,4,-1,-6,20,-4,-1,-4,-6
1501934468429123,-5,1,19,2,-1,2,2,-4
1501934468429123,4,-3,-16,-11,-1,-13,-8,-5
1501934468431114,-4,-2,2,90,3,-10,2,2
1501934468431114,0,2,32,57,4,2,1,1
1501934468443154,3,3,5,65,-11,6,1,0
1501934468443154,-4,0,-3,-5,-4,-8,-3,-3
1501934468450177,-5,0,-4,61,31,8,-1,-3
1501934468450177,4,3,22,6,-26,-7,-3,0
1501934468467185,3,-5,-20,-79,5,2,-2,7
1501934468467185,3,6,15,-8,17,-3,2,6
1501934468469129,-3,-6,-18,-2,-14,1,-4,0
1501934468469129,1,0,12,65,34,4,2,-5
1501934468489163,0,-1,-5,-6,-4,-7,-3,7
1501934468489163,-1,-1,11,-16,-13,-8,-2,2
1501934468491115,-1,-3,-8,-11,0,7,1,1
1501934468491115,-1,3,5,-58,2,0,0,-4
1501934468503121,0,-5,-21,-9,-2,3,-2,1
1501934468503121,0,-2,-2,-19,-5,-4,1,-6
1501934468510187,1,2,11,49,9,-4,0,0
1501934468510187,-4,-2,-19,21,-3,4,-2,-1
1501934468527133,-5,-7,-5,35,-13,-13,-4,-7
1501934468527133,1,0,6,67,11,1,1,0
1501934468528119,-2,-3,-12,-69,-7,0,-3,-2
1501934468528119,-3,-2,-23,20,6,3,1,3
1501934468549183,-1,1,-4,18,3,-7,-3,3
1501934468549183,-3,-2,13,-42,-11,6,-4,-6
1501934468551121,1,0,4,4,6,0,4,7
1501934468551121,-11,0,0,-30,-7,-4,-2,-8
1501934468563163,4,-3,-18,-77,-25,2,-3,-4
1501934468563163,2,-1,-13,-19,-3,-5,-2,-1
1501934468570153,-5,-1,-1,23,2,-6,-2,-6
1501934468570153,2,3,27,23,-3,6,2,0
1501934468587139,6,-4,-34,-40,-7,-11,-2,-5
1501934468587139,-19,-3,-13,4,8,13,3,1
1501934468588137,5,0,-4,-100,-11,-4,-4,1
1501934468588137,-2,-3,-3,-7,-5,-2,-3,-4
1501934468609164,-2,2,28,22,13,5,2,0
1501934468609164,4,-3,-10,63,-25,-13,0,6
1501934468611124,-1,0,-8,-9,5,4,-2,-27
1501934468611124,-3,-1,-2,87,22,1,-1,-1
1501934468623156,-4,1,11,-69,-29,2,-2,-2
1501934468623156,5,3,22,34,-3,6,2,2
1501934468632124,-5,-3,0,-78,-1,-8,-2,3
1501934468632124,2,-3,-18,-14,-2,-3,-4,2
1501934468647125,-1,1,14,6,-8,-9,-2,-7
1501934468647125,2,0,-10,11,11,8,4,-2
1501934468648134,-2,-3,-13,44,5,-2,-2,4
1501934468648134,2,0,3,20,5,-4,-1,-3
1501934468669127,-1,-1,2,18,7,8,1,2
1501934468669127,-4,-4,-11,-64,4,-8,-4,-5
1501934468675129,3,1,6,19,10,2,1,1
1501934468675129,-3,-2,0,-21,-36,-3,0,-1
1501934468683125,-2,-1,-1,7,6,-6,-1,1
1501934468683125,-1,2,8,32,10,-4,-2,-3
1501934468692127,1,-6,-7,28,13,16,0,-1
1501934468692127,-3,-3,6,3,-12,-8,-2,-3
1501934468707128,1,-3,-11,-61,2,8,0,8
1501934468707128,2,-2,-2,35,-5,-12,-5,-3
1501934468708129,0,-1,-16,-29,-10,-6,-1,4
1501934468708129,1,1,3,12,29,7,0,-2
1501934468729136,-4,-3,-4,-39,-39,-10,-2,-1
1501934468729136,1,1,8,18,3,3,0,-6
1501934468731138,-5,-1,2,-9,-8,-3,-2,-2
1501934468731138,-2,-5,-12,-9,9,3,0,-1
1501934468743160,3,6,18,19,17,3,1,-6
1501934468743160,-3,-4,-7,42,1,0,-4,-3
1501934468752133,-1,-1,-6,-55,-26,-9,-3,-2
1501934468752133,1,2,-4,-37,3,-6,1,0
1501934468767132,-2,-1,7,58,15,-9,-4,-4
1501934468767132,3,4,9,-38,-5,28,5,0
1501934468768131,3,-1,10,81,9,0,3,12
1501934468768131,0,-1,-3,-64,-8,-6,-2,-6
1501934468789165,-2,-2,1,48,17,4,-2,-4
1501934468789165,0,-3,-8,-58,-10,-9,-1,0
1501934468791134,-2,1,4,26,-3,-5,-2,-4
1501934468791134,1,2,4,-8,10,5,-1,7
1501934468803166,-6,-6,-16,-21,-48,-4,-1,-1
1501934468803166,-1,1,13,101,19,-1,0,-4
1501934468812135,-5,-3,-3,-47,-22,-5,-6,1
1501934468812135,0,-1,3,19,-14,-9,-2,-4
1501934468827135,2,5,1,39,29,16,4,5
1501934468827135,2,-3,3,-30,-1,-8,-6,4
1501934468828136,-5,-2,5,-21,-27,-6,0,-14
1501934468828136,4,0,6,44,5,5,-2,10
1501934468849136,-2,-5,-23,-70,-6,-18,-5,-6
1501934468849136,0,2,26,34,17,17,5,5
1501934468851137,0,0,-6,82,8,1,-1,-4
1501934468851137,-6,-6,-4,16,8,-3,-3,1
1501934468863208,2,2,6,-32,-17,1,3,-3
1501934468863208,0,2,9,28,-2,-6,-1,3
1501934468872147,-1,3,2,10,15,-4,-1,1
1501934468872147,-2,-3,-12,-93,-10,-2,-1,4
1501934468887149,0,0,7,17,17,7,0,-5
1501934468887149,-3,-2,-1,-53,-1,0,-1,-5
1501934468888146,5,4,29,-32,-2,5,3,8
1501934468888146,-4,-5,-31,51,-9,-7,-4,-7
1501934468909180,0,-7,-33,-24,-11,-2,-2,1
1501934468909180,-4,-3,13,4,-16,-8,-3,-13
1501934468911142,1,1,-6,-23,13,-2,-1,7
1501934468911142,-6,-8,-1,-19,-15,-11,-6,-17
1501934468923216,3,3,11,21,21,24,8,0
1501934468923216,-7,1,-6,-7,2,-8,-6,-2
1501934468932147,3,-3,-5,14,0,3,0,5
1501934468932147,-2,0,-9,17,14,-6,-1,-2
1501934468947142,-3,0,21,56,-5,-10,-2,-3
1501934468947142,-1,-3,-26,-14,-6,0,-1,-2
1501934468948144,0,1,-15,-66,-8,5,0,-2
1501934468948144,1,2,5,30,-4,4,2,2
1501934468969186,-4,-4,1,-48,4,-6,-3,-1
1501934468969186,9,3,9,81,-13,-4,-1,3
1501934468971156,-5,-3,-4,-27,-7,-9,-3,-11
1501934468971156,-2,1,-2,15,-6,7,3,4
1501934468983192,-1,1,-14,-62,8,2,-3,-14
1501934468983192,4,0,4,-27,-2,-9,-2,2
1501934468992145,2,0,-8,67,7,-5,1,6
1501934468992145,1,1,25,62,11,25,2,-5
1501934469007158,0,0,-8,-65,-19,-9,-1,0
1501934469007158,-5,-2,-10,-9,7,2,0,-4
1501934469008157,2,-2,2,14,3,-1,-2,3
1501934469008157,4,-1,-7,-29,-1,-6,-7,2
1501934469029157,-4,2,31,63,22,2,2,-1
1501934469029157,-2,-4,-14,-84,-32,-3,-1,-2
1501934469031149,-3,-5,-9,-10,-18,-8,-5,4
1501934469031149,0,3,7,-24,9,1,3,-7
1501934469052160,-1,-1,3,13,0,1,-4,0
1501934469052160,-1,-4,-8,4,3,-5,-8,-1
1501934469053160,0,4,5,12,-5,10,14,-1
1501934469053160,-6,-2,6,5,-16,-5,-4,-5
1501934469067150,-5,-6,-16,-18,-4,-5,-9,-9
1501934469067150,3,-1,-11,30,19,-11,13,21
1501934469068151,-1,-3,-15,-14,-6,10,-13,-17
1501934469068151,-3,-2,1,-28,10,3,12,4
1501934469089152,1,2,16,64,-37,-6,-4,6
1501934469089152,-4,-6,-21,-77,-27,-3,-9,-9
1501934469091153,-4,-3,-12,-22,5,-11,2,5
1501934469091153,0,-2,-3,-10,-19,-9,-7,-7
1501934469111162,2,-3,-17,-15,20,13,4,0
1501934469111162,0,2,14,32,13,0,-2,-2
1501934469113156,1,2,-18,2,-2,-4,-1,0
1501934469113156,-5,-5,-5,30,1,3,-4,-3
1501934469126165,1,-1,1,38,-15,-11,-1,9
1501934469126165,0,3,-6,-50,-6,8,2,-9
1501934469128167,-4,0,24,42,18,5,-1,5
1501934469128167,3,1,3,-34,-8,-6,-1,4
1501934469149197,-5,-1,-5,-14,3,-1,3,-17
1501934469149197,6,3,-4,13,14,-1,-3,10
1501934469151156,-2,-2,4,31,-8,-4,-1,-5
1501934469151156,0,-2,-3,13,-6,0,3,-1
1501934469171195,-2,2,-8,-9,10,12,0,11
1501934469171195,-2,-1,1,-88,-5,4,-1,-10
1501934469173156,-1,-4,-3,-16,20,-9,-4,0
1501934469173156,3,3,5,87,2,0,1,-1
1501934469186189,-1,-3,4,19,-9,-2,0,1
1501934469186189,1,2,12,83,18,1,3,4
1501934469193158,-3,-8,-28,-60,-8,0,-6,-2
1501934469193158,-2,0,2,-1,-24,-11,-6,-4
1501934469209171,4,9,22,-18,22,9,8,2
1501934469209171,-2,-6,-32,46,-5,-1,-1,0
1501934469211160,-3,-1,13,3,-18,0,1,-7
1501934469211160,0,-1,1,-39,5,-2,-1,-2
1501934469232159,3,-1,5,-27,-3,-16,-4,4
1501934469232159,-3,-1,-4,22,1,12,-3,-2
1501934469233170,1,5,19,31,15,4,4,-5
1501934469233170,-4,-5,-16,49,-21,-6,-2,4
1501934469246171,0,-1,-7,19,17,7,0,1
1501934469246171,1,1,26,39,21,-4,1,3
1501934469253160,4,-2,-1,3,-15,-3,-7,-1
1501934469253160,-5,1,1,-42,6,-1,7,1
1501934469269196,2,0,-12,-3,7,0,1,6
1501934469269196,-3,-3,-1,19,-2,4,1,-6
1501934469271162,1,-1,-2,-25,-15,-4,-1,3
1501934469271162,1,2,-4,-40,5,3,-3,2
1501934469292183,-3,-2,4,56,0,1,1,1
1501934469292183,-2,-1,-2,-20,1,-4,-2,1
1501934469293174,-2,-2,5,79,11,1,-3,-6
1501934469293174,1,2,12,-47,-17,-10,-3,0
1501934469306201,-2,-2,-1,-38,-4,-11,-1,-4
1501934469306201,-2,0,-11,-9,-1,21,1,-1
1501934469313211,-4,-2,-4,-35,3,-6,0,-3
1501934469313211,-7,-1,-19,-7,17,-3,-3,-12
1501934469329204,7,1,13,7,-2,-1,-3,7
1501934469329204,-10,-12,-38,-56,-9,-5,-4,9
1501934469331184,-1,2,6,0,22,-2,-3,2
1501934469331184,3,0,-3,18,1,10,4,2
1501934469352166,-8,-9,-36,-20,-32,-7,-5,-7
1501934469352166,1,2,8,-22,-15,-12,-4,-2
1501934469353165,-2,1,-14,-43,2,1,-2,-2
1501934469353165,0,-4,2,1,-7,-5,0,-3
1501934469366208,0,0,-4,31,13,-1,0,1
1501934469366208,0,1,13,3,-1,4,3,-3
1501934469373216,-1,0,11,1,-16,-12,-2,-2
1501934469373216,1,0,3,26,20,25,1,2
1501934469389208,-4,-4,5,75,16,3,2,-5
1501934469389208,5,-2,-8,-25,-3,-11,-4,-4
1501934469391204,-8,-1,7,39,-7,-3,-3,-6
1501934469391204,-1,2,11,-20,-13,-12,-2,-7
1501934469412189,0,-5,-6,44,1,4,-3,7
1501934469412189,0,2,9,33,1,2,3,6
1501934469413171,4,-1,5,59,14,2,1,-1
1501934469413171,-2,-3,-6,-66,-34,-6,-2,-2
1501934469426213,-3,-1,0,-36,-9,-8,-5,-5
1501934469426213,0,1,8,57,18,-1,-1,0
1501934469433240,2,-1,1,30,-21,1,0,3
1501934469433240,1,3,-1,-30,10,3,0,3
1501934469449239,-7,-6,-10,3,-6,0,-1,-9
1501934469449239,0,-2,8,-17,-9,-6,-5,-2
1501934469451172,-2,-1,-7,-18,5,3,1,0
1501934469451172,1,-4,-9,12,0,-18,-5,2
1501934469471212,0,4,-6,-38,-1,19,2,-3
1501934469471212,-6,-2,2,-35,5,-10,-1,-2
1501934469473190,-3,1,0,7,-4,10,0,-6
1501934469473190,1,-1,13,-18,3,1,-1,5
1501934469486180,-4,-3,1,75,22,-4,-2,-3
1501934469486180,1,2,-4,-98,-36,-4,-1,-2
1501934469493210,0,-1,6,-67,8,-2,-1,3
1501934469493210,0,-2,12,97,4,1,-2,1
1501934469509240,0,-1,-14,-18,2,-4,-3,-1
1501934469509240,-1,1,-1,58,-8,4,1,-6
1501934469511188,0,-3,-14,-54,-6,-2,0,1
1501934469511188,0,-2,-6,50,-20,-12,-5,2
1501934469531195,-5,-3,-7,-112,-14,7,-4,-13
1501934469531195,2,0,8,98,14,1,3,6
1501934469538222,0,-1,-4,82,15,4,0,3
1501934469538222,-2,-2,-25,-22,-23,-7,-1,0
1501934469545179,0,4,13,-35,-4,-7,0,0
1501934469545179,-4,-2,-11,32,-1,-2,-5,-7
1501934469554178,1,3,16,121,50,12,4,1
1501934469554178,2,-3,-22,-75,-32,-4,-3,0
1501934469569246,0,1,16,89,12,-1,-1,0
1501934469569246,-3,-7,-24,-7,-18,-13,-4,-6
1501934469571215,-2,-3,-9,-71,-8,-4,-1,-1
1501934469571215,0,0,8,-8,19,6,1,-2
1501934469592180,1,0,7,4,-9,-7,-1,3
1501934469592180,-1,-1,2,8,21,8,5,-2
1501934469593181,0,-2,-4,-5,-20,-8,-3,0
1501934469593181,-4,0,-9,-92,1,-5,-3,-2
1501934469605191,1,4,14,79,13,19,7,3
1501934469605191,-6,-7,1,-59,-15,-15,-7,-5
1501934469614182,-2,-1,7,28,1,1,0,0
1501934469614182,-1,3,20,35,5,5,0,-7
1501934469629215,1,1,14,-11,-1,-11,-3,-1
1501934469629215,1,-1,-21,-99,-13,3,2,1
1501934469631184,-1,-2,5,61,-21,-3,1,1
1501934469631184,-1,-2,0,-9,1,0,-3,0
1501934469651216,-1,-2,-9,-42,-3,-2,-4,2
1501934469651216,-2,-1,0,-74,2,4,1,-1
1501934469653186,1,0,20,-48,9,1,-1,-1
1501934469653186,-1,-2,-8,-4,15,8,3,2
1501934469665245,-2,-3,-26,-76,-33,-8,0,0
1501934469665245,-4,-5,-19,-5,-8,-17,-7,-2
1501934469674187,-1,0,-8,22,-5,14,-1,-2
1501934469674187,2,5,14,-1,7,3,6,3
1501934469689229,1,-1,1,61,26,-1,-2,-1
1501934469689229,-1,0,2,-35,-41,-3,-3,-3
1501934469691188,-2,-2,-17,6,-7,-10,-2,-3
1501934469691188,-2,-4,-7,-7,3,2,-2,-2
1501934469712197,-3,0,5,-31,-10,-2,-1,-1
1501934469712197,3,4,24,55,23,4,4,2
1501934469713187,0,1,-24,-34,-11,4,0,3
1501934469713187,-5,-6,-5,-61,8,1,-2,-3
1501934469725216,0,-1,1,-16,-4,-5,-3,0
1501934469725216,0,2,10,52,16,0,-1,0
1501934469734194,-1,1,35,31,0,-11,-3,-4
1501934469734194,0,-5,-21,8,8,14,0,1
1501934469749232,0,-2,-10,-59,-14,5,1,2
1501934469749232,2,3,0,78,3,3,0,0
1501934469751209,-2,1,9,9,33,4,0,-2
1501934469751209,-4,-4,-7,29,-12,-17,-5,1
1501934469772213,-2,-1,1,27,7,-3,-2,-2
1501934469772213,0,0,7,28,8,12,5,0
1501934469773228,2,-1,-26,-84,-32,-10,-3,2
1501934469773228,-3,0,14,74,9,8,3,0
1501934469785213,-1,-2,-17,-56,-10,-6,-2,0
1501934469785213,-3,0,-1,-42,6,1,-1,1
1501934469794199,-2,-3,-6,7,-6,-8,-2,-2
1501934469794199,2,0,3,-70,4,-8,-1,-3
1501934469809195,1,-1,8,27,-12,5,3,-2
1501934469809195,-2,1,6,15,5,-7,-1,-3
1501934469817196,-2,-3,-4,-12,4,8,0,0
1501934469817196,3,6,13,-65,-10,-8,-1,0
1501934469831227,-1,-1,14,116,38,18,2,-1
1501934469831227,0,3,23,-46,-38,-5,0,-6
1501934469833199,-2,-4,-9,67,-1,-4,-2,-5
1501934469833199,0,-3,-22,-9,-7,0,0,1
1501934469845228,1,4,19,39,6,-8,-2,-1
1501934469845228,-2,-6,-16,9,-6,-1,-4,0
1501934469854203,0,1,4,-50,-6,3,0,-1
1501934469854203,0,0,13,48,22,-4,-2,1
1501934469869236,-1,0,7,-42,-13,0,0,-4
1501934469869236,-1,-5,-14,-24,1,-1,0,-1
1501934469871198,1,-1,-8,24,4,-3,0,5
1501934469871198,-2,-2,14,106,10,1,-3,0
1501934469892197,3,2,-4,-86,-8,0,0,7
1501934469892197,-2,-5,4,63,16,-4,-4,-5
1501934469893200,-2,-4,-6,-66,-6,0,1,-1
1501934469893200,2,0,1,2,-9,-1,-2,-1
1501934469905231,-1,-2,-8,23,-4,7,2,-1
1501934469905231,0,1,6,10,8,2,2,1
1501934469914199,0,0,-3,16,-10,-4,-1,-1
1501934469914199,-4,-8,-34,-45,-16,3,-1,-4
1501934469929199,-3,-4,-2,51,3,-12,-4,-5
1501934469929199,-4,-3,-6,-5,-3,-4,-4,-1
1501934469931204,1,-2,-7,-29,-8,3,-2,-8
1501934469931204,2,8,27,66,16,7,5,2
1501934469951234,-3,-10,-54,-84,-20,-10,-3,0
1501934469951234,-3,-1,3,24,4,-1,-3,1
1501934469953201,0,0,-3,-28,2,2,2,1
1501934469953201,-1,2,6,19,14,0,-1,-3
1501934469974201,1,-6,-19,-42,-1,-6,-1,-3
1501934469974201,0,1,5,14,-1,1,0,3
1501934469976204,0,1,16,-33,-6,-4,0,-1
1501934469976204,-2,-2,-16,69,17,3,0,0
1501934469989271,1,2,14,-23,-23,-2,-1,0
1501934469989271,2,-2,-4,-43,-3,-3,-2,-3
1501934469991244,-2,1,-2,-21,-5,-17,-5,-1
1501934469991244,-2,-5,12,64,-4,10,0,-4
1501934470011233,-1,3,9,-72,-17,0,0,-2
1501934470011233,-1,0,-10,45,-2,3,-1,-2
1501934470013204,-2,-5,-5,5,9,-4,-1,0
1501934470013204,0,2,-1,-78,-12,-8,-5,-2
1501934470034246,-2,1,11,29,9,-5,1,1
1501934470034246,-1,1,-1,-5,9,-1,2,2
1501934470036209,-1,1,14,-17,-23,2,-4,-4
1501934470036209,-4,-6,-31,-79,-17,-6,0,0
1501934470049239,-3,-1,5,13,5,3,0,-2
1501934470049239,-1,0,22,61,9,1,0,-2
1501934470051245,3,-3,-17,18,3,-7,-7,-1
1501934470051245,-4,2,13,-47,-2,13,7,-4
1501934470071209,-1,-1,-8,36,20,-8,-2,-1
1501934470071209,-1,0,9,-45,-11,9,3,0
1501934470073207,-2,-5,-16,57,13,-4,-2,-1
1501934470073207,2,2,0,-68,-34,-9,-3,-2
1501934470094220,-3,-5,-5,36,11,-4,-5,-2
1501934470094220,2,4,6,15,3,2,3,2
1501934470096210,-6,-2,12,13,8,3,-2,-3
1501934470096210,1,0,2,1,6,-2,1,7
1501934470109209,0,2,8,-14,7,1,-2,-1
1501934470109209,-7,-12,-34,-118,-64,-22,-13,-7
1501934470111246,3,3,10,17,1,7,4,11
1501934470111246,1,-1,-1,28,-1,0,0,-3
1501934470132214,-7,2,13,37,7,0,1,-5
1501934470132214,0,-1,-8,-9,8,-5,-5,2
1501934470133214,0,-2,-9,-27,-4,3,6,2
1501934470133214,-1,-1,-3,32,-1,0,-4,0
1501934470154212,4,1,-3,-77,-3,7,5,3
1501934470154212,2,3,14,104,16,-7,3,-1
1501934470156218,-7,-9,-25,21,-35,-11,-9,-7
1501934470156218,1,0,0,57,3,1,-1,-3
1501934470168246,-2,-2,12,-6,-7,-4,-2,5
1501934470168246,-2,-3,-7,33,17,4,0,-4
1501934470175222,-1,3,6,-32,12,-1,-1,-1
1501934470175222,-2,-2,5,-26,-2,-7,-5,-4
1501934470191262,8,2,-19,50,10,6,4,11
1501934470191262,-4,-4,-4,-65,19,2,-3,-9
1501934470193215,1,2,7,55,6,2,3,1
1501934470193215,-3,-1,-3,-58,-22,-18,-7,-1
1501934470214270,0,0,10,48,12,22,3,-2
1501934470214270,0,2,18,32,5,10,3,3
1501934470216218,1,-1,-14,-67,-3,-6,-1,-3
1501934470216218,-5,-5,-14,0,1,-4,-3,-7
1501934470228251,-1,-6,-29,-18,-18,-15,-7,-2
1501934470228251,1,2,12,85,8,-1,-1,-4
1501934470235280,-5,-5,-6,-39,-7,2,-2,-6
1501934470235280,5,-2,2,7,9,0,-1,6
1501934470251228,-5,1,3,-31,-15,-6,-1,-9
1501934470251228,3,2,-19,-46,-4,3,2,4
1501934470253227,0,7,31,89,16,6,3,2
1501934470253227,-5,-3,-5,38,31,-1,0,-4
1501934470274262,-1,-1,-1,45,-19,-2,-1,-3
1501934470274262,-1,-5,-6,-61,-20,-11,-2,2
1501934470276220,0,2,29,31,11,-1,-3,-11
1501934470276220,-2,-2,-14,3,-3,-9,-3,0
1501934470288271,0,-2,-8,85,18,18,2,6
1501934470288271,-4,-3,9,71,9,1,2,-4
1501934470297222,0,3,5,7,1,-3,-1,3
1501934470297222,0,0,12,9,-8,-2,0,-1
1501934470311255,-1,1,9,26,4,-15,-3,-3
1501934470311255,0,-2,-15,17,16,5,1,3
1501934470313223,1,-2,-9,-51,-1,2,-2,3
1501934470313223,-3,-1,-18,9,-8,-4,-4,-5
1501934470334288,0,1,13,54,8,-1,4,-2
1501934470334288,-1,-2,-10,12,-5,4,-1,1
1501934470336223,0,-3,-27,-54,-6,-26,-5,3
1501934470336223,3,0,-4,-77,-13,26,4,5
1501934470348280,-4,-4,9,19,7,-1,-1,-2
1501934470348280,-1,0,8,-18,8,-4,-2,-1
1501934470355257,0,-2,-6,-42,-19,1,0,1
1501934470355257,-1,-2,9,80,6,-10,-3,-4
1501934470371267,-1,-4,-28,-63,-3,-9,-4,-1
1501934470371267,1,-1,4,-20,-1,8,2,-5
1501934470373236,-2,-1,0,50,-3,6,1,-2
1501934470373236,-1,-6,-16,38,-6,-3,1,3
1501934470394225,-7,-2,1,34,13,-3,-4,-18
1501934470394225,2,1,11,87,8,-4,-3,3
1501934470396227,0,0,-2,86,17,6,0,1
1501934470396227,-2,4,32,-20,19,-2,-3,-2
1501934470409286,1,0,-13,-41,-18,-1,2,6
1501934470409286,-4,-6,-28,-90,-42,-15,-6,-3
1501934470415291,-4,-4,0,-17,-1,3,-1,-3
1501934470415291,2,1,6,27,10,-11,1,2
1501934470431238,1,1,20,-18,2,22,1,1
1501934470431238,0,0,-11,-35,-3,-2,-1,2
1501934470433229,-3,-2,-7,-46,-4,-3,-1,-5
1501934470433229,-3,-2,-14,-33,-16,-7,-3,-7
1501934470454263,1,3,11,-27,-10,-13,-5,1
1501934470454263,-6,3,30,94,13,6,3,-1
1501934470456233,-5,-7,-20,14,16,4,-3,-3
1501934470456233,1,-4,8,-6,-9,7,2,0
1501934470468239,-4,-4,3,-67,-12,-6,-1,-6
1501934470468239,5,-1,4,33,1,-8,-5,9
1501934470477232,3,1,3,55,9,2,1,2
1501934470477232,-2,3,6,-39,10,12,2,0
1501934470491243,2,-1,-10,-36,-10,-8,-3,3
1501934470491243,-3,-2,-25,-66,-5,-5,-2,-4
1501934470493235,-2,0,11,-16,0,-1,0,0
1501934470493235,-1,-2,-22,15,-12,0,-1,1
1501934470514235,0,0,0,-5,8,-10,-2,1
1501934470514235,-4,-1,8,2,-15,18,-1,-2
1501934470516234,1,1,6,-8,-16,-2,1,1
1501934470516234,-2,0,-6,50,6,-1,-2,-4
1501934470528234,-4,-5,3,14,-7,-9,-5,-2
1501934470528234,-2,0,0,-4,2,-3,2,-2
1501934470537235,1,-1,2,-18,-10,0,-1,1
1501934470537235,0,3,22,94,27,4,-1,2
1501934470551269,0,-4,-20,-36,-22,-14,-4,-3
1501934470551269,0,-2,-4,-26,1,6,3,2
1501934470553239,0,-2,3,-4,-4,6,0,-8
1501934470553239,2,1,3,-15,0,-3,0,0
1501934470574270,-1,0,-4,77,10,4,-1,7
1501934470574270,-2,0,4,-1,0,-5,-6,-4
1501934470576245,-1,-2,-2,-2,-3,-1,0,9
1501934470576245,0,0,1,-2,-7,-3,2,-1
1501934470588270,2,-2,-4,-8,0,0,-4,-6
1501934470588270,5,0,-6,-29,-2,11,6,5
1501934470597249,-6,-2,0,29,4,-4,-2,-9
1501934470597249,-1,0,-10,-19,-13,1,-2,2
1501934470611250,-3,-3,2,-8,-2,-3,-1,0
1501934470611250,4,1,-2,4,-1,-11,-6,-5
1501934470613241,-5,-1,-1,13,3,0,0,-3
1501934470613241,-3,-2,-2,-33,-7,1,-3,1
1501934470634275,-1,-1,4,-1,-1,1,9,-5
1501934470634275,0,-1,-2,-6,2,3,-4,-1
1501934470636241,3,1,-6,-10,-4,-6,-1,-7
1501934470636241,2,-3,0,-15,-4,3,-2,10
1501934470648240,-1,-3,4,66,3,0,-10,8
1501934470648240,-3,-2,-9,-50,-5,-11,2,-3
1501934470663243,6,1,-2,2,-4,-10,-4,2
1501934470663243,-4,-1,-1,-11,0,16,5,-8
1501934470671255,0,2,0,-9,4,-1,0,5
1501934470671255,2,-1,1,-10,0,3,-1,-4
1501934470673244,-3,-2,-2,-6,-2,-4,2,12
1501934470673244,-1,0,1,13,-2,-7,-6,-12
1501934470694246,-7,-1,-1,-9,-1,5,4,-16
1501934470694246,9,0,2,9,-5,-13,-9,8
1501934470696244,-4,-2,-2,-7,3,8,1,-1
1501934470696244,-6,-1,-2,3,-2,-4,10,10
1501934470708244,-3,0,-2,-7,-6,-11,0,4
1501934470708244,-4,0,-1,0,2,1,15,-7
1501934470717247,1,0,1,0,2,9,-17,-2
1501934470717247,-3,-5,-2,-8,-3,2,4,-9
1501934470732246,-1,-3,0,-2,0,1,-8,-4
1501934470732246,-5,-3,1,6,-3,-9,-3,6
1501934470738246,0,-2,-3,-9,-4,-8,-4,-7
1501934470738246,-2,0,-3,-5,-1,-4,-1,-5
1501934470754247,1,0,-1,-11,1,4,5,7
1501934470754247,-2,0,1,36,2,7,-1,-5
1501934470756251,-2,-2,-6,-9,-7,-3,-3,-6
1501934470756251,-3,-2,5,-3,-2,-8,1,2
1501934470776267,-1,0,-8,-37,0,3,-3,-1
1501934470776267,-2,0,13,-21,5,-2,-5,-1
1501934470778254,-3,-2,-7,35,-3,0,9,4
1501934470778254,2,0,-7,-23,-5,-7,-7,-2
1501934470791283,0,0,6,36,5,5,5,0
1501934470791283,-3,-2,-11,-78,-8,-4,-2,0
1501934470798250,-1,1,6,13,5,-1,-1,4
1501934470798250,2,-1,-2,-54,2,0,-8,-4
1501934470814293,0,-2,-5,53,-1,-1,1,-2
1501934470814293,-1,0,-6,8,2,2,1,2
1501934470816252,-1,1,3,-15,-4,1,0,-1
1501934470816252,0,-1,-6,-2,-2,-4,7,2
1501934470828251,1,-1,7,-18,1,2,-3,1
1501934470828251,-2,0,-7,64,-3,-4,-5,-1
1501934470837253,-1,-2,-4,-12,-4,-4,-4,-5
1501934470837253,0,-1,3,17,8,9,-8,1
1501934470851321,-2,-2,-3,42,-2,-4,5,-7
1501934470851321,-2,-1,-3,-62,-5,4,-6,0
1501934470858256,-1,-2,4,6,0,-8,-8,-1
1501934470858256,-1,0,-2,31,-4,-5,-2,4
1501934470874297,-4,-2,-1,-5,-3,-1,-2,1
1501934470874297,0,0,0,-2,-1,-3,6,8
1501934470876255,-2,1,-3,-6,0,2,2,-8
1501934470876255,3,-1,1,-40,0,-1,-5,-4
1501934470896283,8,1,-4,-33,1,2,3,1
1501934470896283,-14,-3,1,67,-7,-7,-8,-5
1501934470898267,0,-2,-16,-29,-2,0,3,1
1501934470898267,-2,-1,5,38,-1,-2,-6,0
1501934470911256,-2,-1,-2,-60,1,-1,-2,-10
1501934470911256,3,1,1,51,8,3,2,-4
1501934470918258,-3,-2,7,-2,-2,2,1,-1
1501934470918258,-2,-1,1,9,-3,-3,1,-4
1501934470934258,-1,-1,-5,-20,-5,-3,-6,1
1501934470934258,2,-1,2,0,3,2,2,0
1501934470935259,-2,0,1,5,-2,-2,2,-1
1501934470935259,-2,-1,0,11,0,0,-1,3
1501934470956269,0,0,4,18,0,0,-2,-1
1501934470956269,-1,-1,-2,-13,-2,-1,-1,-5
1501934470958262,0,1,-3,-7,1,0,2,0
1501934470958262,-2,-2,-4,-10,-5,-1,1,-3
1501934470971261,-2,-2,-2,22,-2,-2,-6,-2
1501934470971261,-1,0,-1,-21,0,-1,-2,-5
1501934470978260,0,-1,1,-6,0,1,0,1
1501934470978260,-2,-1,-2,14,-2,-1,-2,-2
1501934470994262,-1,-2,0,-4,-4,-2,-1,2
1501934470994262,1,1,2,-13,-2,-4,-6,-1
1501934470996262,-1,-1,1,1,6,6,9,1
1501934470996262,1,1,-1,10,-2,-1,1,0
1501934471016272,-3,0,-1,-9,-4,-7,-3,1
1501934471016272,1,-2,-1,-13,2,1,-2,-1
1501934471018266,-1,0,-2,2,0,-6,-5,-1
1501934471018266,0,-2,-2,-16,-2,-2,-1,0
1501934471031262,0,0,3,33,1,2,-1,3
1501934471031262,-2,-2,-5,-9,-5,-4,2,0
1501934471038277,-2,-1,10,-3,-1,0,-4,-2
1501934471038277,-1,-1,-6,-1,-1,2,0,-1
1501934471054264,-1,-3,-2,-43,1,-1,-2,-1
1501934471054264,-2,-2,2,17,-3,-1,-1,-2
1501934471056268,1,-2,-5,-7,-1,1,-1,1
1501934471056268,-1,0,1,2,-1,-4,-1,-1
1501934471076267,-2,1,2,0,1,1,0,-2
1501934471076267,0,-1,1,-9,1,-1,0,-2
1501934471078267,-2,-1,-6,-11,-6,-4,1,0
1501934471078267,-2,-2,2,1,1,-1,-1,-3
1501934471091268,-1,0,-3,8,0,-1,0,0
1501934471091268,-1,-1,-1,-8,-4,-2,-2,0
1501934471098268,0,-1,-1,6,-2,-3,0,0
1501934471098268,-3,-1,-1,3,0,-1,-1,-1
1501934471114274,-3,-3,0,3,0,1,-1,-2
1501934471114274,0,1,-2,-6,0,1,0,-2
1501934471115270,0,-1,-4,-7,-1,-1,-2,-3
1501934471115270,1,-1,-3,7,-4,0,0,-2
1501934471136274,-2,-1,-4,-9,-3,-3,-3,-2
1501934471136274,-2,-2,2,15,3,2,-2,-1
1501934471138272,-1,-2,0,23,-2,-1,-1,-2
1501934471138272,0,-1,-3,-17,0,-1,1,0
1501934471150277,-1,-1,-5,-10,-9,0,0,-2
1501934471150277,-1,-3,-1,5,-1,-2,-1,0
1501934471159271,-2,-2,1,2,4,-2,-1,-2
1501934471159271,-1,-3,-1,1,-3,-1,-2,-2
1501934471174281,1,0,1,9,3,-1,0,0
1501934471174281,0,0,-4,-16,-3,2,-1,-1
1501934471176271,0,0,4,2,7,0,-2,1
1501934471176271,-2,-2,0,2,-1,1,-1,1
1501934471204308,-1,-1,-2,-10,2,2,3,-1
1501934471204308,0,-1,-2,-9,-4,-2,1,-2
1501934471206275,0,0,-4,-13,-5,-1,-4,0
1501934471206275,-1,-1,1,16,4,-2,-2,-3
1501934471210307,-1,0,-1,2,-2,-2,-3,-2
1501934471210307,-2,-1,-2,-14,-4,0,-1,0
1501934471219284,0,0,0,7,1,0,0,1
1501934471219284,-1,-1,1,10,-1,-1,-1,-1
1501934471234287,1,-2,0,-6,2,-2,-2,-1
1501934471234287,-1,1,-1,3,0,-1,1,-1
1501934471235277,0,-1,-4,-9,-5,-3,-3,-1
1501934471235277,0,0,-2,-18,0,0,-2,1
1501934471256277,-3,-1,1,18,1,-1,-3,-2
1501934471256277,-1,0,-2,-8,-1,0,0,-1
1501934471258278,-1,-2,-3,4,-3,-2,-2,-3
1501934471258278,0,0,-2,-9,1,-1,-1,0
