timestamp,emg1,emg2,emg3,emg4,emg5,emg6,emg7,emg8
1501934104408408,-18,-32,-77,-8,-28,-28,-18,-16
1501934104408408,4,10,-16,-48,-31,-4,0,0
1501934104409401,-3,0,70,51,7,3,-3,-6
1501934104409401,7,8,33,67,37,24,13,6
1501934104410400,-5,-2,-8,-111,-85,-17,-11,-6
1501934104410400,-2,2,-7,65,16,-5,-2,-4
1501934104410400,-6,-17,-70,75,-6,-1,2,0
1501934104410400,3,4,6,110,16,11,3,1
1501934104418399,9,12,33,-45,7,15,5,3
1501934104418399,-20,-25,15,47,-28,-26,-15,-13
1501934104430406,4,17,49,-56,-42,0,3,9
1501934104430406,-19,-32,-62,39,-28,-31,-22,-19
1501934104438401,-3,0,-3,-12,12,1,-2,-6
1501934104438401,7,10,-9,-80,6,19,9,6
1501934104445441,-8,-20,-35,61,0,0,-3,-6
1501934104445441,-3,6,26,61,33,-1,-6,-1
1501934104460442,12,26,103,62,48,7,8,8
1501934104460442,15,17,41,33,2,18,12,8
1501934104475446,-14,-29,-33,-24,-9,-15,-13,-11
1501934104475446,-3,-5,-26,-112,-24,-15,-5,-3
1501934104515415,14,27,96,7,55,23,16,10
1501934104515415,-15,-21,-84,-103,-25,-15,-14,-8
1501934104516407,-2,-2,32,44,-6,-8,-6,-11
1501934104516407,10,13,-5,49,52,21,9,9
1501934104520476,12,0,-14,-76,-41,-9,-1,1
1501934104520476,-26,-6,31,-80,-29,-14,-10,-11
1501934104521406,4,15,61,35,3,-2,2,6
1501934104521406,-18,-34,-78,-9,-35,-12,-10,-13
1501934104526467,4,2,-61,3,-6,7,1,1
1501934104526467,11,-2,-69,102,8,6,12,3
1501934104535408,-5,-4,43,53,-19,-8,-6,-4
1501934104535408,8,14,87,64,21,10,6,11
1501934104541451,0,-1,-83,0,-39,0,0,3
1501934104541451,2,9,79,-17,48,5,-2,-2
1501934104557426,-13,-18,-18,59,-33,-28,-14,-11
1501934104557426,4,2,15,30,56,18,8,3
1501934104563466,-16,-18,-32,-35,-46,-14,-11,-10
1501934104563466,3,5,8,61,22,3,0,1
1501934104587426,14,18,23,-30,-10,18,9,9
1501934104587426,-19,-19,-64,-52,-34,-22,-12,-6
1501934104587426,-15,-18,7,-23,-23,-14,-15,-11
1501934104587426,4,4,4,105,27,9,3,5
1501934104602420,-3,-14,-54,-11,17,2,-2,-6
1501934104602420,4,10,50,-41,-26,0,0,-3
1501934104602420,-4,-2,52,124,41,-1,3,-2
1501934104602420,5,2,3,-59,-18,-3,0,0
1501934104624477,1,-1,-52,-80,14,10,8,5
1501934104624477,3,12,33,-12,35,1,0,1
1501934104625412,1,1,33,100,0,-3,1,-2
1501934104625412,12,12,63,53,59,28,10,6
1501934104647430,-21,-23,-73,5,-82,-45,-23,-15
1501934104647430,-2,3,2,81,4,-2,-2,-6
1501934104647430,8,20,38,-7,9,5,7,9
1501934104647430,-12,-19,16,79,-14,-11,-7,-9
1501934104662424,16,-2,38,-80,-3,16,5,5
1501934104662424,-22,2,-15,18,-6,-1,1,-4
1501934104662424,8,11,54,96,80,29,6,6
1501934104662424,-1,-4,7,-51,-26,-16,-2,-1
1501934104684463,9,20,76,85,61,13,8,9
1501934104684463,-8,-28,-71,-41,-61,-24,-15,-9
1501934104685418,-2,4,10,-53,3,-3,0,-4
1501934104685418,-6,-4,-44,68,4,0,-5,-5
1501934104707437,-7,-6,5,-96,-34,1,-1,-1
1501934104707437,16,10,-49,98,27,8,9,10
1501934104707437,-15,-22,-40,-101,-32,-15,-9,-7
1501934104707437,-1,-4,1,-15,-51,-10,-3,-2
1501934104721481,-3,1,-19,6,10,-6,-3,-3
1501934104721481,8,7,23,78,50,21,9,4
1501934104728484,-8,-21,-18,-66,5,-16,-18,-8
1501934104728484,0,10,58,76,14,1,4,2
1501934104744488,6,9,-22,42,40,18,10,7
1501934104744488,8,20,78,-95,-5,7,4,2
1501934104745419,-9,-13,-39,127,-4,-12,-6,-6
1501934104745419,6,8,-15,-57,-25,-2,3,0
1501934104767440,-5,-6,-14,117,27,4,-2,-2
1501934104767440,1,-5,-5,-71,-25,-12,-6,-4
1501934104767440,-2,5,-13,61,0,3,0,-2
1501934104767440,10,14,25,27,51,27,17,16
1501934104781478,-3,1,39,81,-1,-8,-6,-8
1501934104781478,1,-1,11,54,6,-11,-8,-3
1501934104788462,0,-3,-39,-8,-14,6,5,2
1501934104788462,-1,-6,-20,-92,-4,-4,0,2
1501934104804490,2,3,2,1,6,20,3,2
1501934104804490,-1,-6,2,62,-15,-10,1,1
1501934104805435,7,16,65,66,21,0,1,3
1501934104805435,-10,-19,-91,-31,-41,-1,-11,-9
1501934104827439,-1,-3,-26,-14,-1,-17,-2,0
1501934104827439,-11,-15,0,47,20,-13,-12,-11
1501934104827439,-3,-2,1,-38,-21,4,1,-3
1501934104827439,-4,-6,-15,-19,-15,-6,-4,-3
1501934104841468,2,6,14,2,3,5,3,4
1501934104841468,-3,-7,-23,-74,-55,-10,-6,-3
1501934104848437,6,9,33,28,28,10,9,5
1501934104848437,-3,-1,19,37,-9,-6,-11,-4
1501934104864472,-11,-20,-82,-99,-35,-6,0,-8
1501934104864472,3,6,40,17,36,6,2,2
1501934104865440,-8,-11,-30,15,-10,-6,-6,-3
1501934104865440,1,-1,7,70,4,-12,-8,-3
1501934104887454,1,0,-9,27,22,5,3,0
1501934104887454,2,4,12,-35,-14,2,2,1
1501934104887454,0,-3,-1,-33,-9,-10,-4,-1
1501934104887454,4,10,16,-22,0,7,4,3
1501934104901471,3,3,-4,13,11,1,2,2
1501934104901471,4,10,60,46,41,12,3,3
1501934104908458,-8,-14,-40,-32,-20,-12,-8,-6
1501934104908458,5,9,21,44,11,3,5,3
1501934104924472,-2,1,14,-69,0,-1,-4,-3
1501934104924472,-3,-7,-48,-31,-15,1,0,-2
1501934104925430,0,2,33,-17,3,-3,-1,-2
1501934104925430,1,2,10,-40,1,-5,1,1
1501934104947441,-3,-3,-12,-18,18,2,-2,-1
1501934104947441,-3,-6,-26,-57,-45,-10,-4,-2
1501934104947441,2,2,-23,81,6,9,5,1
1501934104947441,1,-2,-12,62,43,5,2,-2
1501934104961478,-6,-6,-13,-68,-66,-17,-8,-4
1501934104961478,-2,-4,12,-37,1,3,0,-3
1501934104968470,3,7,-12,-4,13,-2,2,2
1501934104968470,-1,1,69,67,-9,0,-6,-3
1501934104984208,0,-2,-44,10,14,-2,3,1
1501934104984208,-7,-10,-45,18,-20,-3,-1,-2
1501934104985143,-4,-6,4,-116,-12,-7,-6,-4
1501934104985143,-3,6,18,41,21,4,2,0
1501934105007187,10,3,19,124,36,12,5,12
1501934105007187,-1,0,33,-128,-49,-13,-6,-7
1501934105008153,-1,1,-30,-21,-2,6,1,-1
1501934105008153,0,-4,-8,37,10,-7,-3,-2
1501934105021159,0,-2,-22,-60,10,3,2,0
1501934105021159,4,4,-8,76,8,3,2,3
1501934105029167,0,-2,46,48,0,-4,0,1
1501934105029167,-3,-5,-38,-31,-29,0,-2,-2
1501934105044189,-3,1,-6,7,-4,4,0,-2
1501934105044189,-4,-6,-1,100,37,-9,-6,-1
1501934105045166,-10,-15,-72,42,-58,-20,-13,-9
1501934105045166,6,1,-14,-103,-9,-1,2,2
1501934105067211,-7,3,28,36,-4,-8,-1,-13
1501934105067211,-5,-1,-24,37,13,11,7,-3
1501934105068149,12,8,25,-8,15,12,6,16
1501934105068149,4,1,11,57,29,3,-3,1
1501934105083151,-2,-14,-25,-88,-65,-14,-6,5
1501934105083151,16,1,-48,-116,-49,-7,6,8
1501934105089157,-15,1,15,-21,15,7,-9,0
1501934105089157,-24,-6,11,-18,-13,-10,-1,-37
1501934105104193,0,2,31,16,8,2,-3,41
1501934105104193,-14,3,28,-14,19,2,-3,-48
1501934105105150,-1,-8,-70,7,11,9,2,-7
1501934105105150,20,-2,-15,-126,-37,-2,6,47
1501934105127219,6,10,46,64,30,8,-9,-16
1501934105127219,-29,-5,-33,-41,3,-1,0,-49
1501934105128151,1,10,62,-9,1,-6,1,-13
1501934105128151,16,-3,-20,21,0,-1,-1,16
1501934105149160,-6,5,5,-23,-21,1,2,-20
1501934105149160,16,6,31,24,21,4,0,35
1501934105150153,-9,-3,21,35,-1,-9,4,-23
1501934105150153,10,2,43,-68,-21,2,-2,-6
1501934105164155,-26,-3,-10,53,6,-5,1,-16
1501934105164155,1,-3,14,-32,5,-8,-13,9
1501934105165154,-16,2,19,-25,-8,0,-1,-16
1501934105165154,3,3,-37,-32,9,6,2,5
1501934105187215,23,-8,-45,103,37,5,7,53
1501934105187215,-7,-8,16,43,-51,-10,-5,-27
1501934105188157,-20,0,26,47,11,-22,-9,-23
1501934105188157,10,-7,-28,1,-12,9,-1,24
1501934105209168,6,-3,1,53,11,-6,-6,-47
1501934105209168,6,4,-13,-58,-9,16,3,9
1501934105210157,13,-2,-11,-35,-1,2,0,30
1501934105210157,-14,-3,0,24,-23,-11,-10,-29
1501934105224201,-11,6,37,28,18,3,5,-8
1501934105224201,1,-9,-22,77,4,-4,-5,10
1501934105225172,-7,-9,-31,-77,-13,-9,-4,-14
1501934105225172,-8,-1,-1,-23,-5,-7,-5,-4
1501934105247228,-2,3,14,-55,-6,2,-3,-22
1501934105247228,-6,3,-17,5,9,4,6,6
1501934105248160,22,5,16,-7,19,10,3,23
1501934105248160,-9,-3,-42,101,13,3,2,-11
1501934105269201,2,-3,37,-12,-17,-16,-9,9
1501934105269201,4,2,37,-62,-35,-13,-1,2
1501934105270161,-19,-16,-89,-90,-30,-6,-5,0
1501934105270161,7,1,6,-15,10,16,4,14
1501934105284197,-7,3,33,32,11,-3,2,-2
1501934105284197,2,12,1,15,49,5,9,-17
1501934105285184,-7,-18,-38,-33,-38,-6,-18,-15
1501934105285184,-5,-2,-1,-19,-1,-13,2,-8
1501934105307203,2,-3,-43,8,-4,-1,-2,-7
1501934105307203,11,0,12,-19,22,8,3,19
1501934105308167,5,3,-40,-18,14,4,2,-10
1501934105308167,-28,-24,-20,51,-16,-24,-17,-27
1501934105329164,3,1,3,-27,8,6,2,13
1501934105329164,1,-1,9,-44,-39,-1,1,13
1501934105330196,14,2,-6,117,23,-2,2,26
1501934105330196,6,9,32,-77,-3,0,-1,-11
1501934105344227,-14,12,47,8,-7,5,6,-34
1501934105344227,4,-14,-38,40,33,0,-12,4
1501934105345177,-11,7,38,6,-16,-1,2,-5
1501934105345177,3,-1,-32,-74,-6,2,8,19
1501934105367208,7,-10,-33,-118,-26,2,-5,10
1501934105367208,-11,14,33,20,12,6,2,-29
1501934105368168,2,-11,-23,33,-17,-9,-5,4
1501934105368168,0,-1,9,-30,0,2,3,27
1501934105389206,6,-1,-15,60,50,8,2,1
1501934105389206,-15,-14,-14,-9,-56,-20,-20,-2
1501934105390166,-5,5,30,-75,13,2,8,-3
1501934105390166,0,-6,-13,-25,-19,-10,-6,-8
1501934105404227,9,5,-10,93,27,14,7,22
1501934105404227,7,7,-4,-110,-22,0,9,28
1501934105405168,-5,-2,-9,-27,2,0,-4,15
1501934105405168,3,4,15,81,29,2,1,22
1501934105427234,-7,7,29,-128,-35,-1,-4,7
1501934105427234,-15,-19,-46,38,-21,-11,0,-8
1501934105428170,4,3,5,-25,16,6,5,-12
1501934105428170,13,14,55,95,9,0,4,-9
1501934105449242,-7,-15,-52,-53,-52,7,-4,12
1501934105449242,5,-2,22,33,13,-6,-4,16
1501934105450170,-10,7,14,75,22,10,4,-18
1501934105450170,-12,-13,-18,38,8,-3,2,-8
1501934105464236,9,6,-1,3,-17,-10,-5,-33
1501934105464236,-13,-6,-22,-4,0,-2,-2,11
1501934105465172,26,-1,2,-27,-9,-5,-2,51
1501934105465172,29,13,31,57,40,17,9,19
1501934105486210,-5,-6,-1,-77,-30,-16,-10,-10
1501934105486210,10,3,-9,48,10,4,7,21
1501934105494223,-14,-1,34,114,4,-1,-2,10
1501934105494223,-31,-19,-90,-107,-16,-7,-19,-91
1501934105509237,27,-2,16,18,-4,-2,15,55
1501934105509237,-11,-1,23,113,31,7,-12,-12
1501934105510174,17,7,6,-63,-15,6,7,-17
1501934105510174,-29,0,12,-44,-18,-3,0,-1
1501934105532247,8,-1,10,109,3,-4,-13,4
1501934105532247,-30,-3,-1,-25,14,7,4,-29
1501934105533217,-9,0,20,-37,3,1,0,12
1501934105533217,21,2,17,34,-10,-8,-5,46
1501934105546242,-23,-11,-18,30,11,-7,-13,-46
1501934105546242,6,5,13,-20,-15,-6,4,5
1501934105554238,11,3,-4,105,52,10,2,-2
1501934105554238,-25,-14,1,-59,-40,-13,-7,-20
1501934105569219,-6,11,29,13,26,6,7,13
1501934105569219,19,-2,-6,4,-6,1,-4,-1
1501934105570213,20,4,52,-25,-26,-4,-4,32
1501934105570213,9,-11,-58,-7,3,-8,-4,38
1501934105593212,-9,-4,14,-15,7,1,4,-6
1501934105593212,10,3,9,55,5,2,-3,-19
1501934105593212,-5,6,-12,72,34,17,7,-37
1501934105593212,14,4,55,-71,-31,-18,-8,16
1501934105615191,-28,1,-21,16,2,-6,0,-43
1501934105615191,-8,-9,-34,-15,-2,5,-3,-28
1501934105616182,14,10,86,83,15,-1,-1,19
1501934105616182,-16,-5,-43,54,1,3,-5,-46
1501934105629229,-5,-9,-33,8,28,-3,2,10
1501934105629229,17,3,3,-40,-19,-9,1,55
1501934105630195,-22,-5,2,25,-9,-4,-2,-30
1501934105630195,-1,5,-10,-70,13,18,8,11
1501934105653201,30,-3,1,8,-3,-2,3,72
1501934105653201,-1,2,28,-14,-4,-3,1,-24
1501934105653201,-4,-4,-27,-14,-5,-3,-6,-3
1501934105653201,6,2,15,52,7,0,5,5
1501934105675231,14,-1,-16,-99,-19,6,-1,8
1501934105675231,27,6,18,9,4,-21,3,71
1501934105676186,-6,-10,-39,-40,-9,6,-1,13
1501934105676186,3,10,18,-26,-1,13,8,16
1501934105689227,-17,-7,-22,62,19,-3,-15,-65
1501934105689227,-1,-1,10,54,10,1,13,-12
1501934105690212,-12,0,-17,-110,-41,-13,-3,-34
1501934105690212,-15,-2,21,127,50,4,-1,-20
1501934105712229,16,0,7,-40,-19,-10,-6,26
1501934105712229,-23,1,5,-23,-3,10,-7,-75
1501934105713224,-7,5,2,29,24,1,2,-36
1501934105713224,3,-6,25,12,-15,-10,-8,1
1501934105735188,-9,-6,-43,-16,-13,-5,-5,-7
1501934105735188,1,-3,-13,-41,-12,7,-2,20
1501934105736189,-3,8,35,-99,-32,-3,7,46
1501934105736189,4,-14,-91,-106,-8,-8,-6,-13
1501934105749199,-16,-1,31,57,0,-8,-1,-10
1501934105749199,8,5,20,-17,6,-16,4,-3
1501934105757230,14,-10,-72,-72,4,29,11,17
1501934105757230,-1,-2,10,-58,-19,-6,-14,11
1501934105772237,-3,5,11,-24,2,7,6,-32
1501934105772237,8,-3,-16,-15,21,-5,-9,-5
1501934105773232,18,4,-2,83,11,-7,-1,14
1501934105773232,2,13,67,6,25,10,10,-22
1501934105795257,9,-7,-44,20,-13,-7,-3,2
1501934105795257,-9,9,29,26,7,9,3,10
1501934105796193,12,-15,-75,-104,-18,-6,-4,-9
1501934105796193,-29,12,62,116,23,8,2,-17
1501934105809240,0,-4,3,-79,2,-5,-1,-6
1501934105809240,2,9,50,117,-1,9,4,-10
1501934105810211,-2,-12,-40,-19,-8,-6,-3,34
1501934105810211,15,10,-9,-8,17,4,3,48
1501934105833196,13,-3,18,-51,-21,-7,5,5
1501934105833196,-15,-10,-27,80,28,7,-6,-3
1501934105833196,-11,6,49,31,12,1,-4,-75
1501934105833196,8,-3,-49,31,-8,-3,-2,11
1501934105854267,-5,-4,11,-88,-38,-11,-5,4
1501934105854267,12,2,0,1,-13,4,2,16
1501934105862237,2,-4,25,125,0,-15,-5,-1
1501934105862237,2,-3,-15,-40,-4,9,9,-26
1501934105869236,-10,-5,-27,75,16,4,-1,28
1501934105869236,-10,7,30,-52,-16,-4,-8,-39
1501934105870195,-4,-1,-10,63,29,4,1,-4
1501934105870195,7,-2,8,31,-10,-8,2,8
1501934105893263,-2,10,14,52,7,13,-2,-5
1501934105893263,2,-4,-2,19,17,0,1,17
1501934105894231,-8,-15,-53,-32,-5,-26,-7,-1
1501934105894231,16,5,15,4,33,22,5,-2
1501934105915260,10,7,-2,117,2,0,6,12
1501934105915260,-15,-12,-22,-16,-17,-4,-6,-33
1501934105916211,4,10,67,-71,-6,-6,-5,1
1501934105916211,-5,-3,-12,-9,-8,-6,-1,8
1501934105929237,-2,-2,0,-5,4,-3,1,-1
1501934105929237,9,0,-19,-87,1,0,-4,3
1501934105930200,-21,-3,11,16,-41,-6,-8,-19
1501934105930200,-3,1,8,31,4,-1,1,-2
1501934105952201,6,9,46,-51,9,8,-1,-2
1501934105952201,-17,-12,-49,-64,-26,-11,-6,-3
1501934105953232,7,0,-5,12,-9,1,3,19
1501934105953232,-7,0,-13,16,11,-1,-3,-11
1501934105975211,-11,-4,-2,32,27,8,4,6
1501934105975211,15,-4,4,-60,-39,-3,-3,15
1501934105976203,7,9,29,-20,0,13,1,2
1501934105976203,-2,-8,-24,-4,-17,-14,-2,3
1501934105989259,-7,8,9,-10,17,7,2,-10
1501934105989259,0,-5,-11,-51,-12,6,8,36
1501934105990235,-9,-3,1,-12,-3,-13,-8,-20
1501934105990235,-8,-13,-32,-42,-18,-9,-2,-20
1501934106012245,-2,-1,7,-43,-18,2,-6,8
1501934106012245,9,7,3,64,26,-2,1,3
1501934106013238,-19,-8,-13,28,-3,0,-3,5
1501934106013238,17,8,55,-79,-15,-4,2,45
1501934106035259,-15,-11,-32,82,28,-2,-2,-19
1501934106035259,-2,-5,0,-33,-28,-13,-3,-3
1501934106036217,15,10,4,54,35,16,7,23
1501934106036217,-25,-4,-1,2,-14,-2,-9,-15
1501934106049251,7,-1,-5,25,6,4,0,-4
1501934106049251,5,1,0,9,13,-1,1,8
1501934106050221,-1,1,-11,18,-8,3,2,-5
1501934106050221,3,-6,18,78,0,-6,0,5
1501934106072250,4,13,67,27,10,3,0,-20
1501934106072250,-24,-19,-18,-50,-13,-16,-9,-15
1501934106073244,3,2,13,4,-10,-3,5,-3
1501934106073244,8,-4,-42,-54,7,6,-2,-4
1501934106095249,-16,-3,-3,64,-20,-11,1,3
1501934106095249,13,8,18,69,3,1,-5,-15
1501934106096211,32,3,-4,27,7,5,1,20
1501934106096211,-12,3,25,29,-10,4,5,-22
1501934106109270,-16,-15,-26,-126,-29,-1,-6,-11
1501934106109270,-11,9,20,82,27,9,7,6
1501934106110209,5,-13,-64,-128,-57,-14,-4,19
1501934106110209,-2,9,3,43,1,6,-2,-13
1501934106133210,-5,-10,-41,-51,-24,-9,1,-15
1501934106133210,4,4,9,22,25,11,6,0
1501934106133210,-11,7,82,66,77,1,-5,8
1501934106133210,-4,-11,-39,59,-25,-13,-3,4
1501934106155271,8,2,-6,-58,0,4,4,16
1501934106155271,-1,-2,-24,43,-1,8,5,-5
1501934106156220,-10,-2,-4,7,2,-5,-3,-33
1501934106156220,6,-2,0,-128,-55,-19,-6,14
1501934106169255,6,-5,10,44,18,-6,-9,1
1501934106169255,-7,1,0,81,5,4,5,6
1501934106170248,-15,-8,-13,82,3,-1,-5,-25
1501934106170248,-8,-3,-16,65,23,-1,0,-3
1501934106193255,7,6,24,-32,-24,-2,-2,-18
1501934106193255,-9,-8,-16,-105,-39,-10,-8,-15
1501934106194215,5,-4,29,11,-17,-6,0,4
1501934106194215,6,12,35,27,10,3,1,-3
1501934106215271,1,-5,-23,51,-16,-17,-3,13
1501934106215271,-9,-8,-37,-30,27,17,-3,40
1501934106216224,-14,-10,-5,50,-20,-14,-6,51
1501934106216224,10,5,-14,-11,19,20,8,-7
1501934106229233,5,1,9,-65,-11,-11,-4,8
1501934106229233,-4,-5,-15,-59,-30,-11,-7,-10
1501934106237285,3,2,16,-10,4,7,3,12
1501934106237285,-12,-4,1,5,-11,-14,0,-17
1501934106252224,5,21,70,3,19,17,5,14
1501934106252224,2,-8,-12,68,40,3,-1,-18
1501934106253239,13,8,5,-61,-36,2,4,17
1501934106253239,-17,-6,-22,-72,-7,-3,-1,-27
1501934106275285,7,3,-37,27,11,5,5,-12
1501934106275285,9,6,6,121,21,-17,2,8
1501934106276221,-2,-2,-39,-99,-36,16,2,-4
1501934106276221,3,9,57,23,29,-3,-5,13
1501934106289241,-11,-15,-34,9,-13,6,1,3
1501934106289241,13,5,-14,-40,-43,-6,3,-5
1501934106297258,-36,-4,-14,50,25,0,-6,-61
1501934106297258,9,1,-6,33,-1,-18,-2,-4
1501934106312262,-8,-10,-24,22,16,15,-6,-44
1501934106312262,-1,4,38,-77,9,10,2,14
1501934106313263,-12,-11,-21,13,4,-26,-9,-26
1501934106313263,12,1,22,-45,-1,13,11,24
1501934106335276,9,4,5,85,36,-8,-15,22
1501934106335276,-3,1,-16,-99,-54,-2,7,-5
1501934106336223,6,8,35,34,15,20,8,10
1501934106336223,2,-5,3,112,16,-5,-4,-3
1501934106349229,-8,-11,-25,-7,-27,-16,-3,10
1501934106349229,11,9,49,38,-5,4,-4,2
1501934106357266,14,5,-17,12,17,1,8,42
1501934106357266,-12,-17,-54,7,12,-8,-9,-10
1501934106372292,5,10,29,-28,-17,11,9,3
1501934106372292,3,4,31,119,65,6,-3,0
1501934106373244,-2,-7,-69,-57,-16,2,7,-3
1501934106373244,-10,-4,0,-42,-11,-5,-8,4
1501934106395273,10,-5,-8,-12,5,-6,-8,6
1501934106395273,-23,-8,-31,21,8,-9,1,21
1501934106396235,11,-2,-5,-36,-2,-2,-4,-10
1501934106396235,-1,1,-46,-5,8,4,1,3
1501934106409247,-21,0,32,-95,-63,-3,0,-15
1501934106409247,5,-5,8,100,7,-5,-4,-14
1501934106417274,5,-2,32,107,2,-3,-4,-4
1501934106417274,-6,5,14,19,-9,-13,-5,-5
1501934106433227,4,-5,-31,-85,-4,15,6,23
1501934106433227,2,1,18,5,-6,-2,-1,7
1501934106433227,-3,1,12,26,16,2,1,-1
1501934106433227,-1,-3,14,-42,-16,-7,-3,-9
1501934106455230,-5,7,18,103,34,2,2,1
1501934106455230,-1,-14,-42,-44,-33,-24,-10,8
1501934106456230,6,2,-8,-19,16,21,7,-6
1501934106456230,-1,1,-3,-25,3,8,1,2
1501934106469240,-7,-10,2,102,-11,-29,-9,4
1501934106469240,-5,1,-4,14,1,14,4,-3
1501934106477235,0,0,12,-75,-26,-26,-6,-5
1501934106477235,25,-2,-6,91,22,6,4,11
1501934106492275,-17,0,-17,4,9,20,3,-14
1501934106492275,-23,-1,-6,-68,-24,-6,-8,-60
1501934106493271,-9,2,37,92,10,-4,-2,19
1501934106493271,-2,-4,-23,4,-19,-2,-3,-1
1501934106515271,9,4,18,-2,22,-7,-2,12
1501934106515271,3,-5,-13,-31,-20,-8,-4,5
1501934106516242,2,5,-8,-60,-6,19,4,-5
1501934106516242,-19,-4,39,-128,-8,-5,-9,-20
1501934106529244,9,6,26,-59,1,-8,-1,6
1501934106529244,-6,-15,-66,36,6,-7,-5,3
1501934106537278,-2,-9,-23,-64,-5,-5,-4,-8
1501934106537278,-3,0,3,12,-36,-5,-3,11
1501934106552276,5,5,36,80,52,19,4,-10
1501934106552276,8,12,34,-73,-61,-7,5,32
1501934106553279,-14,-15,-47,-16,-1,-14,-15,-56
1501934106553279,-2,-6,-27,38,5,-11,-5,-3
1501934106575260,13,1,-33,73,33,28,15,11
1501934106575260,-20,-8,-32,-66,-40,-2,-3,-15
1501934106576235,12,-1,17,35,-37,-12,-3,40
1501934106576235,-5,8,15,7,2,0,1,-13
1501934106597244,5,-1,-17,-40,-25,-16,-4,-4
1501934106597244,2,5,32,51,54,15,5,-15
1501934106598240,32,-3,-28,-26,-16,4,4,20
1501934106598240,-28,-8,-15,-62,-23,-5,-8,-29
1501934106612312,-5,1,11,-13,-5,-1,5,-6
1501934106612312,0,-5,-16,80,51,14,-4,-2
1501934106613280,-4,8,28,-51,-14,-10,5,-16
1501934106613280,17,14,59,127,56,12,5,23
1501934106635281,-19,-26,-57,-120,-42,-22,-18,-56
1501934106635281,6,3,31,40,-12,-9,-1,1
1501934106636240,7,5,29,80,38,11,9,20
1501934106636240,-6,-8,-24,9,-5,3,-2,-15
1501934106657270,1,1,-11,16,0,-9,-2,17
1501934106657270,10,9,-2,-25,19,2,5,-3
1501934106658240,-18,-7,35,-27,7,-6,-10,-25
1501934106658240,0,0,-33,-116,-29,5,4,13
1501934106672283,-1,-2,-4,69,8,-10,-3,-3
1501934106672283,9,10,11,-62,-12,-4,-1,1
1501934106672283,-16,-6,-20,63,-1,3,2,-20
1501934106672283,3,0,6,44,14,9,2,-1
1501934106695280,-7,-15,-75,-102,-22,-10,-2,19
1501934106695280,14,5,28,34,23,6,2,49
1501934106696243,-9,1,11,73,13,4,-1,-13
1501934106696243,-14,-5,3,-30,-14,-3,-2,-1
1501934106717291,-7,4,17,16,-7,-3,9,-6
1501934106717291,-5,-5,-13,4,22,5,-4,4
1501934106718243,6,-5,-21,-50,4,-10,-2,5
1501934106718243,11,4,8,85,-6,28,8,-6
1501934106732255,3,5,60,-39,0,1,-3,11
1501934106732255,-6,-20,-36,-69,-9,-7,-5,-17
1501934106733247,-1,-3,-24,-14,-5,-14,-2,2
1501934106733247,0,3,3,-33,3,-4,-10,-13
1501934106755274,7,5,21,90,30,14,15,4
1501934106755274,-2,0,13,-26,-44,-4,-7,-15
1501934106756248,-9,-1,12,-52,-34,-12,-10,-8
1501934106756248,2,-3,11,67,16,-9,-23,22
1501934106777258,12,7,26,35,-4,7,19,28
1501934106777258,-10,-11,-13,118,35,-10,10,-28
1501934106779249,0,4,6,-10,-17,10,7,10
1501934106779249,4,1,15,16,18,0,-11,14
1501934106791249,-16,-11,8,-51,-47,-16,-20,-35
1501934106791249,-2,-2,-34,25,7,1,5,-26
1501934106800252,-1,3,25,67,17,2,-2,-14
1501934106800252,-9,-1,4,-43,-11,-20,8,14
1501934106815284,8,-1,-13,7,6,16,-1,8
1501934106815284,-4,3,41,60,6,0,4,10
1501934106816253,-7,-1,-32,-27,-9,3,-3,-6
1501934106816253,-2,-4,-17,-55,-14,-4,0,-12
1501934106837269,1,1,-16,-24,14,-6,-4,1
1501934106837269,-7,1,8,-38,-29,-6,-9,-31
1501934106839252,12,6,2,25,19,11,3,22
1501934106839252,3,1,15,121,62,16,5,-3
1501934106851315,1,4,-3,18,-13,-11,-5,1
1501934106851315,2,2,13,-46,-29,-8,-11,0
1501934106860267,-4,-1,-11,-104,-8,-1,4,7
1501934106860267,-2,4,63,77,21,17,14,0
1501934106875293,1,-5,-40,-52,-27,-9,-12,-6
1501934106875293,4,8,63,99,38,6,3,15
1501934106876286,-4,-7,-17,-85,-6,-10,-1,28
1501934106876286,-2,-1,-22,-11,-44,-6,-1,-26
1501934106897296,-3,0,23,65,13,0,3,6
1501934106897296,5,8,9,46,7,9,-9,-6
1501934106899267,4,-2,-15,110,23,-1,-12,2
1501934106899267,-1,-8,-33,-49,-7,0,11,17
1501934106911298,-4,1,17,31,-2,-15,-2,0
1501934106911298,0,-7,-23,-80,9,0,-3,3
1501934106920256,2,3,-26,-18,6,15,7,-7
1501934106920256,-1,-6,-26,-25,-10,-11,-8,-5
1501934106935302,-1,-1,1,-37,31,7,-4,-3
1501934106935302,-3,-7,-14,-12,-35,-14,-4,8
1501934106936259,-4,-1,17,34,3,-1,2,-1
1501934106936259,-6,-1,0,-72,-22,-2,3,-3
1501934106957322,7,-6,-36,-67,-4,0,-2,8
1501934106957322,1,5,10,30,17,2,3,8
1501934106959259,-3,0,34,3,-7,9,-6,-12
1501934106959259,2,-3,-17,51,-4,-2,4,0
1501934106971304,-8,1,7,-6,7,6,-6,-15
1501934106971304,11,-4,-8,-41,-7,-15,-1,9
1501934106980271,-2,7,18,66,21,14,1,-9
1501934106980271,-10,-10,-4,15,4,-8,-6,-15
1501934106995301,-1,-5,-18,-34,-22,-6,-3,2
1501934106995301,0,-2,-6,-86,-31,-3,-2,-1
1501934106997260,-6,-3,6,38,12,-8,-3,-2
1501934106997260,19,6,-14,4,-19,6,-2,27
1501934107017309,-10,-15,-31,25,-26,-15,-17,-24
1501934107017309,-18,-4,0,31,23,0,6,-7
1501934107019264,15,11,51,38,-3,12,15,14
1501934107019264,-8,-4,-21,-76,20,2,-8,-7
1501934107031310,1,2,-16,53,-10,-3,-3,-1
1501934107031310,2,5,17,16,-7,13,-2,0
1501934107040292,-2,-9,-31,-4,-4,-7,10,2
1501934107040292,-4,6,38,-16,1,-7,-6,-17
1501934107055307,0,-3,-10,0,18,1,6,-3
1501934107055307,-2,0,-9,60,20,9,-3,-5
1501934107056276,-2,-2,-11,-48,-20,-7,-8,-7
1501934107056276,-4,-1,-9,-7,-2,-2,5,31
1501934107077324,10,5,17,39,1,8,1,2
1501934107077324,-7,-5,-41,19,-6,-6,1,-7
1501934107079265,3,2,12,-9,-6,-13,4,0
1501934107079265,6,4,-7,80,11,4,-1,3
1501934107091305,0,0,8,-65,-5,1,1,6
1501934107091305,4,4,46,46,-1,2,-4,14
1501934107100277,-6,0,-18,-27,-3,-4,10,1
1501934107100277,4,-2,-3,16,-7,-4,-3,-2
1501934107115311,-1,6,30,104,29,-8,4,9
1501934107115311,1,-3,-8,-84,-34,12,5,-11
1501934107116279,6,10,8,-30,24,12,-1,6
1501934107116279,-20,-17,-27,8,-2,-17,-35,-36
1501934107145333,8,-6,-6,-26,-10,-4,20,20
1501934107145333,-1,-6,-56,-65,0,-1,12,-7
1501934107147289,1,-2,3,37,14,-3,-3,5
1501934107147289,6,7,6,24,6,3,9,13
1501934107151309,-11,-5,-7,-60,-14,-8,-18,-63
1501934107151309,-3,-2,13,25,12,-2,2,11
1501934107160302,-4,-8,-14,37,4,-1,-8,-6
1501934107160302,7,2,5,33,6,3,4,9
1501934107175309,-6,3,10,-21,-12,-8,-3,10
1501934107175309,1,3,-4,69,20,4,0,0
1501934107176284,-5,-7,-25,-29,-20,-4,-10,-15
1501934107176284,-9,-5,-9,-92,-37,-7,2,-5
1501934107197315,-1,-1,-2,29,-2,-1,-1,12
1501934107197315,2,2,6,0,6,-2,-3,-3
1501934107199284,6,9,57,107,24,11,-3,9
1501934107199284,-1,-7,-40,-54,-11,-1,9,-2
1501934107211290,-11,-8,-13,-38,-11,-8,3,-6
1501934107211290,0,-2,-6,13,1,-1,-12,9
1501934107220272,0,-4,-11,-24,2,-1,-6,-9
1501934107220272,6,5,17,-69,-12,-1,7,-4
1501934107235326,-5,2,14,36,10,19,-6,-3
1501934107235326,-4,2,27,-16,-5,-11,14,6
1501934107236298,0,1,-6,51,-2,-2,-7,-11
1501934107236298,-9,-6,4,15,-13,4,-10,-2
1501934107257316,0,0,2,-37,-4,-18,3,7
1501934107257316,5,-2,-2,52,7,8,-3,9
1501934107259276,-9,-9,-17,1,-12,-3,-2,-2
1501934107259276,7,1,1,-16,-6,-3,-3,1
1501934107271318,7,5,9,42,11,3,-10,4
1501934107271318,1,3,50,61,7,3,-7,-11
1501934107280302,-15,-16,-48,-9,-40,-23,-2,-1
1501934107280302,-13,-11,-47,55,10,5,-4,-20
1501934107294338,4,2,-4,-46,-20,0,2,6
1501934107294338,3,1,-3,60,21,-2,2,-5
1501934107302327,0,0,-10,-90,-13,8,0,-1
1501934107302327,5,4,29,33,8,11,8,7
1501934107317319,-7,-5,-10,71,15,-1,-2,-8
1501934107317319,4,7,-4,23,37,10,2,21
1501934107319295,-3,-1,31,-88,-30,-17,-2,-15
1501934107319295,8,7,-1,23,16,2,11,6
1501934107331321,6,-1,11,-19,4,4,1,17
1501934107331321,-5,-3,-22,2,3,-4,-12,-3
1501934107340280,-1,-1,-10,-23,-7,-8,-4,1
1501934107340280,1,1,16,-18,1,-10,-5,-3
1501934107355325,-4,6,17,30,16,23,12,-2
1501934107355325,0,-6,-37,-118,-27,-4,-7,-3
1501934107356292,2,2,14,127,24,3,3,0
1501934107356292,-9,1,62,-66,-35,-32,-5,6
1501934107377323,-3,-11,-49,-9,-26,1,-17,-7
1501934107377323,-2,-3,6,-54,-34,-6,2,-10
1501934107379311,-7,4,-6,3,2,8,-2,-29
1501934107379311,8,-9,-56,79,34,0,-2,16
1501934107391324,-9,4,25,-26,-17,-7,-4,2
1501934107391324,3,-5,-1,-29,-13,-2,5,2
1501934107400317,2,-4,1,-73,-16,-11,-3,6
1501934107400317,-1,-3,-7,9,23,7,-3,-5
1501934107422332,-2,-2,-37,-41,-9,-8,-1,-5
1501934107422332,-5,-6,-20,-20,-3,4,1,-6
1501934107424322,5,5,19,3,4,0,-2,10
1501934107424322,-2,-2,-16,30,6,14,12,4
1501934107437357,3,-2,2,-56,-14,-10,-6,-2
1501934107437357,1,4,25,-14,-8,-7,-4,-1
1501934107439296,-3,-7,-66,-33,16,7,4,9
1501934107439296,-4,1,16,49,8,-18,0,-6
1501934107451331,0,2,16,65,23,13,13,-2
1501934107451331,10,2,-8,-3,-6,3,-2,15
1501934107460320,-1,7,45,86,41,6,2,-6
1501934107460320,-8,-8,-25,-128,-51,-8,-10,-7
1501934107475326,10,-1,-4,17,2,3,6,3
1501934107475326,3,4,8,-3,13,9,9,2
1501934107476302,4,-11,-31,-18,-30,-15,-12,-4
1501934107476302,-11,3,10,7,9,1,3,-1
1501934107497358,-6,-1,-18,19,11,3,-4,-2
1501934107497358,-16,-11,-18,-96,-32,-10,-6,-15
1501934107499322,10,0,10,-12,-1,1,0,16
1501934107499322,6,7,29,52,28,10,3,-15
1501934107520366,-9,-6,8,-32,-17,-4,-8,-1
1501934107520366,-4,-3,-11,38,14,-9,0,-6
1501934107521328,-2,-2,-17,2,-3,9,0,4
1501934107521328,2,-2,-8,-51,-18,6,1,5
1501934107535319,5,10,38,127,41,14,8,4
1501934107535319,2,-10,-43,-70,-25,-23,-10,-4
1501934107536303,0,0,26,90,11,5,4,-1
1501934107536303,0,-2,-10,-29,-31,-2,-3,-1
1501934107557355,2,2,6,17,5,3,4,-1
1501934107557355,5,1,-19,-15,20,4,-2,-2
1501934107559304,-16,-4,0,-7,6,-7,-8,-11
1501934107559304,1,3,22,67,4,-9,-2,8
1501934107580352,-2,-6,-4,-55,-8,-3,-5,-9
1501934107580352,4,1,15,15,-7,10,-3,-2
1501934107581302,3,3,4,-21,13,2,0,-2
1501934107581302,1,2,4,-44,4,9,8,2
1501934107595338,3,-5,-16,-2,-21,-19,-11,-2
1501934107595338,-19,-3,21,68,11,0,5,3
1501934107596303,8,7,24,-40,-13,-1,-3,-8
1501934107596303,5,-5,-31,-34,0,-13,-12,3
1501934107617333,4,4,-2,7,5,10,6,5
1501934107617333,5,6,12,81,-2,-6,-5,42
1501934107619308,-12,-5,-8,-18,-15,-6,8,-26
1501934107619308,8,-1,9,60,22,13,-6,-1
1501934107640361,-9,-4,-13,-21,8,-6,-10,-12
1501934107640361,-5,7,50,28,10,4,2,-2
1501934107641324,-1,1,-9,-49,-21,-3,7,12
1501934107641324,-2,-3,-13,62,22,-4,-2,0
1501934107654342,-5,-4,5,-20,-29,-17,-9,-6
1501934107654342,-5,2,7,-12,-1,13,1,-13
1501934107661343,4,1,-2,9,0,-9,0,1
1501934107661343,-2,-6,-28,33,8,9,3,-10
1501934107677343,6,2,17,-50,-5,-2,-3,4
1501934107677343,2,-1,-27,-24,-14,-12,5,-8
1501934107679336,0,11,17,103,23,9,0,10
1501934107679336,-2,-1,8,-63,-31,11,11,-6
1501934107700364,-6,-4,-17,8,3,-7,-8,-5
1501934107700364,6,-1,-1,-44,-8,6,-3,-1
1501934107701302,-3,-9,-44,-47,-17,-11,-4,-4
1501934107701302,3,3,30,23,10,-4,-3,7
1501934107714345,-8,0,2,46,21,11,5,-3
1501934107714345,-7,-5,-12,-1,-11,-5,-7,-18
1501934107721342,0,-2,3,3,5,2,-2,4
1501934107721342,6,1,-3,-46,-28,-6,-4,4
1501934107737340,-5,-3,4,21,-3,-2,5,-2
1501934107737340,-5,-4,-2,30,5,-5,-3,0
1501934107739304,1,6,72,80,13,-9,-7,-9
1501934107739304,-5,-9,-44,-55,-8,-21,-2,-8
1501934107760320,7,4,9,-3,2,30,3,5
1501934107760320,-17,-4,-21,29,8,-9,-7,-23
1501934107761306,7,-1,18,-34,-10,-1,2,12
1501934107761306,-7,0,-12,-52,-2,-5,-2,-4
1501934107774345,6,5,25,18,14,7,2,6
1501934107774345,-6,-9,1,29,10,-9,-2,-1
1501934107781347,-11,-8,-27,-7,-1,4,-6,2
1501934107781347,6,2,7,-32,-5,1,0,13
1501934107797375,-5,-4,-27,-5,2,-7,3,-14
1501934107797375,-11,6,25,58,27,13,3,-10
1501934107799333,-2,-10,-30,40,-24,-12,-11,5
1501934107799333,7,0,-5,13,2,5,2,12
1501934107820378,-11,3,8,-5,-2,-7,-3,-13
1501934107820378,2,-2,3,76,19,-10,-3,-4
1501934107821339,4,1,-41,-128,-33,8,5,-7
1501934107821339,-9,3,30,110,6,12,5,-7
1501934107834373,0,-5,-15,11,-6,-9,0,15
1501934107834373,10,4,-9,27,-5,2,3,6
1501934107841369,-9,-5,-4,-15,2,-4,-6,-8
1501934107841369,-2,-3,10,-37,-2,4,-1,-5
1501934107857372,2,-3,-1,-16,-13,-9,-1,3
1501934107857372,5,1,13,-75,-13,3,0,-1
1501934107859311,-1,1,3,53,23,8,2,4
1501934107859311,-6,0,9,-75,-28,-13,-9,-8
1501934107880354,1,0,19,124,16,6,-3,5
1501934107880354,-1,-7,-32,-123,-25,-1,0,4
1501934107881316,1,-4,-34,-6,-14,-10,-3,0
1501934107881316,-3,-4,-20,70,29,5,-1,-16
1501934107895330,5,7,-2,-81,-20,1,7,11
1501934107895330,5,1,25,110,18,6,2,1
1501934107902315,-6,-3,30,33,-7,-4,-2,-4
1501934107902315,-9,2,14,68,15,-5,-3,-6
1501934107917378,1,-6,-31,-5,-10,-18,-3,0
1501934107917378,10,3,-4,-7,-1,15,4,11
1501934107919349,-4,-3,34,21,6,-3,-5,7
1501934107919349,5,0,-10,-32,18,10,-4,-1
1501934107940357,-3,5,25,22,10,-5,0,-21
1501934107940357,-9,-3,-8,-12,-8,-6,5,3
1501934107941316,3,5,3,-81,-9,1,-5,-15
1501934107941316,0,-2,-2,31,-18,1,4,7
1501934107954376,1,-5,-6,24,0,5,-1,2
1501934107954376,1,1,2,20,7,6,-1,-4
1501934107961332,-2,-2,10,57,0,-8,4,6
1501934107961332,-3,-3,-14,-19,-10,1,-4,-3
1501934107977377,-4,-3,-21,-36,-7,4,5,3
1501934107977377,1,-1,4,19,8,1,-3,-1
1501934107979345,4,-7,-3,28,-31,-11,4,4
1501934107979345,0,1,-6,68,21,-8,-15,-2
1501934108000365,2,4,14,7,-1,5,11,6
1501934108000365,1,-7,-16,-100,-36,1,1,-1
1501934108001322,-9,-1,-7,-28,13,-1,0,-3
1501934108001322,7,2,21,-13,5,-1,-1,1
1501934108013385,-3,-8,-23,36,-7,-7,-8,-4
1501934108013385,3,11,24,63,20,-1,-1,-1
1501934108022389,0,2,-20,-51,-22,1,1,5
1501934108022389,-11,-3,14,-14,1,1,-2,-7
1501934108037360,4,8,37,-79,18,4,1,12
1501934108037360,-8,-7,-22,-44,-13,-12,-10,-21
1501934108039333,9,4,11,6,24,6,-4,-1
1501934108039333,0,3,23,59,5,0,6,2
1501934108060387,-5,-9,-23,-29,-11,-5,-4,0
1501934108060387,-4,0,-14,-63,-8,-4,-3,-3
1501934108061324,1,-9,-2,-41,0,-12,-8,3
1501934108061324,5,3,0,-50,-11,8,5,5
1501934108074342,-8,-3,5,-35,2,-7,-4,-11
1501934108074342,4,1,17,78,8,15,2,0
1501934108082396,4,4,-14,46,17,10,3,2
1501934108082396,-6,-6,-2,20,-23,-13,-6,-9
1501934108097390,2,-2,17,120,11,0,-3,2
1501934108097390,-9,-11,-35,66,-5,-13,-5,0
1501934108099334,-3,-1,-10,-9,-8,0,3,-2
1501934108099334,7,1,-1,105,13,4,16,2
1501934108120396,-12,-4,2,-8,10,-1,-13,-5
1501934108120396,1,-2,17,-87,-33,-10,-5,0
1501934108121362,-2,3,36,25,16,7,6,-4
1501934108121362,-1,-1,-11,-43,7,-2,-2,-6
1501934108133401,2,-1,-37,-4,9,-2,2,1
1501934108133401,-9,-2,9,66,-13,0,0,-5
1501934108142394,5,-4,-13,-12,3,-1,-6,-3
1501934108142394,9,-6,-33,-67,-10,-11,-8,5
1501934108157377,-6,2,22,25,-6,1,4,-3
1501934108157377,-3,-1,-7,2,13,5,-5,-6
1501934108159332,-1,-1,-6,41,-4,-9,-2,2
1501934108159332,-9,3,15,-62,-13,13,-3,-1
1501934108180370,8,-4,-16,17,-8,0,2,5
1501934108180370,1,-3,-4,-33,-7,-17,2,3
1501934108181330,-5,3,9,8,11,24,2,-4
1501934108181330,2,-5,-20,-45,-7,-11,-2,2
1501934108193358,-2,1,30,56,-2,-18,-1,-1
1501934108193358,2,4,-11,-119,-9,16,2,3
1501934108202348,0,-1,14,68,42,-1,0,-4
1501934108202348,-2,-1,-14,-44,-17,-1,-1,-1
1501934108217345,-7,1,21,41,1,3,-3,-5
1501934108217345,9,-3,-29,-31,-7,-11,-2,12
1501934108219332,-3,-4,-32,-46,-8,-9,-2,1
1501934108219332,-3,-1,11,-57,-2,5,-2,-1
1501934108240389,6,7,-1,-64,4,21,3,3
1501934108240389,0,-4,11,114,-5,-5,-3,-5
1501934108242344,-5,4,29,-50,-19,-3,-4,-5
1501934108242344,1,2,-5,10,-9,-1,7,9
1501934108253370,8,-3,-25,28,4,-10,-3,-1
1501934108253370,2,-2,0,-63,-5,6,0,2
1501934108262373,-2,-1,-22,-5,-4,3,2,0
1501934108262373,-3,10,12,24,31,6,3,-4
1501934108277375,-5,-12,-25,-41,-44,-9,-13,-7
1501934108277375,-2,2,11,9,11,1,0,-1
1501934108279335,-3,-4,0,8,-9,-12,-6,-5
1501934108279335,-2,0,0,11,1,3,-2,2
1501934108300403,3,2,-12,-42,9,8,3,4
1501934108300403,-2,-3,-2,54,7,-5,0,-10
1501934108301335,1,6,21,-80,-33,0,-1,-2
1501934108301335,-13,-5,-13,27,-3,-7,-4,-10
1501934108313336,-2,-9,-13,-28,-8,-5,-1,-1
1501934108313336,3,2,-15,87,26,4,3,4
1501934108322358,3,0,-7,-58,-15,-2,1,7
1501934108322358,-8,-9,-4,72,-7,-9,-6,-18
1501934108337381,0,-3,-1,-11,2,1,-1,-5
1501934108337381,-1,4,8,10,7,-4,-2,1
1501934108339345,-1,-4,-22,48,24,4,0,-2
1501934108339345,3,0,7,-15,-18,-10,-3,5
1501934108360380,-2,1,3,-14,0,6,4,2
1501934108360380,-1,-2,-2,-81,3,-2,-4,-2
1501934108361339,-3,-5,-14,-23,-1,-3,0,-3
1501934108361339,3,1,11,-4,-2,-1,1,8
1501934108373353,-7,-8,-24,14,4,-14,-5,-11
1501934108373353,-1,2,1,-41,-3,1,3,0
1501934108382358,-1,-2,4,-9,-6,4,-1,-1
1501934108382358,1,0,2,14,7,4,0,3
1501934108397384,0,0,0,11,3,-1,-1,2
1501934108397384,-1,-3,0,-11,-11,-3,-6,0
1501934108399342,-1,-1,-1,-1,4,-6,12,-1
1501934108399342,2,0,10,34,12,4,-6,-1
1501934108420389,3,9,12,36,7,10,6,6
1501934108420389,-10,-7,30,40,-2,-9,-5,-5
1501934108421352,5,9,27,115,24,11,3,10
1501934108421352,-3,-4,6,66,-11,-21,-3,-2
1501934108442405,6,1,-8,39,3,22,7,3
1501934108442405,-2,-2,12,-37,-3,-13,-2,1
1501934108444356,-3,-2,-26,22,-4,2,-5,-5
1501934108444356,-1,-1,-11,-44,1,-4,0,-1
1501934108457408,0,1,10,-8,4,-4,-4,-1
1501934108457408,-1,0,-11,17,-1,3,4,6
1501934108459358,-1,0,-1,-47,-12,-9,-5,-1
1501934108459358,3,1,4,23,-13,5,-1,1
1501934108480410,-5,-3,6,-50,-9,-8,-2,-4
1501934108480410,1,0,-15,4,-3,9,-2,-1
1501934108481359,3,0,15,40,17,3,0,3
1501934108481359,-8,-8,-40,-115,-23,-2,-5,-11
1501934108502393,2,-1,-11,47,-12,-13,-10,-5
1501934108502393,-2,0,14,15,3,1,-3,-4
1501934108504358,1,0,6,28,5,3,2,-1
1501934108504358,0,2,8,2,6,7,1,-5
1501934108517417,0,1,-5,-26,2,1,1,4
1501934108517417,-1,-3,-22,-41,-10,-7,-4,-2
1501934108519349,-4,-1,1,4,1,-11,-3,-3
1501934108519349,0,-2,0,3,10,17,3,3
1501934108540416,1,-3,8,-33,-7,-9,-3,-11
1501934108540416,0,-1,-1,49,3,3,3,-2
1501934108541351,-5,-5,-7,0,-10,-3,-6,-8
1501934108541351,3,0,3,14,2,-4,0,3
1501934108562358,-5,-3,3,-11,-4,-4,-2,3
1501934108562358,1,1,-6,-36,3,2,-2,-1
1501934108564364,-5,-1,-6,-6,-7,12,5,-8
1501934108564364,5,1,0,1,8,-3,-1,2
1501934108577415,6,1,4,-8,0,-3,4,15
1501934108577415,-5,-2,-2,0,0,-1,-3,-10
1501934108579365,-3,-2,-6,-8,-6,-11,-5,1
1501934108579365,-4,0,2,10,-2,0,-7,-4
1501934108600353,0,-1,5,-9,1,3,7,3
1501934108600353,-1,-2,-4,11,-4,-5,14,9
1501934108601353,0,-3,-9,-19,-5,-1,-4,1
1501934108601353,2,1,6,9,6,1,-1,0
1501934108622402,-1,-2,5,59,17,-2,-2,1
1501934108622402,-2,-3,-7,-94,-47,-6,-10,-11
1501934108624396,-3,-2,-1,30,7,6,2,-4
1501934108624396,-1,0,-1,-18,2,-3,-2,1
1501934108637400,-5,0,1,-31,-22,-4,-2,-4
1501934108637400,-1,-1,-1,19,8,-7,-1,3
1501934108651397,2,0,-3,4,8,9,0,3
1501934108651397,-3,-1,1,63,12,-4,-1,-2
1501934108660424,-3,0,5,27,-15,4,-3,-5
1501934108660424,0,-2,1,-26,-8,-1,0,0
1501934108661366,-1,-2,-2,-45,-13,-10,-5,-4
1501934108661366,0,-1,-2,29,10,1,2,3
1501934108682418,-2,0,-2,-8,8,7,1,0
1501934108682418,3,1,-3,22,6,-2,1,1
1501934108684369,0,-1,-4,15,-4,3,0,1
1501934108684369,-3,0,1,-33,-8,-4,1,-1
1501934108697379,-2,-1,0,13,7,3,0,-1
1501934108697379,-3,-4,1,2,-2,-1,-3,-1
1501934108703401,-1,-2,-4,-5,4,-5,-1,-3
1501934108703401,0,-1,1,-11,-3,-4,-4,-2
1501934108721391,-2,-1,-4,-34,-4,-3,-1,-2
1501934108721391,0,-1,-3,27,9,-3,-2,1
1501934108723362,-1,0,-3,-10,0,5,1,2
1501934108723362,-2,-2,0,-8,-5,-5,0,0
1501934108742404,-3,-2,-1,-2,3,-1,-1,0
1501934108742404,-2,-2,-8,-20,-1,1,-2,-5
1501934108744373,-1,-4,8,38,8,-4,-5,-2
1501934108744373,-3,-3,1,3,-15,-5,-2,0
1501934108757380,-3,0,-1,-2,7,-3,-8,-4
1501934108757380,1,-1,-3,-1,3,6,4,6
1501934108763428,-1,-1,-6,-13,-2,-18,-13,-8
1501934108763428,0,-2,1,-12,0,9,6,4
1501934108780406,-1,-3,-1,-5,3,4,5,-1
1501934108780406,3,0,0,16,1,-4,-5,1
1501934108781363,-3,0,0,9,-4,-4,-1,-4
1501934108781363,-1,2,3,7,0,6,2,0
1501934108802403,-1,-1,-10,-13,-6,-4,-5,-2
1501934108802403,0,-1,6,9,0,-3,1,-2
1501934108804378,-1,-2,-5,-8,-1,4,3,2
1501934108804378,1,0,-2,-2,0,-11,-4,-3
1501934108817383,-1,-2,0,-15,-1,5,0,-2
1501934108817383,-1,-1,-2,11,-1,-2,4,10
1501934108823403,-1,-1,-1,-6,0,14,0,-6
1501934108823403,-2,-1,-1,-3,1,1,-3,-2
1501934108840432,-2,-1,-1,-2,-6,-22,-1,0
1501934108840432,-2,-2,-2,8,6,15,-1,0
1501934108841367,1,-1,-3,-15,-4,0,4,2
1501934108841367,0,-1,0,-8,-9,-8,-2,3
1501934108862429,1,-1,0,4,-1,-2,0,0
1501934108862429,-2,0,5,3,0,-1,-1,-2
1501934108864373,-1,-2,-5,-15,-2,3,-1,2
1501934108864373,-2,-2,-2,7,1,-10,-1,-5
1501934108876413,-1,0,-2,0,-2,8,-2,-1
1501934108876413,-1,-1,1,3,-4,-12,-1,-3
1501934108885370,-2,0,0,-4,-1,6,1,4
1501934108885370,1,0,-1,1,-1,-3,-5,-11
1501934108900432,-2,-2,0,-3,-1,2,-4,0
1501934108900432,-1,0,-3,-4,-3,-16,-5,-12
1501934108901371,0,-1,-2,-4,-2,13,10,7
1501934108901371,-2,-1,-2,-2,0,7,0,2
1501934108922429,0,1,-1,-5,-2,-8,-4,-1
1501934108922429,0,-2,-3,2,2,11,-1,-3
1501934108924384,-1,-1,-3,-2,-6,-21,-11,-4
1501934108924384,0,0,-1,-1,-1,2,4,5
1501934108936412,1,-2,2,4,7,7,4,-2
1501934108936412,-2,0,-5,-4,-4,-4,-2,0
1501934108945373,2,2,6,4,3,9,2,2
1501934108945373,-5,-4,-5,-13,-3,-4,-5,-6
1501934108959415,-1,-1,-2,-10,-4,-3,-4,2
1501934108959415,-2,-2,1,-5,-8,-10,0,1
1501934108967394,2,-4,-6,-2,6,1,2,-1
1501934108967394,3,2,4,4,0,10,5,-2
1501934108982417,1,1,-3,1,-8,-25,-6,-1
1501934108982417,-3,0,0,1,7,30,1,-5
1501934108984391,-3,1,-3,-6,-5,-12,0,2
1501934108984391,5,-2,1,9,4,-2,-1,8
1501934108996418,-4,-1,-3,-6,6,6,2,-3
1501934108996418,3,1,-7,-41,-3,-5,9,12
1501934109005377,-9,-5,9,67,-10,-9,-12,-21
1501934109005377,5,0,0,-1,3,3,-2,6
1501934109020422,0,1,10,41,8,12,7,-15
1501934109020422,3,2,7,-32,0,-11,-9,1
1501934109021377,-3,-4,-15,-5,-11,-3,4,-2
1501934109021377,-4,1,-3,8,-5,-18,0,-7
1501934109042419,0,1,5,-1,2,11,3,14
1501934109042419,-2,2,8,59,7,1,-8,-6
1501934109044379,0,-2,0,-36,-6,-2,10,-9
1501934109044379,-2,-2,-4,-26,-5,3,-3,-1
1501934109056427,5,-2,-4,2,-1,0,0,3
1501934109056427,0,0,-5,-5,-8,-25,-8,-3
1501934109065380,-1,-2,4,-3,0,19,4,3
1501934109065380,-4,-4,-11,-1,-2,-6,-11,1
1501934109080408,-5,-1,-1,-8,1,8,-5,-12
1501934109080408,3,-3,-2,5,1,2,23,-17
1501934109081382,4,3,0,-18,3,1,10,11
1501934109081382,-5,1,7,14,-1,2,-5,-13
1501934109102423,-3,-5,-18,-11,-10,-10,-5,-2
1501934109102423,-4,-3,-6,5,-2,0,-12,-8
1501934109104391,-5,-1,-4,5,2,-13,1,-4
1501934109104391,5,-2,2,-19,5,16,-25,-12
1501934109116427,-10,0,4,7,-5,-8,20,11
1501934109116427,1,-2,-3,3,-2,3,7,-2
1501934109125418,4,2,0,-5,2,3,6,7
1501934109125418,-5,-4,-5,-2,-5,-8,-6,-13
1501934109140403,-1,0,11,14,-3,-2,-11,-7
1501934109140403,-3,1,-5,-12,1,1,-6,4
1501934109141385,-1,0,1,3,1,-3,-8,-9
1501934109141385,-1,0,-5,1,0,3,10,3
1501934109162425,1,-1,-2,-9,-1,-2,-10,-3
1501934109162425,-5,-3,6,14,1,3,4,1
1501934109164405,-1,0,0,-6,-4,-10,-21,0
1501934109164405,1,0,-1,6,7,8,28,7
1501934109176458,-1,-1,0,-7,-6,-21,-6,0
1501934109176458,-4,-2,-1,2,-1,22,-2,6
1501934109185421,3,-2,-4,-7,-3,-8,-11,-9
1501934109185421,0,0,1,0,-1,-3,-11,7
1501934109199429,-1,-4,-3,-6,2,1,11,-22
1501934109199429,-7,1,-4,-3,-4,-7,7,-13
1501934109206450,-2,0,1,-3,2,2,4,-9
1501934109206450,-2,-1,-1,9,-4,-2,12,0
1501934109222428,2,-2,-8,-10,-1,1,-19,5
1501934109222428,-1,-1,0,4,2,-1,-11,2
1501934109228447,-1,-1,0,-2,3,6,5,5
1501934109228447,0,-2,1,-1,-2,-6,-22,-2
1501934109236435,0,-2,-2,-7,-3,3,35,8
1501934109236435,-1,-2,-1,2,3,-1,-20,-6
1501934109245391,1,1,1,-2,-2,-9,22,9
1501934109245391,1,1,-2,1,4,10,-3,1
1501934109259442,-2,-2,3,-1,-4,0,-6,-9
1501934109259442,2,-4,-9,-13,-4,-2,0,5
1501934109266434,-1,-1,-5,-14,-4,-8,-13,1
1501934109266434,-2,-1,-1,13,-2,6,2,4
1501934109282466,-1,0,1,-2,3,3,-1,-3
1501934109282466,1,1,3,3,2,-1,1,6
1501934109284403,-3,-3,2,4,0,-3,-6,-1
1501934109284403,-1,0,4,3,-4,-3,5,-4
1501934109296451,1,0,-1,-17,1,0,-1,16
1501934109296451,-1,-1,-1,4,-6,-1,-13,-3
1501934109305407,0,-3,-8,2,1,5,26,8
1501934109305407,-2,0,2,-1,-2,-7,3,-3
1501934109319432,-2,-1,0,1,-1,-1,-11,-4
1501934109319432,-1,0,1,5,-2,-12,7,-1
1501934109326437,0,0,1,-1,6,12,-14,-7
1501934109326437,-1,-1,2,-7,-2,-4,-4,4
1501934109342443,-1,2,-6,15,-4,3,6,-10
1501934109342443,-2,-2,-5,-24,-3,-6,-6,2
1501934109344407,-2,-2,-2,4,-4,-4,-16,-12
1501934109344407,0,-1,-4,-4,0,-2,19,20
1501934109365462,-3,-2,2,-1,-1,0,-7,-12
1501934109365462,-2,-2,-6,-2,0,-1,-19,-3
1501934109366406,-2,-1,-2,-3,-7,-6,10,3
1501934109366406,-1,-1,-1,-8,2,6,1,1
1501934109387441,-1,0,-3,1,0,-2,-1,1
1501934109387441,1,0,5,9,2,3,0,5
1501934109389410,-2,-1,-1,1,0,5,-8,-3
1501934109389410,-2,-1,-4,-3,-3,-8,4,0
1501934109402400,1,0,1,-2,-4,-2,-10,4
1501934109402400,-2,-2,-3,-3,-2,0,8,-4
1501934109404432,-2,1,10,10,4,9,-4,7
1501934109404432,2,0,-5,4,5,4,4,-10
1501934109425470,-1,-6,-23,-29,-7,-4,-2,14
1501934109425470,1,-2,2,4,-2,-1,9,-4
1501934109426402,-5,-3,-4,-10,-2,-8,-2,-4
1501934109426402,0,0,0,18,-4,-9,0,-5
1501934109440430,-1,1,1,-19,5,11,0,-5
1501934109440430,0,-1,2,10,-4,-6,-1,10
1501934109441402,-1,0,3,-3,0,0,-4,5
1501934109441402,-1,0,4,0,-2,1,-7,-4
1501934109461442,2,0,2,6,0,-6,3,2
1501934109461442,-2,0,-2,-2,2,3,0,2
1501934109470403,2,0,-2,1,1,-1,-2,-1
1501934109470403,-6,-2,0,-6,1,2,-7,-22
1501934109485420,7,-3,-7,1,-5,-6,4,7
1501934109485420,0,1,-1,-2,1,4,7,3
1501934109486406,-2,-1,-2,3,-1,-4,1,-5
1501934109486406,-1,0,-2,-9,-2,-8,-9,2
1501934109500424,-5,0,3,7,3,2,0,-5
1501934109500424,0,0,3,2,0,3,4,-5
1501934109501411,1,0,-8,-7,-4,-5,-5,-1
1501934109501411,-3,-1,3,-7,-1,2,0,7
1501934109522439,0,-1,6,8,2,1,-4,-4
1501934109522439,1,-2,-6,0,-6,-23,2,0
1501934109524416,0,-2,-4,3,0,20,-1,12
1501934109524416,1,0,-1,-6,3,2,3,-1
1501934109545483,-1,2,-1,-7,-1,2,-8,-2
1501934109545483,-3,-3,-1,-4,0,1,-3,-4
1501934109546407,-2,-1,2,1,-5,-19,-1,1
1501934109546407,-1,0,-2,3,4,11,-2,2
1501934109559451,1,1,3,6,0,-1,6,5
1501934109559451,-1,-2,-2,-5,-5,1,-13,-10
1501934109566475,-3,-2,-1,-5,-5,-7,-9,22
1501934109566475,-4,1,-4,3,1,2,34,-11
1501934109582480,3,-1,-1,-1,-2,-6,-4,-1
1501934109582480,-1,2,0,2,0,5,8,-5
1501934109584414,0,-1,0,-2,0,-5,-8,1
1501934109584414,-1,-2,-1,-6,-5,-7,-8,2
1501934109605457,-5,-1,2,10,0,2,-1,-2
1501934109605457,0,-1,-5,-8,-1,2,6,11
1501934109606425,0,-1,-1,-2,1,0,-3,-18
1501934109606425,3,-1,-1,0,-3,-7,-2,5
1501934109619452,-3,0,0,0,2,1,0,0
1501934109619452,-1,-2,3,1,-1,3,-5,2
1501934109626454,-1,-1,-2,-4,-2,-5,-2,-8
1501934109626454,-1,-2,-4,-7,-10,-25,-10,-1
1501934109642459,-1,-2,-3,4,8,21,2,9
1501934109642459,0,0,4,2,3,2,0,-3
1501934109644424,-2,0,-4,4,0,5,3,-8
1501934109644424,1,-1,-4,-2,-5,-6,-5,0
1501934109665463,-5,-2,-5,-2,-6,-13,-7,-4
1501934109665463,-2,-2,-3,-1,0,1,6,3
1501934109666415,1,0,2,-1,1,1,-3,-6
1501934109666415,-1,-2,1,-3,-3,0,-5,4
1501934109679456,-2,-1,0,-1,-3,2,0,-8
1501934109679456,2,0,1,4,1,4,-1,1
1501934109686417,-2,0,0,3,1,-2,1,-3
1501934109686417,-2,-1,-2,2,-1,4,0,6
1501934109702456,-2,-2,0,-5,-3,-3,1,-5
1501934109702456,0,-1,0,-1,-2,-9,-4,-6
1501934109704430,1,-3,-1,-3,-2,4,1,5
1501934109704430,-1,-3,-1,-2,0,2,-3,-7
1501934109725465,-1,0,0,0,-1,-2,-7,-9
1501934109725465,1,0,2,1,0,3,2,10
1501934109726418,-3,-2,-7,-5,-3,-4,14,-14
1501934109726418,1,0,-2,0,4,6,-3,0
1501934109739462,0,-1,-1,-2,-4,-10,-6,4
1501934109739462,-1,0,1,-2,0,-1,-4,-17
1501934109746460,-2,1,0,-2,-2,0,-5,1
1501934109746460,4,-1,1,-3,1,-7,7,8
1501934109762487,-4,0,0,-6,1,7,3,-2
1501934109762487,2,-1,-3,4,-4,-7,-8,2
1501934109764425,-1,0,-1,1,-2,-1,0,-1
1501934109764425,-4,-1,-3,-4,-3,1,-5,-6
1501934109785439,-2,-2,2,-2,3,0,1,-2
1501934109785439,-3,0,-1,-4,-1,1,0,5
1501934109786430,-2,-2,0,0,1,-3,-1,0
1501934109786430,-1,-2,1,0,-3,-5,-2,-1
1501934109799465,4,-3,-6,-4,-4,-5,-1,1
1501934109799465,-5,-2,-2,0,3,5,1,-9
1501934109806493,1,1,-1,-1,-2,-3,0,-2
1501934109806493,-1,1,-1,0,2,7,-1,-4
1501934109822486,-1,0,-2,0,-4,-4,-4,-8
1501934109822486,1,-1,-2,-3,-3,-4,-2,3
1501934109824435,-2,-1,0,-3,-1,-3,-3,1
1501934109824435,-1,-3,-5,-3,0,5,5,1
