timestamp,emg1,emg2,emg3,emg4,emg5,emg6,emg7,emg8
1501935661438426,-5,-15,-17,88,10,0,0,-2
1501935661438426,-7,-8,-16,31,-21,-13,-7,-5
1501935661441399,3,-1,-11,-25,-11,-5,-2,0
1501935661441399,-2,1,1,-92,-7,-1,0,-4
1501935661442432,0,-3,-2,-4,-15,0,-3,-2
1501935661442432,9,12,-1,-29,17,19,12,9
1501935661443421,-3,5,36,70,38,-3,-3,-3
1501935661443421,-8,-16,-9,127,13,-9,-7,-7
1501935661445389,10,19,46,24,19,13,8,4
1501935661445389,-5,-15,-47,-34,-17,-12,-5,-3
1501935661459456,2,2,6,33,-18,4,3,0
1501935661459456,1,4,6,71,31,12,3,5
1501935661467419,4,10,7,-5,-3,0,0,1
1501935661467419,-9,-6,14,8,8,-10,-8,-7
1501935661473389,-3,-8,-45,-123,-29,1,2,0
1501935661473389,4,9,60,118,8,1,1,3
1501935661488388,-3,-12,-93,-114,-23,-6,-2,2
1501935661488388,-4,-7,-13,26,-9,-4,-6,-2
1501935661505457,-3,0,9,-23,34,-1,-4,-10
1501935661505457,-6,-12,-26,17,-30,-15,-10,-7
1501935661506389,-3,4,31,39,-4,-4,-3,-1
1501935661506389,3,2,21,50,28,8,3,1
1501935661552394,-6,-4,-23,-54,-10,-4,-4,2
1501935661552394,3,8,24,72,27,6,0,-2
1501935661552394,-7,-15,-42,63,18,-6,-4,-5
1501935661552394,-4,-4,2,-23,-16,-13,-6,-7
1501935661553393,3,2,0,58,5,-1,2,5
1501935661553393,5,9,11,28,11,9,3,5
1501935661556425,-2,2,-27,-87,-26,-2,-1,-3
1501935661556425,-6,-5,21,-82,-4,-14,-7,-5
1501935661565394,-6,-10,-33,4,-7,-4,-3,-6
1501935661565394,3,4,14,29,18,3,1,5
1501935661571471,-13,-33,-70,-24,-57,-21,-11,-11
1501935661571471,-7,-12,-24,-76,-44,-8,-2,0
1501935661580395,4,8,11,31,48,8,3,-1
1501935661580395,-11,-12,-27,-120,-13,-19,-12,-8
1501935661593434,0,-1,-5,-6,11,5,1,3
1501935661593434,2,-2,-17,81,21,15,4,-4
1501935661602436,-6,-11,0,-50,-15,-22,-7,-3
1501935661602436,1,-1,-1,89,17,14,5,-1
1501935661625412,3,10,38,20,10,0,0,2
1501935661625412,0,0,3,23,-9,-5,-1,0
1501935661626405,9,14,35,100,17,18,7,1
1501935661626405,-5,-8,-34,-39,-47,-9,-1,-2
1501935661639443,11,16,75,51,22,7,2,2
1501935661639443,-7,0,26,82,-7,-1,-2,4
1501935661646447,3,4,14,28,-13,5,2,0
1501935661646447,-5,-9,-15,-121,-26,-14,-6,-2
1501935661662466,0,2,9,-47,5,-1,0,1
1501935661662466,6,4,-18,59,67,17,5,3
1501935661664408,-8,-11,-4,19,-17,-9,-11,-10
1501935661664408,-2,4,19,-36,-14,-6,3,-3
1501935661685411,0,0,-32,-88,-7,2,0,-1
1501935661685411,0,-2,-12,25,18,3,-3,-4
1501935661686422,-2,-2,0,28,-23,-15,-2,4
1501935661686422,2,11,44,7,-6,1,-2,-5
1501935661699470,4,10,77,89,50,19,6,1
1501935661699470,-3,-2,-34,-123,-46,-12,-5,-5
1501935661706401,1,1,0,44,1,-2,-1,4
1501935661706401,3,-4,-5,56,6,1,-2,0
1501935661722412,-2,3,-3,127,24,12,6,2
1501935661722412,-5,-3,55,-56,-39,-13,-6,-2
1501935661724408,1,7,30,-106,-13,0,2,2
1501935661724408,6,0,-5,-4,27,14,3,-1
1501935661745422,-12,-19,-76,-15,-37,-19,-10,-10
1501935661745422,0,5,11,39,17,-5,2,4
1501935661746412,0,-2,-14,62,7,-2,0,-1
1501935661746412,-1,-7,-33,-61,-29,-1,-1,0
1501935661759468,-4,-11,-25,66,26,-3,-2,-2
1501935661759468,-2,-3,-1,49,23,2,-2,-4
1501935661766445,0,3,9,-15,-1,4,0,0
1501935661766445,-1,-2,6,73,20,4,-1,1
1501935661782467,1,5,15,-17,-18,-1,-1,1
1501935661782467,8,7,-30,-40,-12,8,6,3
1501935661784441,-5,-11,-21,-53,16,5,-3,-8
1501935661784441,-3,-4,-11,104,0,-3,-1,5
1501935661805417,-1,1,3,-54,-34,-7,-2,-3
1501935661805417,6,7,6,12,10,1,1,2
1501935661806415,15,22,69,104,67,36,12,3
1501935661806415,-29,-34,-20,-117,-69,-44,-20,-12
1501935661819473,10,7,25,45,12,1,3,5
1501935661819473,-4,-2,-2,26,9,6,1,-1
1501935661826454,-1,-3,-23,-6,5,10,1,-3
1501935661826454,2,9,45,75,11,0,2,4
1501935661842452,-2,-2,-32,-45,-16,-9,-2,0
1501935661842452,2,-5,-50,-60,-15,3,1,0
1501935661844442,-14,-19,-19,-43,-8,-18,-8,-5
1501935661844442,8,11,-8,-106,15,6,0,0
1501935661864410,0,-2,-12,37,4,2,0,-2
1501935661864410,2,4,25,120,13,3,1,1
1501935661866409,-5,-4,-13,-5,-52,-17,-3,1
1501935661866409,4,5,-4,29,11,8,3,0
1501935661879450,-1,2,9,-88,5,2,-2,-3
1501935661879450,-6,-12,-15,70,2,-9,-6,-3
1501935661886418,-1,4,-7,104,11,3,3,-3
1501935661886418,0,-2,27,-58,-24,-8,-5,2
1501935661902476,0,0,3,69,-11,-1,-4,-1
1501935661902476,5,3,23,-42,-7,6,1,-1
1501935661904413,-8,-2,-1,-17,9,-3,0,-2
1501935661904413,-1,-1,30,105,4,-8,-3,0
1501935661924482,-6,-7,-22,35,-8,-3,-1,-6
1501935661924482,4,4,-2,-123,-20,0,1,1
1501935661926421,-4,-6,2,49,-3,-7,-6,-3
1501935661926421,8,6,-35,-81,23,11,6,2
1501935661938459,-4,-2,17,-10,-1,-3,-3,-2
1501935661938459,-1,-1,2,12,17,3,-3,-5
1501935661947413,1,3,-11,-45,-10,-1,-1,-1
1501935661947413,-4,-5,-7,-31,-8,1,-3,-3
1501935661962483,-7,-8,-19,-64,-14,-15,-8,-8
1501935661962483,-2,-1,-25,27,-11,-1,2,2
1501935661964415,1,-3,-10,-84,-2,-3,-3,-1
1501935661964415,-1,0,-9,126,16,7,2,0
1501935661985435,-1,-2,-10,-68,-23,-4,-1,0
1501935661985435,-2,-2,-13,38,25,4,-3,0
1501935661986418,15,17,43,-15,9,12,6,6
1501935661986418,-18,-17,-14,12,16,-21,-10,-9
1501935661998487,4,3,15,3,4,6,3,4
1501935661998487,1,2,1,-38,12,4,0,-2
1501935662007450,7,7,37,36,19,10,2,5
1501935662007450,-2,2,21,-18,-4,-5,-1,-7
1501935662022451,3,6,38,76,1,1,2,8
1501935662022451,-6,-5,-1,-15,4,-10,-6,-6
1501935662024419,-1,-5,-6,75,-2,-2,-1,-2
1501935662024419,1,-2,-13,-90,-14,0,1,0
1501935662044458,0,1,16,-3,3,0,-1,0
1501935662044458,5,4,10,127,14,12,5,2
1501935662046430,-10,-9,-30,-36,-80,-34,-9,-2
1501935662046430,3,3,-10,71,5,6,3,0
1501935662058462,9,11,10,78,17,10,5,3
1501935662058462,-7,-12,-2,-56,-19,-11,-5,-3
1501935662067421,6,19,82,-61,20,8,4,3
1501935662067421,-10,-25,-61,-74,-27,-8,-8,-9
1501935662082484,-2,-1,22,21,16,-1,-1,0
1501935662082484,-1,-1,-2,-75,-14,0,3,2
1501935662084422,-2,-2,-1,44,19,3,-4,-4
1501935662084422,4,1,-11,-92,-33,-2,1,3
1501935662105445,-5,-11,-2,24,22,-1,-5,-7
1501935662105445,-1,1,14,12,-13,-5,-1,0
1501935662106425,-2,-7,-8,-20,-22,-11,-4,-2
1501935662106425,2,1,-37,93,47,12,3,0
1501935662118466,3,4,-15,51,-12,2,3,2
1501935662118466,-2,1,33,-31,4,-4,-4,-4
1501935662127466,-1,-10,-72,-31,-5,1,2,0
1501935662127466,5,9,41,58,42,12,2,0
1501935662142486,-5,-6,-31,-120,-33,-8,-3,-3
1501935662142486,-1,-1,-2,86,13,5,-1,-1
1501935662144427,-2,-5,-20,-49,-10,-6,-3,-1
1501935662144427,6,9,42,88,27,14,6,2
1501935662164493,-8,-12,-30,-117,3,-5,-5,-3
1501935662164493,2,2,0,-19,-16,-3,3,3
1501935662166427,-4,-8,-22,-1,-15,0,-2,-3
1501935662166427,2,9,38,-69,-13,-8,-1,3
1501935662178461,-3,-6,-14,-72,-26,-1,-2,-1
1501935662178461,-2,-4,-11,60,17,0,-2,0
1501935662187428,-1,-2,-29,-21,-6,4,1,-4
1501935662187428,-6,-6,9,12,-9,-11,-9,-6
1501935662202461,1,1,-19,56,4,5,3,1
1501935662202461,-5,-5,8,-74,-16,-10,-7,-4
1501935662204428,-5,-9,-39,-22,-2,-5,-3,0
1501935662204428,2,2,-20,-26,-4,8,2,1
1501935662224463,-4,-3,-3,-47,-10,-7,-2,-4
1501935662224463,-2,-1,12,42,3,0,-2,-2
1501935662226440,2,6,34,92,32,8,2,2
1501935662226440,-2,-3,-8,67,20,3,-1,-3
1501935662238463,2,6,34,1,1,-2,-2,1
1501935662238463,2,3,8,39,-8,-3,1,2
1501935662247450,-5,-6,-26,-75,-15,-2,-3,-4
1501935662247450,0,-3,0,54,1,-3,1,3
1501935662262444,-1,-7,-7,56,17,6,1,-7
1501935662262444,0,5,23,-68,-27,-4,0,0
1501935662264433,2,2,18,76,17,7,1,-2
1501935662264433,2,0,-15,-43,-22,-1,2,3
1501935662284505,2,9,24,46,20,5,2,3
1501935662284505,-6,-7,-20,-38,-8,-6,-2,-3
1501935662286443,2,2,21,67,35,11,2,-2
1501935662286443,-5,2,18,58,-33,-20,-6,0
1501935662298475,3,6,3,-67,-8,-6,1,5
1501935662298475,-2,1,-10,50,13,6,-1,-1
1501935662307469,-1,-1,18,76,28,2,-4,-4
1501935662307469,3,5,7,-15,-5,8,4,3
1501935662322448,-3,-8,-15,43,7,0,-4,-3
1501935662322448,-1,1,20,85,-17,-11,0,3
1501935662324455,0,0,-31,-122,4,2,1,-2
1501935662324455,-4,-2,15,32,32,-1,-3,-4
1501935662344485,-1,0,5,-6,-9,-10,1,4
1501935662344485,8,6,8,17,33,18,6,7
1501935662346449,-15,-16,-28,-79,-52,-20,-9,-7
1501935662346449,3,4,5,96,8,4,3,2
1501935662367508,0,4,23,0,-10,3,-1,-3
1501935662367508,-2,-5,-14,42,-7,-5,-2,-2
1501935662369438,0,-2,4,13,5,-1,-2,-1
1501935662369438,0,0,-8,-105,-29,-3,-2,0
1501935662382483,0,-2,-8,15,-1,0,-2,1
1501935662382483,-5,-8,-14,7,5,1,-3,-7
1501935662384439,3,7,15,-12,-27,-4,0,5
1501935662384439,-4,-8,-34,-13,-16,-1,-4,-5
1501935662404505,5,9,29,77,22,6,2,3
1501935662404505,0,-4,-25,-55,8,3,-2,-3
1501935662406451,-5,-4,-2,84,23,-5,-3,-2
1501935662406451,1,-3,10,75,11,-1,-2,-1
1501935662427509,-4,-5,-53,-80,-32,-7,-1,0
1501935662427509,-3,1,15,-18,-12,-7,-2,-4
1501935662429442,4,2,15,36,5,2,-1,0
1501935662429442,0,-4,-8,-96,-43,-6,2,4
1501935662442489,-6,-5,9,22,1,-4,-5,-7
1501935662442489,2,3,3,81,16,5,0,2
1501935662444454,-4,-4,-22,-73,-17,-5,0,-5
1501935662444454,3,5,23,62,22,6,1,0
1501935662464487,-4,-5,-8,63,5,-2,-4,-2
1501935662464487,-2,-1,-13,-123,-22,-7,-3,-3
1501935662466452,4,2,5,53,6,8,2,2
1501935662466452,0,-2,-60,-39,4,5,0,-1
1501935662487510,-5,-9,36,27,-18,-8,-3,-1
1501935662487510,-3,-2,4,-11,8,-2,-3,-2
1501935662489455,-3,-3,15,47,-5,-5,-5,-4
1501935662489455,0,2,10,14,0,3,-2,-3
1501935662501447,4,6,6,-73,10,3,1,1
1501935662501447,-1,-6,-14,-75,-31,-7,-2,0
1501935662508488,2,8,2,-69,3,3,3,2
1501935662508488,-6,-9,-11,33,-2,-6,-5,-6
1501935662523461,2,6,8,-2,6,4,0,0
1501935662523461,4,9,28,98,17,3,2,4
1501935662532449,-2,2,10,28,-22,-7,-2,1
1501935662532449,-2,-4,-3,14,-10,-3,-4,-3
1501935662547492,-2,4,16,-2,-3,3,1,1
1501935662547492,4,6,18,46,17,9,5,1
1501935662549450,-1,-6,-44,-20,-5,-5,-2,-1
1501935662549450,-1,0,14,65,7,-1,-1,-1
1501935662569496,-3,-7,-29,-88,-32,-6,-5,-5
1501935662569496,-6,-7,7,82,13,-9,-3,0
1501935662571449,-1,0,15,-64,-20,-5,0,-6
1501935662571449,2,-1,-21,11,8,4,0,3
1501935662583489,6,10,12,-41,-9,4,2,0
1501935662583489,-1,-1,6,70,30,4,0,0
1501935662592490,2,1,5,-20,-11,0,0,0
1501935662592490,-5,-6,18,35,4,-8,-4,-3
1501935662607519,1,-1,-26,-4,11,2,-1,-1
1501935662607519,-2,0,-1,-45,-35,-1,-3,-2
1501935662609482,-4,-7,-7,-26,-7,-1,-1,1
1501935662609482,8,15,30,3,39,16,6,1
1501935662629453,-12,-18,-5,-7,-18,-21,-11,-7
1501935662629453,1,-2,-9,-25,-14,-1,0,-2
1501935662631455,1,1,-2,75,24,5,-1,-1
1501935662631455,3,6,35,-5,-23,0,3,1
1501935662643493,-4,-11,-47,73,13,-4,-1,-3
1501935662643493,3,2,-3,-68,-9,-3,0,4
1501935662652455,-12,-10,-24,-57,15,1,-6,-12
1501935662652455,-5,-4,6,63,17,-6,-4,-1
1501935662667512,4,4,22,47,5,8,1,1
1501935662667512,-4,-8,-33,-63,-20,-6,-5,-5
1501935662669455,3,2,7,52,3,1,2,5
1501935662669455,7,12,21,9,18,18,7,4
1501935662689505,-10,-17,-30,-66,-75,-25,-7,-5
1501935662689505,0,3,-13,-15,3,-3,-2,-2
1501935662691456,1,1,30,75,7,-3,-3,-2
1501935662691456,-2,-6,-54,-44,5,1,-1,-2
1501935662703529,1,3,8,24,9,8,2,2
1501935662703529,-2,-2,1,-23,5,8,0,-5
1501935662712458,0,0,-2,-55,-13,-11,-3,1
1501935662712458,2,5,15,19,5,0,-1,-5
1501935662727528,-4,-8,-8,-7,10,0,-2,-4
1501935662727528,-1,-3,-10,110,5,-1,-2,-3
1501935662729459,0,1,3,-37,6,2,-1,0
1501935662729459,0,0,15,-76,-25,-5,-2,0
1501935662750483,0,7,42,-54,-3,-2,2,2
1501935662750483,2,3,18,-21,20,6,2,0
1501935662751460,-1,-8,-38,-23,-18,-5,-5,-4
1501935662751460,-5,-6,7,13,-42,-13,-1,2
1501935662763503,-1,1,1,70,32,7,-2,-9
1501935662763503,1,3,1,-13,-22,-7,0,3
1501935662772462,2,4,4,51,10,5,2,2
1501935662772462,-5,-7,-14,-23,-4,-7,-7,-6
1501935662787483,3,3,12,57,15,7,-1,2
1501935662787483,3,4,8,-3,17,5,-5,-2
1501935662789463,-4,-3,7,-21,-18,-2,6,15
1501935662789463,-5,-6,-14,-94,-12,-6,1,0
1501935662809464,-1,4,11,60,19,3,-10,-19
1501935662809464,-1,-4,-35,-52,2,2,5,-3
1501935662811465,-3,-1,11,48,-17,-8,-16,-8
1501935662811465,-5,-7,1,27,14,-2,12,2
1501935662823471,4,7,-11,73,-14,4,-2,9
1501935662823471,-7,-6,11,12,-12,-8,-7,-6
1501935662832465,-1,-2,17,-50,-1,-3,6,2
1501935662832465,2,4,9,-10,13,6,-7,-1
1501935662847490,-5,-16,-40,34,-2,-10,-5,-4
1501935662847490,4,5,14,107,16,8,6,2
1501935662849468,1,3,-35,-32,-45,-3,4,0
1501935662849468,-6,-7,-7,-1,-21,-13,-8,-5
1501935662869513,4,5,2,-51,0,4,6,8
1501935662869513,-2,-6,3,14,-10,-4,-4,-4
1501935662871468,1,3,-8,-16,26,8,-1,-4
1501935662871468,-4,-10,-55,106,9,4,-1,-5
1501935662892511,1,4,10,-40,-27,-7,3,7
1501935662892511,-3,-6,2,3,-4,-7,-4,4
1501935662894485,3,5,33,52,19,7,12,2
1501935662894485,-3,-5,-26,-3,-15,-5,-8,-5
1501935662907541,0,0,17,5,25,1,4,1
1501935662907541,0,1,-13,-111,-9,1,-11,-5
1501935662909470,-3,-3,10,22,9,0,1,-1
1501935662909470,1,0,-17,-89,-3,1,0,1
1501935662929542,-2,-1,21,-20,-16,-4,-4,0
1501935662929542,-1,-2,-2,-14,-10,-3,3,-1
1501935662931471,-1,-4,-8,-25,-4,1,-6,-8
1501935662931471,-1,0,-12,-100,-2,1,6,-1
1501935662952532,2,9,20,52,17,4,0,0
1501935662952532,-4,-4,2,30,35,-1,1,-3
1501935662954482,0,-1,-14,-23,-25,-8,-3,4
1501935662954482,2,3,16,41,9,-3,-4,1
1501935662967543,0,2,0,-53,0,4,1,-2
1501935662967543,0,0,4,22,3,1,-1,2
1501935662969474,-2,-7,2,49,4,-2,-4,-4
1501935662969474,-4,-3,4,41,-2,-7,-10,-7
1501935662989520,1,-2,9,40,17,1,8,2
1501935662989520,-2,2,-13,14,-3,2,-1,1
1501935662991484,-6,-8,-20,-41,7,-6,-4,2
1501935662991484,1,5,22,2,-11,-1,1,1
1501935663012513,-3,-5,-13,85,21,1,-6,-7
1501935663012513,2,5,6,34,-19,1,-1,0
1501935663014475,-1,1,5,30,8,3,0,-2
1501935663014475,2,2,0,-3,20,-2,0,5
1501935663026537,-3,-4,-2,-33,0,1,1,-1
1501935663026537,-1,-1,-2,-11,15,2,-2,-2
1501935663033518,0,1,4,-10,-29,-6,0,0
1501935663033518,-2,0,9,57,-2,-1,0,-4
1501935663049486,6,11,3,-78,10,7,4,2
1501935663049486,-4,-16,-75,-44,-26,-5,2,7
1501935663051477,-1,6,22,-31,-7,-3,-1,0
1501935663051477,-5,-7,-8,-34,16,-4,-7,-4
1501935663072514,3,2,-8,18,-19,-1,-14,-6
1501935663072514,-4,-2,19,66,-2,-4,12,4
1501935663074479,2,-1,-6,-3,12,7,-9,-4
1501935663074479,2,1,7,108,16,8,12,2
1501935663086518,-6,-10,-34,-9,-2,-6,-4,5
1501935663086518,-2,0,9,32,5,-2,-1,-2
1501935663093521,-2,-6,-3,93,16,-1,-4,-5
1501935663093521,1,6,27,-111,-20,-1,-2,-2
1501935663109521,-5,-7,-13,14,-3,-6,-3,-3
1501935663109521,1,-2,-5,-27,-13,-4,-11,-3
1501935663111514,0,0,5,-39,18,2,12,2
1501935663111514,-3,-11,-66,20,-5,-4,-13,-3
1501935663132546,4,6,17,86,10,5,18,5
1501935663132546,6,13,67,76,20,14,10,4
1501935663134483,-7,-7,-24,-67,-27,-15,-5,-4
1501935663134483,-1,2,19,48,9,0,1,-1
1501935663146523,0,-3,-13,-4,4,-1,-7,-3
1501935663146523,-3,-2,3,60,14,0,-4,-4
1501935663153527,4,5,22,-4,13,6,-2,0
1501935663153527,0,-1,-16,2,-6,1,1,1
1501935663169549,1,3,36,21,-11,2,9,6
1501935663169549,-8,-8,-31,-122,-69,-23,-13,-8
1501935663171485,2,2,3,69,2,7,-1,-3
1501935663171485,-3,-2,3,-30,-9,-7,-4,1
1501935663192553,2,2,7,-2,11,1,0,-1
1501935663192553,-1,-4,-19,-41,3,0,-1,-2
1501935663194486,-2,1,5,38,8,-3,-5,-3
1501935663194486,2,3,6,-68,-13,1,2,2
1501935663206529,-8,-8,-11,6,-10,-10,-2,-1
1501935663206529,6,10,31,-75,-1,6,2,-1
1501935663213528,-6,-10,-32,-5,1,-9,-4,-2
1501935663213528,2,-1,-4,8,1,-1,-4,-1
1501935663229559,-4,-6,-32,-81,-21,-3,0,-3
1501935663229559,-2,1,15,-51,-1,-7,-9,-5
1501935663231488,3,5,31,127,13,9,5,7
1501935663231488,0,2,16,97,22,4,2,-4
1501935663252534,-3,-3,-4,-62,-10,-5,-6,-2
1501935663252534,-4,-5,-8,16,-10,-7,-3,-4
1501935663254500,3,3,1,17,10,6,1,0
1501935663254500,-4,-2,-3,-55,-29,-6,1,2
1501935663266532,-1,2,30,72,8,-2,-4,-4
1501935663266532,-3,-4,-36,39,13,-4,-9,-4
1501935663273538,-2,-4,-14,-55,-6,1,9,3
1501935663273538,-2,-2,-21,-66,-8,2,-2,-9
1501935663289557,-1,-1,13,71,7,-1,-2,-1
1501935663289557,-1,-4,-7,-82,-22,-3,1,1
1501935663291491,-2,-1,-2,66,13,-1,-8,-4
1501935663291491,1,-2,14,-37,10,-1,2,4
1501935663312554,-1,1,-31,-55,-8,3,-1,-6
1501935663312554,-1,-1,15,76,6,0,11,5
1501935663314504,-1,3,3,-63,0,-3,-9,-6
1501935663314504,1,-2,4,28,3,1,0,-1
1501935663326535,-3,-5,-21,18,-4,-7,-8,-1
1501935663326535,1,0,17,-15,-6,-2,0,-1
1501935663333536,2,1,-1,18,7,3,2,-1
1501935663333536,-3,-8,-15,54,32,0,-7,-2
1501935663349535,0,8,39,-13,-24,-5,-1,0
1501935663349535,-4,-10,-46,-18,-17,-8,-1,-2
1501935663351495,-4,-5,-11,-21,-17,-4,-3,-2
1501935663351495,-1,2,19,38,2,1,-2,0
1501935663372498,2,2,-3,38,9,7,5,1
1501935663372498,-3,-2,-2,-33,-21,-1,-13,-5
1501935663374506,3,-3,13,-30,-12,-10,0,-3
1501935663374506,-8,2,1,28,-20,-2,-3,-2
1501935663386513,0,0,19,15,15,3,2,2
1501935663386513,1,1,-11,21,7,6,2,2
1501935663395498,-2,-2,-9,46,22,-1,-2,-3
1501935663395498,-3,-9,-18,-64,-44,-14,-2,-1
1501935663409538,-2,-5,-16,-10,-5,-5,-5,-3
1501935663409538,-1,2,11,46,21,8,2,-4
1501935663411498,3,3,25,-4,20,6,3,6
1501935663411498,2,0,-2,-17,9,-1,1,-2
1501935663432538,4,9,24,27,10,8,3,5
1501935663432538,-5,-10,-58,-118,-54,-19,-6,-2
1501935663433509,1,3,2,-32,-3,1,0,1
1501935663433509,0,-2,12,9,-9,-2,5,5
1501935663446521,-4,-6,-17,14,-8,2,-7,-14
1501935663446521,4,6,20,55,29,3,2,0
1501935663455502,-3,-4,-10,-26,-11,0,-4,-4
1501935663455502,0,0,-8,4,-4,-5,-2,-2
1501935663469567,2,-3,-20,-80,5,4,10,7
1501935663469567,-3,0,25,101,31,0,-7,-6
1501935663471502,-1,0,-5,26,-19,-7,-5,4
1501935663471502,3,4,-4,-49,24,10,7,0
1501935663492566,0,-1,1,89,-6,-6,-2,3
1501935663492566,0,2,18,90,13,3,1,0
1501935663493516,-6,-5,2,-95,-19,-7,-5,0
1501935663493516,-2,-2,-29,-42,5,0,-12,-3
1501935663506514,-3,-6,-20,-18,-7,-5,4,-1
1501935663506514,1,0,-9,43,14,7,5,7
1501935663514513,2,4,14,-35,-5,5,2,-8
1501935663514513,3,4,-2,63,5,8,6,4
1501935663529572,-1,0,23,-121,-26,-13,-9,-3
1501935663529572,-1,-4,-19,4,-15,-2,0,-1
1501935663531509,0,0,-1,69,13,2,2,2
1501935663531509,1,0,-15,-32,1,1,-6,-5
1501935663552578,0,-2,-6,-26,0,-2,3,1
1501935663552578,2,2,4,60,31,10,2,-2
1501935663553514,-7,-8,-1,-12,-46,-12,2,0
1501935663553514,0,1,21,67,-3,-3,-6,-1
1501935663566523,-1,-2,9,71,14,2,-7,-10
1501935663566523,-2,-1,-1,-56,-5,-2,-7,-2
1501935663575508,-2,-3,-17,-15,30,0,5,-2
1501935663575508,-2,-3,-1,31,-12,-6,-10,3
1501935663589553,3,0,6,4,-1,3,9,2
1501935663589553,3,7,20,3,17,10,0,4
1501935663591508,-5,-7,-18,44,-40,-8,-3,0
1501935663591508,-2,1,29,3,-7,-5,0,-3
1501935663612573,1,-1,-15,-36,-6,3,0,3
1501935663612573,-2,-5,-27,30,8,-4,-8,-8
1501935663613512,2,1,-3,32,20,5,5,3
1501935663613512,-8,-11,-20,74,-19,-13,-5,-4
1501935663626537,-1,1,10,32,-4,-2,-7,-2
1501935663626537,0,3,26,-35,-10,-1,11,7
1501935663635513,-2,-1,-4,-73,1,-1,4,1
1501935663635513,1,5,10,-22,8,4,-2,-5
1501935663649530,-2,-1,-20,-2,-10,-6,-8,-2
1501935663649530,-2,-2,-8,6,-4,-2,3,0
1501935663651511,1,2,4,25,9,4,-8,-4
1501935663651511,-2,-3,6,-62,-6,-2,7,-1
1501935663672519,-3,-2,-8,6,5,2,-8,-2
1501935663672519,1,0,7,-19,-5,-2,5,2
1501935663674513,-3,-1,5,44,-6,-2,-3,-5
1501935663674513,5,11,42,48,24,11,4,2
1501935663686524,-4,-11,-48,3,5,-5,-4,-1
1501935663686524,-6,-7,-7,-45,-27,-18,-5,-3
1501935663701526,-3,-3,-29,31,-8,0,0,-6
1501935663701526,1,2,12,36,1,1,-1,-1
1501935663709586,-3,-7,-4,40,12,4,4,0
1501935663709586,1,-1,-11,-27,-8,0,0,-2
1501935663716532,1,0,1,30,10,-4,-14,-2
1501935663716532,-1,2,4,-35,-19,2,6,1
1501935663732575,-3,-4,-28,-68,-22,-6,3,-1
1501935663732575,-2,-5,-17,-25,-11,0,-4,-2
1501935663734516,1,4,40,57,22,3,-2,-1
1501935663734516,-3,-9,-58,-99,-17,0,2,-2
1501935663746537,-1,3,30,15,4,-1,-2,1
1501935663746537,3,6,16,40,1,3,-5,-2
1501935663755519,2,4,9,59,19,4,-1,2
1501935663755519,-4,-4,11,63,21,-3,7,2
1501935663769528,5,8,5,-54,-22,3,-2,-2
1501935663769528,-1,-1,1,-16,-3,-3,3,2
1501935663771519,2,0,11,-86,-13,-3,-3,1
1501935663771519,-8,-15,-51,89,-10,-12,-8,0
1501935663792533,2,6,10,-11,21,7,3,2
1501935663792533,-3,-1,15,48,-6,-1,-2,-4
1501935663793520,2,1,-10,-48,-17,0,5,0
1501935663793520,1,0,-2,-30,4,4,1,-2
1501935663814555,9,6,44,-12,12,2,2,4
1501935663814555,-16,-9,-21,-3,5,-3,-5,-11
1501935663816522,1,-5,-23,54,5,1,1,1
1501935663816522,-3,-1,13,42,-5,-4,-5,-4
1501935663829535,-2,-1,-3,60,4,-6,-4,1
1501935663829535,6,2,14,-44,1,2,1,5
1501935663831524,-6,-4,-8,16,-7,-2,-2,-14
1501935663831524,2,5,12,-12,4,2,2,3
1501935663852553,-7,0,5,-3,-4,3,1,-10
1501935663852553,2,-6,-11,-70,-25,-15,-10,7
1501935663853532,-6,-2,-11,20,12,-2,1,-1
1501935663853532,4,-6,-19,-36,-9,2,0,7
1501935663874525,-2,-4,-14,-3,7,0,-5,-2
1501935663874525,1,-1,-20,-30,15,5,1,-10
1501935663876527,3,5,44,59,5,0,-2,4
1501935663876527,-5,-5,-24,-22,11,0,3,-5
1501935663889533,0,1,-12,70,-2,-8,-5,-3
1501935663889533,2,3,36,103,10,3,-2,5
1501935663897526,0,3,-7,-58,-3,0,2,3
1501935663897526,-5,-5,12,54,8,-1,-2,-5
1501935663912593,-2,-1,-1,10,-19,-7,-5,-2
1501935663912593,2,4,23,-7,20,9,11,2
1501935663913547,-6,-13,-39,-39,-13,-4,-1,-2
1501935663913547,1,2,5,21,12,-1,-19,-8
1501935663934570,1,0,-1,7,-1,3,16,3
1501935663934570,-7,-2,12,95,5,-5,-10,-2
1501935663936538,4,1,-6,-67,-12,2,5,10
1501935663936538,0,2,24,-15,-9,-2,-2,-7
1501935663949545,-2,-3,-13,-51,7,0,-8,-5
1501935663949545,-2,-4,-14,-39,-12,-1,2,0
1501935663955593,2,5,6,27,8,5,-2,1
1501935663955593,2,4,-12,2,-3,-3,4,2
1501935663979577,-8,-1,32,90,-4,1,-6,-10
1501935663979577,8,1,2,20,12,0,4,7
1501935663981566,0,0,9,25,-16,-2,3,1
1501935663981566,0,-2,-36,-65,-6,2,4,4
1501935663994576,-5,-5,23,-33,17,0,-4,-3
1501935663994576,4,3,0,-64,-22,-6,1,2
1501935663996564,-2,-3,14,28,8,-2,-6,-9
1501935663996564,1,3,4,34,7,1,-1,0
1501935664008575,-2,-4,-25,-38,-14,-3,-7,1
1501935664008575,4,6,-4,3,24,12,6,-2
1501935664017534,-3,-3,19,-32,1,-11,-7,-2
1501935664017534,-3,2,29,15,-9,-1,6,-4
1501935664032596,-3,-8,-35,-50,-14,-3,-7,3
1501935664032596,-3,0,13,-8,6,-1,0,-5
1501935664033534,1,-2,-23,-10,-5,1,-3,-3
1501935664033534,0,0,21,41,6,-3,1,2
1501935664054595,6,6,21,-32,5,6,2,7
1501935664054595,-3,-9,-27,-38,-13,-6,-7,-8
1501935664056535,-9,-2,-2,37,-2,-5,4,-4
1501935664056535,-2,-1,2,44,-4,-3,-11,-4
1501935664069577,0,-5,-15,-31,-16,-4,2,0
1501935664069577,-2,-1,2,83,8,4,8,-6
1501935664076558,6,-4,-7,-94,-16,1,4,13
1501935664076558,2,2,-19,-74,2,-3,3,2
1501935664092584,-2,-4,5,60,-17,-4,-1,-2
1501935664092584,1,0,-2,12,0,-4,-4,3
1501935664093548,-6,-3,18,-40,0,-2,-5,-9
1501935664093548,-3,0,-11,0,-4,-2,3,-3
1501935664114607,4,5,14,62,8,1,0,-2
1501935664114607,-7,-9,-36,-100,-35,-10,-8,-4
1501935664116540,1,5,15,25,12,3,1,2
1501935664116540,-2,-5,-14,-12,-18,-3,1,4
1501935664129610,-6,-1,-1,-83,-1,-2,-3,-7
1501935664129610,1,6,40,118,30,7,3,0
1501935664136558,0,-1,-16,-23,-12,-2,-5,-3
1501935664136558,-4,-2,4,16,-1,-2,0,0
1501935664152563,1,-2,-7,60,13,1,-3,2
1501935664152563,6,2,-1,-15,-7,1,6,3
1501935664153546,-5,-3,-8,75,28,3,0,2
1501935664153546,0,2,20,11,-8,-4,-7,-9
1501935664174584,-3,-8,-45,-17,7,2,-1,-3
1501935664174584,-1,1,3,-6,4,2,-1,1
1501935664176543,4,8,44,127,12,4,1,-5
1501935664176543,-3,-8,-29,-72,-4,-7,-2,5
1501935664189584,1,7,5,-21,0,-2,-9,-6
1501935664189584,-2,0,-13,-92,-20,-3,3,-1
1501935664195589,-1,-5,-22,2,-5,-1,2,4
1501935664195589,1,2,20,61,31,6,1,-1
1501935664212580,1,5,16,-12,-20,-6,4,4
1501935664212580,-11,-12,-23,-46,-15,-6,-10,-8
1501935664213545,1,2,2,-16,0,-1,-1,-9
1501935664213545,5,-1,-13,-128,-20,2,-7,4
1501935664234571,-1,-2,11,63,20,1,11,6
1501935664234571,2,4,25,34,8,-1,-3,0
1501935664236546,-4,-5,-22,-96,-32,-6,-5,-9
1501935664236546,-3,-2,-1,59,9,3,-1,-2
1501935664249621,-1,-1,12,72,5,0,-2,1
1501935664249621,1,-1,-12,-79,-9,-1,0,7
1501935664255606,-1,-6,-19,-48,3,-5,-2,-4
1501935664255606,-4,-3,-26,-30,-25,-4,-5,-4
1501935664272580,1,-1,8,92,8,5,7,4
1501935664272580,-4,-6,-17,-9,2,-6,-5,-3
1501935664273559,2,2,-18,-50,-11,0,-9,3
1501935664273559,0,1,24,93,34,8,11,-3
1501935664294550,-1,2,4,-89,-34,-4,2,-1
1501935664294550,-1,-1,13,127,-9,-5,-2,-1
1501935664296558,-4,0,4,71,6,-5,-4,-5
1501935664296558,2,-3,-3,-7,-17,-4,4,12
1501935664317615,-3,-6,-24,-57,13,-1,-6,-9
1501935664317615,3,3,10,-11,5,3,-6,2
1501935664318550,-3,0,3,-24,-8,-2,-2,-4
1501935664318550,0,0,27,7,-7,-7,6,-7
1501935664332621,-5,-2,-4,-17,0,2,0,2
1501935664332621,-3,-6,-19,-64,15,5,-3,-2
1501935664333552,3,3,-11,-5,-7,0,-3,1
1501935664333552,-5,-3,-15,-75,-7,-4,3,-2
1501935664354567,4,2,13,-6,-11,0,-1,3
1501935664354567,-3,-5,-24,-50,-7,0,-3,-5
1501935664356562,5,8,37,69,29,9,6,3
1501935664356562,-4,-2,3,-58,-37,-12,-6,-2
1501935664368596,0,-1,-2,46,-1,-3,5,4
1501935664368596,-4,1,5,55,12,-1,-10,-11
1501935664377593,1,-1,-1,6,-17,1,8,4
1501935664377593,0,2,1,16,11,2,-6,-6
1501935664392626,-3,-6,-9,-30,12,-4,-2,-2
1501935664392626,1,-1,-17,-12,-8,0,2,1
1501935664393564,-8,-7,-9,-46,-16,-10,-5,-7
1501935664393564,2,5,1,1,8,6,0,0
1501935664414598,-1,-7,-14,-68,-4,-1,0,-1
1501935664414598,-3,3,16,98,17,1,-5,-10
1501935664416588,-2,-6,-10,-24,0,-6,-1,-1
1501935664416588,-3,-8,-39,-80,-24,-6,-6,1
1501935664428599,0,1,5,126,21,-1,-1,-3
1501935664428599,1,1,-11,-58,-9,1,8,6
1501935664437567,4,1,10,71,5,5,-3,-1
1501935664437567,-4,0,-21,127,49,6,6,6
1501935664452626,-3,-2,-19,10,-25,-9,-5,0
1501935664452626,-3,-4,-13,-75,-40,-6,-1,-4
1501935664453577,-2,-1,-5,24,-3,-2,0,6
1501935664453577,3,3,24,-35,0,1,1,0
1501935664474570,2,2,0,-64,3,7,7,4
1501935664474570,-4,2,10,127,18,0,-4,-2
1501935664476562,1,-1,9,-2,15,2,-1,-3
1501935664476562,0,2,1,26,-16,-5,-5,-5
1501935664488601,-4,0,16,59,5,-6,-1,-2
1501935664488601,-1,-5,1,-62,-5,-3,-1,-3
1501935664497573,0,-2,-28,-33,8,2,-2,-1
1501935664497573,-2,2,19,-3,5,3,0,-4
1501935664512626,2,2,7,14,-9,1,-2,-4
1501935664512626,1,-1,-3,109,27,5,0,3
1501935664513573,-2,3,29,12,6,-3,-1,3
1501935664513573,3,-6,-30,-80,-25,-1,6,8
1501935664534614,-3,-3,-16,85,12,-1,-1,-5
1501935664534614,5,7,20,-72,-40,-4,2,3
1501935664536596,-3,-4,-12,-6,-5,2,-1,0
1501935664536596,4,5,34,-39,15,5,-4,-5
1501935664548600,-3,-4,-17,51,36,6,-16,-11
1501935664548600,-2,-6,-30,-60,-40,-18,23,14
1501935664557575,-1,1,14,43,-7,-1,-1,-6
1501935664557575,-4,-2,0,-41,2,4,-1,-8
1501935664572593,4,3,19,58,11,-1,0,4
1501935664572593,-1,-1,-5,-25,7,3,-7,-5
1501935664573566,-1,-4,-28,-62,-13,-3,0,2
1501935664573566,-3,-1,-1,17,3,-1,-2,-3
1501935664594610,0,3,15,-74,-11,0,0,0
1501935664594610,1,0,20,105,23,0,-3,0
1501935664596567,-2,-2,-20,-111,-45,-6,6,2
1501935664596567,1,0,24,127,36,5,-5,-2
1501935664608609,1,1,-3,-128,-36,-4,8,7
1501935664608609,-2,-2,5,69,-1,-1,-11,-10
1501935664617567,1,0,7,30,7,2,4,7
1501935664617567,1,-3,-20,23,-12,-3,-4,-9
1501935664632633,-3,-5,-31,-105,-12,-5,1,-3
1501935664632633,1,3,8,-4,20,5,1,1
1501935664633568,-1,2,3,6,-1,-4,-4,0
1501935664633568,2,1,12,63,-3,-1,2,7
1501935664654613,-8,-12,-17,-85,-15,-6,-7,-10
1501935664654613,2,-4,-30,20,-10,2,-3,0
1501935664656569,-5,2,25,101,13,-2,-3,-4
1501935664656569,-2,-2,-7,-102,-55,-14,-1,5
1501935664668616,-4,-6,-20,42,7,-6,-6,-5
1501935664668616,-1,0,16,29,13,3,2,1
1501935664677580,2,-1,0,21,5,4,-3,-8
1501935664677580,-1,0,-1,-69,1,-5,-8,0
1501935664692643,-1,0,1,46,-2,0,10,0
1501935664692643,-1,0,0,-48,-8,2,-1,2
1501935664693577,3,3,11,72,8,1,3,4
1501935664693577,-3,-4,-2,34,10,-4,-4,-2
1501935664714615,2,1,15,82,8,1,-1,2
1501935664714615,1,1,4,-33,-1,-3,1,1
1501935664716575,-4,-6,-11,12,-8,-6,-4,-5
1501935664716575,1,2,2,67,5,0,-3,1
1501935664737636,1,-1,1,-86,12,3,-8,-4
1501935664737636,-2,-2,-4,-8,-1,-2,10,2
1501935664738575,-3,-8,-22,-30,-8,0,-3,1
1501935664738575,0,2,26,47,4,1,2,-5
1501935664752636,2,1,7,71,13,3,-1,0
1501935664752636,-3,-4,1,-67,-14,-5,-6,-2
1501935664753575,1,-1,-17,-63,-8,-5,-3,-1
1501935664753575,-4,-3,-3,-9,17,-1,-7,-7
1501935664774615,1,4,6,45,2,3,9,5
1501935664774615,-2,-3,3,-62,-12,-6,-16,-7
1501935664776576,2,2,3,7,0,5,13,4
1501935664776576,-5,-11,-19,-15,-8,-3,-2,-2
1501935664797637,4,4,-3,-40,-21,-4,-11,2
1501935664797637,-4,0,16,95,23,2,8,-3
1501935664798588,4,1,-8,-12,-5,-3,1,6
1501935664798588,1,2,21,-14,-3,1,2,1
1501935664812640,-4,-5,-13,-50,11,7,1,-6
1501935664812640,-1,-2,-7,127,9,-3,-7,-4
1501935664813616,-2,-2,0,-5,-11,-5,-6,-2
1501935664813616,-1,-3,-12,-51,-2,0,3,3
1501935664834622,2,3,14,17,0,1,-2,-2
1501935664834622,-1,1,5,-21,6,0,-3,-1
1501935664836580,-2,4,-2,75,22,3,2,-3
1501935664836580,2,0,2,-20,-12,2,2,2
1501935664857620,-2,1,15,40,-7,-4,1,2
1501935664857620,-1,-3,-3,-13,-1,-2,-4,-3
1501935664858594,0,-2,-4,15,-4,-4,-6,-3
1501935664858594,1,2,-7,-9,1,4,6,-1
1501935664872614,1,2,1,-38,3,-1,1,3
1501935664872614,-3,-5,-9,48,-9,-2,0,0
1501935664873583,-1,-2,7,-31,9,1,-2,-2
1501935664873583,-1,1,-8,86,8,2,2,-1
1501935664894625,-1,-4,-11,-69,0,-4,-6,-4
1501935664894625,1,4,22,81,20,3,3,-3
1501935664896593,-5,-8,-10,-6,-17,-5,3,1
1501935664896593,-2,0,-10,40,-14,-10,-6,-6
1501935664917626,-2,-10,-16,-2,4,0,4,4
1501935664917626,2,1,-15,-63,-10,0,-3,3
1501935664918585,-3,-4,11,56,4,2,-4,-7
1501935664918585,-3,-1,9,22,8,-2,-1,-1
1501935664931649,0,2,3,33,-9,-4,-3,-1
1501935664931649,0,0,9,42,11,0,-3,2
1501935664938619,1,0,-8,-42,-28,-3,3,5
1501935664938619,1,0,-15,-99,-11,2,-1,-2
1501935664954653,-2,3,27,100,12,0,-5,-2
1501935664954653,0,-5,-40,-85,-29,-6,2,2
1501935664956587,-2,1,6,-32,15,-1,0,0
1501935664956587,0,-1,-12,-71,-3,3,-6,-11
1501935664977653,-4,-3,2,24,-23,-9,1,1
1501935664977653,2,6,42,-69,2,4,1,-2
1501935664978625,-3,-3,-9,22,1,-3,-5,-5
1501935664978625,3,1,7,42,18,9,5,8
1501935664991629,-5,-7,-37,-59,-32,-9,1,0
1501935664991629,-4,-6,-19,53,-7,-3,-2,0
1501935664998634,0,-2,-5,29,0,1,-8,-3
1501935664998634,-5,-6,7,-15,-7,-9,-4,-1
1501935665014632,2,1,-14,-37,14,6,8,-3
1501935665014632,-4,-5,-7,39,2,-2,-7,-3
1501935665016592,-1,0,-16,-112,-12,-4,-4,1
1501935665016592,1,-1,-3,-22,4,2,-1,-1
1501935665037634,3,4,8,30,11,7,7,5
1501935665037634,-1,4,16,-75,-6,-1,-2,-8
1501935665038591,-2,-6,-10,29,7,-1,-4,-5
1501935665038591,0,2,3,0,-5,-4,-1,4
1501935665051634,-1,0,27,72,5,1,-1,-6
1501935665051634,1,-1,-6,-7,3,2,2,0
1501935665058634,0,3,24,102,37,6,-2,-3
1501935665058634,4,3,-24,-45,-29,1,3,3
1501935665074660,-4,-5,-5,-14,1,-7,-9,-1
1501935665074660,-1,0,-2,18,1,-1,-3,0
1501935665076594,-1,-2,0,-13,0,1,7,1
1501935665076594,0,2,7,59,7,4,1,0
1501935665097664,0,-3,10,57,19,-1,-3,0
1501935665097664,0,3,14,-15,-18,-3,2,-2
1501935665098596,-5,-2,8,37,-7,-1,4,-3
1501935665098596,-4,-3,-3,12,-5,-5,-5,-6
1501935665111641,2,-3,-21,-62,-13,-3,-8,-5
1501935665111641,-2,-3,0,66,18,-1,2,-1
1501935665118638,-1,-1,0,-30,-13,0,1,1
1501935665118638,2,2,17,3,0,-1,3,5
1501935665134637,-2,-1,-6,-46,-15,-2,-3,-5
1501935665134637,-4,-10,-38,-82,-22,-8,-1,2
1501935665136599,1,2,8,26,8,2,-4,-2
1501935665136599,-2,-1,2,-40,11,0,-2,-2
1501935665157664,-2,-3,-17,-98,-26,-8,0,0
1501935665157664,-1,-1,8,45,9,4,3,0
1501935665158600,0,0,-6,15,1,-2,-3,2
1501935665158600,-4,-4,6,77,8,-4,-3,-8
1501935665171664,2,2,-5,-3,-3,1,-1,0
1501935665171664,0,-2,9,52,14,4,2,3
1501935665178643,4,0,-27,-61,-20,-3,-4,-2
1501935665178643,-12,-2,12,-73,-10,-6,-4,-7
1501935665194669,1,-6,14,127,11,-6,-2,15
1501935665194669,1,-1,-39,-109,-14,0,1,-3
1501935665196601,1,4,38,11,17,0,-3,-11
1501935665196601,-2,-2,-6,86,-4,-2,0,-3
1501935665217647,0,-1,5,73,6,-3,-3,1
1501935665217647,-1,3,16,18,5,-3,-3,4
1501935665218602,-6,-5,4,-73,18,0,0,-7
1501935665218602,12,0,-20,-23,-9,1,0,6
1501935665230644,-7,3,5,-28,-11,6,2,-10
1501935665230644,1,-2,-1,83,9,-3,-1,6
1501935665239617,-5,-2,-5,10,2,4,1,-3
1501935665239617,-2,-4,-20,-19,0,0,-1,-2
1501935665254649,7,5,3,52,3,1,0,1
1501935665254649,-2,-2,0,-6,-9,-1,3,3
1501935665256605,0,5,17,-32,-13,1,-3,0
1501935665256605,-3,-4,-19,29,12,-4,-4,-1
1501935665277667,-4,-3,-15,7,16,5,3,-2
1501935665277667,-1,2,2,-79,-34,-4,-2,-4
1501935665278606,3,2,-13,27,18,0,-1,6
1501935665278606,-3,1,10,91,13,3,1,2
1501935665290651,-1,0,14,55,-3,-2,-2,-1
1501935665290651,0,-1,-5,-4,0,0,3,0
1501935665299648,0,-4,-11,6,3,-2,-5,-4
1501935665299648,1,-1,4,-12,-2,-1,-3,-1
1501935665314649,0,-2,-2,-50,-4,5,1,-5
1501935665314649,-3,0,6,39,27,3,-2,-4
1501935665316608,3,3,15,31,-22,-4,1,5
1501935665316608,-5,-7,-7,-28,-4,-6,-3,-3
1501935665337673,-2,0,-7,4,8,3,0,-8
1501935665337673,3,2,23,98,0,0,-3,3
1501935665338609,-5,-7,-31,-40,-9,-1,-3,0
1501935665338609,-3,2,18,-18,-9,-2,2,0
1501935665350655,-1,-4,-22,-102,-20,-3,0,7
1501935665350655,-1,3,9,21,7,4,-3,-9
1501935665367621,2,3,-9,-23,2,1,1,-1
1501935665367621,-5,-5,-5,83,4,-8,-4,-2
1501935665374652,3,3,14,63,3,1,0,4
1501935665374652,-2,-6,-33,-108,-12,-2,-5,-3
1501935665376614,4,-2,19,45,8,-2,4,4
1501935665376614,-3,0,-8,22,-8,-3,1,3
1501935665397652,-2,2,34,27,17,-1,-1,-5
1501935665397652,0,1,13,12,12,-1,-4,-3
1501935665398612,-3,-5,-13,2,-11,-5,-2,-1
1501935665398612,-2,-4,-6,51,-5,-1,0,-2
1501935665410658,2,-3,-11,-95,-7,-3,-2,1
1501935665410658,-1,1,11,-60,-39,-2,0,-3
1501935665419648,-3,-2,-4,74,13,-2,-1,3
1501935665419648,0,2,-3,-97,-13,-1,0,-2
1501935665434656,-4,-1,16,48,-4,-2,-1,0
1501935665434656,-1,-4,-15,53,19,0,1,0
1501935665436618,-2,-1,-13,-64,-6,-1,-2,-3
1501935665436618,2,-1,-24,-25,4,-3,-1,0
1501935665457684,0,2,5,45,27,5,-2,-2
1501935665457684,-4,-3,7,24,-32,-7,-2,0
1501935665458616,-4,-5,-9,62,1,0,2,-4
1501935665458616,1,1,-2,-87,-14,0,0,1
1501935665470658,-1,-1,8,21,1,-3,-2,-1
1501935665470658,-2,-2,-13,56,15,0,-1,-2
1501935665479647,0,6,28,-28,-2,6,2,4
1501935665479647,-4,-6,4,94,-7,-6,-3,-2
1501935665494683,-3,-4,0,28,38,4,-1,0
1501935665494683,0,-1,-22,-97,-14,0,1,0
1501935665496619,0,-7,-37,-5,-9,-3,-2,-2
1501935665496619,2,3,15,-47,8,0,-2,0
1501935665524664,-2,-3,-18,-30,-1,-5,-3,-2
1501935665524664,-2,-2,3,79,10,4,0,-2
1501935665526620,-1,-1,7,-41,0,-2,1,-3
1501935665526620,-2,-1,21,64,-3,-1,-2,-3
1501935665530663,1,3,0,-12,-13,0,-1,0
1501935665530663,0,-1,5,38,3,-3,0,0
1501935665539630,-1,1,5,-71,-19,-3,-2,-2
1501935665539630,2,3,35,102,30,8,2,3
1501935665554663,-1,1,-3,-128,-62,-7,-2,-2
1501935665554663,-2,-5,-13,7,7,-3,-3,0
1501935665556621,-2,1,14,28,-10,-3,-3,-2
1501935665556621,3,4,1,21,14,7,1,1
1501935665577683,-5,-9,-12,91,-42,-16,-3,0
1501935665577683,0,0,6,42,13,1,0,-1
1501935665578626,0,-3,2,-35,3,-1,-1,-2
1501935665578626,0,2,2,-107,-8,1,1,1
1501935665590665,1,1,-4,-22,20,5,-1,-3
1501935665590665,1,3,29,10,0,-2,-1,1
1501935665599637,0,-1,-27,16,24,0,0,-1
1501935665599637,3,2,-4,42,-2,-1,0,6
1501935665614693,-3,-2,7,44,2,-1,-2,-5
1501935665614693,-2,0,7,-43,3,3,1,-7
1501935665616624,4,6,12,25,12,4,0,4
1501935665616624,-7,-5,-2,60,12,-1,-2,-9
1501935665637626,-3,-3,-11,41,-8,-4,-1,-1
1501935665637626,0,1,-2,-33,-5,0,2,4
1501935665638625,-2,-3,-1,-9,-17,-4,-4,-1
1501935665638625,0,0,6,-16,10,2,-1,-2
1501935665650669,-1,-1,-17,19,6,-2,-1,1
1501935665650669,-3,-4,-10,-31,7,-2,-4,-4
1501935665659642,1,0,4,-7,-5,-1,-1,0
1501935665659642,1,2,-2,-45,-5,-3,1,0
1501935665674629,2,2,19,-38,9,5,3,-1
1501935665674629,-3,-5,-23,28,-4,1,-2,-2
1501935665676629,-2,1,2,65,14,1,-1,2
1501935665676629,-1,0,13,57,-24,-8,-2,-5
1501935665697706,3,5,-8,-96,-3,3,-3,-2
1501935665697706,0,0,6,53,4,-4,1,4
1501935665698632,-5,-7,-9,18,-12,-5,2,-3
1501935665698632,-1,-2,-13,-41,0,2,-3,-1
1501935665719642,-2,0,12,8,18,0,0,0
1501935665719642,1,1,-20,-11,-1,-2,-3,0
1501935665721631,-3,-5,-9,57,14,1,-3,-1
1501935665721631,-1,0,-6,-40,-33,-6,3,1
1501935665734695,0,-2,11,28,-4,1,1,-2
1501935665734695,-2,-2,-6,-6,-4,-2,0,-2
1501935665736631,2,2,21,26,2,0,0,1
1501935665736631,-3,-7,-20,-17,3,-3,-3,-2
1501935665757702,2,2,-4,-41,-4,-1,0,2
1501935665757702,1,1,15,49,-3,-1,-1,2
1501935665758633,-3,-2,9,-36,13,1,-1,-12
1501935665758633,2,1,-6,3,-8,0,-1,2
1501935665779671,-4,-5,-8,31,2,-1,-1,-4
1501935665779671,2,5,18,-8,18,6,0,-2
1501935665781634,-3,-6,-27,-31,-18,-4,-2,1
1501935665781634,-2,1,20,28,8,-2,-2,-6
1501935665794676,-4,-6,-20,-16,3,-2,-1,-2
1501935665794676,-1,1,13,105,24,1,-1,-1
1501935665796636,-3,-2,-22,-102,-61,-7,-3,0
1501935665796636,-3,-3,2,97,7,-3,-1,1
1501935665817704,2,2,1,-15,2,0,0,4
1501935665817704,-2,-5,-4,-6,-11,-4,-2,-3
1501935665818636,0,1,-4,-24,2,-3,0,-1
1501935665818636,0,1,-3,-74,2,7,1,0
1501935665839638,0,1,9,8,-12,-4,0,1
1501935665839638,-2,-5,-6,6,9,-4,-4,-3
1501935665841645,0,0,9,14,-15,-1,0,1
1501935665841645,-1,-3,-21,-113,-8,-4,-3,1
1501935665854655,-2,0,-3,31,9,1,-2,-3
1501935665854655,1,1,-18,-20,-12,1,3,2
1501935665860677,-2,-3,-12,-21,-11,-5,-2,0
1501935665860677,-1,-1,-9,36,8,3,0,-1
1501935665877683,0,0,-4,3,-12,-3,-1,-2
1501935665877683,-2,-4,-12,-51,-9,-5,-2,0
1501935665878639,1,8,22,1,13,0,1,0
1501935665878639,-2,-2,-1,-94,-18,-3,-1,0
1501935665899697,-2,-6,-5,3,5,1,0,-2
1501935665899697,0,-1,-22,-20,1,2,0,-1
1501935665901641,0,-1,4,5,7,0,-1,-1
1501935665901641,0,-2,-5,35,8,0,-2,-1
1501935665914659,-2,-1,-1,-1,-10,-2,1,-1
1501935665914659,1,2,24,-55,3,2,-1,-3
1501935665920705,0,-5,-24,65,5,0,-1,2
1501935665920705,2,2,-22,-62,-33,1,1,4
1501935665937707,0,2,11,-6,6,-5,-2,-2
1501935665937707,-1,-3,-15,8,0,0,1,-1
1501935665938653,-2,-1,-4,15,1,2,0,-2
1501935665938653,-3,-3,-7,-47,15,0,-3,-6
1501935665959701,-3,-4,-4,-26,-18,-4,-2,-3
1501935665959701,-2,3,13,70,10,-4,-2,-2
1501935665961679,1,2,-3,-41,-4,3,1,2
1501935665961679,1,0,15,80,10,-1,0,0
1501935665974664,0,0,-3,-35,6,3,-1,1
1501935665974664,-2,-2,4,39,-5,-1,-1,-2
1501935665980715,-1,-1,-3,4,4,-3,-2,0
1501935665980715,-3,-3,1,-20,-11,-5,-1,1
1501935665997688,-2,2,-1,-36,-5,1,1,-1
1501935665997688,0,-2,-5,-5,-8,-1,0,3
1501935665998648,0,2,21,61,15,1,-1,-2
1501935665998648,0,-1,-18,15,-21,-2,-2,0
1501935666019708,-1,0,32,-27,-3,-1,-2,-1
1501935666019708,-3,-10,-35,-26,-11,-5,-2,-1
1501935666021657,-1,2,5,7,2,2,-1,-1
1501935666021657,-2,-5,13,119,16,-2,-1,-3
1501935666034667,-1,0,-5,-21,6,1,-1,-1
1501935666034667,2,2,6,53,12,5,-1,-2
1501935666040698,0,1,17,23,5,1,-1,-1
1501935666040698,-4,-5,-24,-87,-25,-6,-1,-1
1501935666057718,0,0,-12,76,4,-2,0,-1
1501935666057718,0,1,14,-70,-6,-3,-1,4
1501935666058652,-1,0,8,29,10,1,-2,-2
1501935666058652,-1,-1,-7,-15,11,5,0,-5
1501935666079693,-2,-7,-25,79,16,0,-3,-1
1501935666079693,-3,-1,2,-110,-17,-4,-3,-2
1501935666081650,1,-2,0,-7,-7,0,0,1
1501935666081650,1,2,16,6,7,-1,0,-1
1501935666094664,-1,-1,-10,0,-6,-2,-1,-2
1501935666094664,1,2,13,61,8,4,1,-1
1501935666100693,-1,-2,-29,-85,-21,-2,-2,-2
1501935666100693,-4,-4,11,69,2,-8,-4,-3
1501935666117694,1,1,15,6,3,-3,2,1
1501935666117694,-2,-3,-10,20,-7,0,0,-1
1501935666118655,0,0,13,65,16,-2,0,-2
1501935666118655,-1,1,23,127,12,1,-1,-1
1501935666139720,2,3,-4,-58,-31,-5,0,3
1501935666139720,0,1,16,46,-6,0,0,1
1501935666141654,-5,-8,-20,-42,1,-3,-3,-2
1501935666141654,2,5,13,-11,4,4,1,0
1501935666154655,-1,0,-5,-28,-12,-1,2,1
1501935666154655,-2,2,3,-35,6,-2,-3,-2
1501935666160720,0,1,5,22,7,1,0,-1
1501935666160720,1,0,-2,1,4,-1,-1,4
1501935666177722,-3,-2,7,24,5,2,-1,-5
1501935666177722,-1,-1,-16,-78,-6,-3,0,-1
1501935666178657,-2,-2,0,-19,-7,-4,0,-3
1501935666178657,1,1,-11,-127,-3,4,1,0
1501935666199723,-2,-5,-17,115,11,-1,-3,0
1501935666199723,-2,-3,16,49,-5,-8,-4,-4
1501935666201666,-3,-4,-19,4,2,-1,-2,-4
1501935666201666,-3,-2,-2,15,-2,-2,0,-1
1501935666213698,-1,-2,-14,-57,-1,-1,-3,-1
1501935666213698,-2,2,7,21,1,1,1,0
1501935666222662,0,-3,-2,6,2,-1,-1,-2
1501935666222662,-3,-4,-7,-42,-17,-4,-2,-3
1501935666237730,0,-1,-1,13,11,6,1,3
1501935666237730,-3,0,-1,-80,-29,-11,-1,1
1501935666238670,1,2,15,-4,-4,5,0,1
1501935666238670,-2,-6,-32,-31,-9,-2,0,-3
1501935666259727,-1,-3,1,24,4,-1,-1,0
1501935666259727,1,2,1,-27,-2,1,-1,0
1501935666261662,-3,-2,19,95,1,-5,-3,0
1501935666261662,0,-1,19,-60,-29,-5,-1,-1
1501935666273711,-2,0,-11,-87,7,-2,0,-1
1501935666273711,-1,-1,-2,-11,-2,1,2,2
1501935666282676,1,3,2,-38,2,1,-2,-2
1501935666282676,2,3,0,69,17,1,0,0
1501935666297741,1,1,-1,60,0,2,2,0
1501935666297741,-1,-2,-6,-4,12,2,-1,-4
1501935666298667,-2,-2,-14,-34,-9,-3,0,1
1501935666298667,0,0,4,42,21,-1,-3,-4
1501935666319728,-2,-4,16,25,1,-6,-2,-2
1501935666319728,2,0,-24,-16,-1,4,1,0
1501935666321675,-4,-6,4,35,-14,-5,-1,0
1501935666321675,-1,0,-9,62,10,2,0,0
1501935666333707,-1,3,11,-46,-4,1,-2,-1
1501935666333707,0,-3,2,18,4,-3,-2,-1
1501935666342678,0,2,-1,-23,1,-2,0,-2
1501935666342678,0,0,4,54,26,8,2,-1
1501935666357743,-6,-8,-15,-90,-47,-14,-4,-3
1501935666357743,-2,-4,-21,22,-7,1,-1,-1
1501935666358668,1,2,0,-5,3,3,0,2
1501935666358668,0,-1,2,33,-8,-6,-1,0
1501935666379711,-1,-1,18,89,16,2,0,-3
1501935666379711,-1,0,8,-45,8,0,-1,1
1501935666381668,-4,-4,-4,-12,-5,-7,-3,-9
1501935666381668,-1,0,-2,7,3,1,0,0
1501935666393713,0,-1,-9,-51,9,3,0,-2
1501935666393713,1,1,8,9,-14,1,-1,0
1501935666402670,0,1,12,37,4,2,-1,2
1501935666402670,0,2,-16,-109,-8,0,0,0
1501935666417749,-2,1,11,66,6,-1,-3,0
1501935666417749,-3,-2,-15,5,-6,-4,-2,-1
1501935666418672,0,-1,-20,-100,-26,-4,-1,0
1501935666418672,-1,-1,-1,-9,-5,0,-1,-2
1501935666439714,3,0,2,89,24,3,-1,-1
1501935666439714,-1,-1,3,22,-18,-3,0,0
1501935666441671,1,2,12,39,0,-3,0,1
1501935666441671,-4,-7,-18,-23,-19,-7,-3,0
1501935666453716,1,6,15,-10,6,5,0,2
1501935666453716,-4,-12,-25,-1,4,-4,-3,-4
1501935666462686,2,-1,-13,-22,-1,0,-2,-1
1501935666462686,-5,-3,15,94,5,-2,-1,1
1501935666477750,0,0,8,-1,-2,1,-1,0
1501935666477750,0,0,-7,2,4,-1,-1,-2
1501935666478676,-2,-4,2,32,-2,-2,-3,-1
1501935666478676,0,-3,-20,-6,18,4,0,-1
1501935666499724,-5,-6,-13,-88,-35,-10,-2,-3
1501935666499724,1,4,23,22,12,1,-1,-2
1501935666501676,-4,-6,-30,-37,-12,-2,-2,-2
1501935666501676,0,-1,22,21,2,-4,-3,-3
1501935666513720,0,-1,-5,23,3,3,-2,1
1501935666513720,-3,-1,21,-26,5,0,-2,-8
1501935666522679,-3,-4,-25,-90,-29,-7,-3,1
1501935666522679,-1,1,-1,18,2,-3,-3,-2
1501935666537726,1,0,-5,-10,-6,0,1,1
1501935666537726,1,0,1,7,4,-1,0,0
1501935666538679,0,3,13,7,9,3,0,-1
1501935666538679,-1,-4,2,0,2,-6,-2,-1
1501935666559736,-2,-3,-20,-57,-10,-2,-2,0
1501935666559736,-3,-2,-14,17,6,2,0,0
1501935666561678,1,-2,2,-20,8,2,0,-1
1501935666561678,0,0,-1,-34,-2,1,-1,-1
1501935666573742,2,3,12,12,8,-1,-1,-1
1501935666573742,1,-2,-7,74,0,-1,-1,0
1501935666582692,-3,-3,0,93,10,2,-2,-1
1501935666582692,0,0,-11,-20,-8,1,1,-1
1501935666597680,-4,-6,-7,-44,-18,-9,-3,-1
1501935666597680,0,0,8,8,6,0,-1,-1
1501935666598689,-1,-2,-7,-54,10,2,0,-3
1501935666598689,2,3,23,42,5,-3,0,-1
1501935666619723,-3,-3,-3,42,6,3,-1,-5
1501935666619723,0,-1,-11,-38,-10,0,0,1
1501935666621684,-2,-5,0,25,12,-7,-3,-2
1501935666621684,2,5,14,-40,-4,4,2,3
1501935666641723,3,-1,-14,-15,-4,-1,1,1
1501935666641723,-2,1,25,37,3,-2,-3,1
1501935666642683,-1,3,16,80,20,4,0,-1
1501935666642683,-3,-5,-19,-63,-30,-8,-1,-1
1501935666656722,0,1,8,44,12,2,-1,-1
1501935666656722,0,-1,-2,0,-1,-4,0,0
1501935666657683,1,3,6,-29,-7,6,2,2
1501935666657683,-5,-6,-1,66,6,-2,-4,-2
1501935666679700,-1,2,-2,-109,-13,3,1,1
1501935666679700,-2,-3,-14,-12,1,-1,-1,-1
1501935666679700,0,0,-14,-85,-11,-6,2,1
1501935666679700,1,3,9,4,-13,1,0,2
1501935666701728,-3,-2,-1,66,14,1,0,-3
1501935666701728,-1,-1,-1,-51,-5,-3,-1,1
1501935666702686,1,2,-6,-11,-2,1,0,3
1501935666702686,-2,-4,4,6,9,-1,-3,-5
1501935666716736,-4,-6,-9,51,-13,-5,-4,-4
1501935666716736,3,7,22,12,10,2,1,3
1501935666717687,-1,-3,-13,39,-5,1,-3,-1
1501935666717687,-2,-3,-22,8,9,-2,-2,-1
1501935666738729,-1,-1,11,5,-9,-3,-1,0
1501935666738729,-3,-6,-10,7,2,-1,-3,-1
1501935666739721,-2,-1,-5,-74,-10,-5,-1,-2
1501935666739721,-2,0,11,37,-1,1,0,-1
1501935666761751,1,1,-7,12,5,0,4,1
1501935666761751,-1,-1,-12,-40,-8,0,-2,-2
1501935666762707,0,1,16,63,7,-2,-1,0
1501935666762707,-2,-3,-4,20,2,-4,-1,0
1501935666776731,-1,2,7,-54,-1,0,-1,1
1501935666776731,-1,-2,-1,-5,-4,-2,-1,-3
1501935666777692,0,3,28,69,-3,0,1,0
1501935666777692,-2,-6,-26,-80,-5,1,-2,-2
1501935666799713,-2,-3,1,12,13,0,-1,0
1501935666799713,0,1,-4,8,-4,0,-1,-2
1501935666799713,-2,-2,8,-3,2,0,-1,-4
1501935666799713,-1,0,-2,57,10,-2,-2,-4
1501935666821737,-1,-5,-15,57,-12,-6,-2,-3
1501935666821737,1,6,15,-40,-24,-3,1,2
1501935666822695,-1,-1,17,-67,-11,-2,-1,-2
1501935666822695,0,-4,-15,1,-3,1,-1,-1
1501935666836742,0,1,9,-19,6,2,-1,2
1501935666836742,0,-4,0,33,6,-3,-2,-5
1501935666837694,-1,0,-8,17,-1,-1,0,-2
1501935666837694,-1,1,22,52,4,-4,-1,0
1501935666858743,-1,-2,5,60,3,-1,-1,-1
1501935666858743,-1,-3,-5,-78,4,4,0,-1
1501935666859719,-1,-5,-27,-7,-21,-5,-2,-1
1501935666859719,0,0,4,-22,-3,-2,0,1
1501935666881755,3,4,12,-19,0,-1,0,0
1501935666881755,-2,-6,-18,93,18,0,0,-2
1501935666882700,-2,-3,2,26,-9,-1,1,-1
1501935666882700,-1,3,20,22,9,1,-1,-1
1501935666896770,-2,-1,-10,-90,-23,-3,-1,-2
1501935666896770,1,-1,0,42,-8,-1,-1,1
1501935666897710,-1,-2,-6,-94,-1,-3,-3,-2
1501935666897710,2,3,3,11,1,5,2,-2
1501935666918762,0,-3,-16,-12,14,-2,-2,-3
1501935666918762,-3,-1,5,-17,-5,-2,-1,-2
1501935666919731,1,2,9,82,21,1,-1,-1
1501935666919731,-3,-1,-8,-39,-7,2,-1,-2
1501935666941744,0,-1,-10,-51,-3,1,-1,-3
1501935666941744,-3,-1,4,27,1,-5,-3,0
1501935666942702,0,2,14,61,23,0,0,-1
1501935666942702,-1,-3,-17,-56,-2,-2,-1,-3
1501935666956743,0,-1,-7,58,-4,-1,2,1
1501935666956743,0,2,3,-26,2,-2,-1,0
1501935666957705,-1,0,13,51,5,2,-2,-1
1501935666957705,-1,-2,4,0,-2,0,-1,-1
1501935666978746,-3,-3,-20,-90,-20,-4,0,-2
1501935666978746,2,5,35,47,6,2,-1,3
1501935666979738,-6,-10,-36,12,-3,-6,-4,-6
1501935666979738,0,1,6,-13,-19,-3,0,1
1501935667001743,2,3,10,61,23,1,-2,-2
1501935667001743,0,-2,0,38,-12,-5,1,-1
1501935667002712,3,3,8,-39,-10,2,-1,0
1501935667002712,-1,-3,-8,24,-4,-4,-1,-1
1501935667015745,-3,-3,11,51,10,0,-1,-1
1501935667015745,-1,0,-11,-36,-3,-3,-1,-4
1501935667023744,-2,-1,-4,-24,0,2,2,0
1501935667023744,1,4,4,-91,-23,-3,0,0
1501935667038747,-2,2,4,68,-2,2,-1,-1
1501935667038747,-3,-5,-14,-33,-5,-2,-2,-1
1501935667039748,-1,-5,-22,27,-1,-2,-2,-1
1501935667039748,1,2,10,20,10,3,-1,1
1501935667061774,-1,-2,3,60,16,-1,0,-1
1501935667061774,-4,-4,1,-61,-12,-3,-5,-4
1501935667062713,1,3,11,28,3,-2,1,1
1501935667062713,-1,1,-12,25,4,0,1,0
1501935667075748,-3,-3,0,-32,1,0,-1,-3
1501935667075748,2,1,3,89,7,1,-1,0
1501935667083750,1,-2,-6,-56,-8,-1,-1,0
1501935667083750,-3,-2,-1,11,2,-1,-1,-1
1501935667098752,-1,1,8,4,-2,3,-2,-1
1501935667098752,-2,-2,-5,2,0,1,-1,0
1501935667099742,-4,-3,-8,-19,-5,-6,-3,-1
1501935667099742,-2,-3,11,-17,6,-2,-3,-1
1501935667121711,0,-2,-18,-25,-4,-1,-1,0
1501935667121711,-1,2,-1,-50,0,-1,-3,-1
1501935667122711,-1,1,-4,-19,-24,-1,-1,-2
1501935667122711,-1,-3,-2,44,19,1,-1,-3
1501935667135724,1,1,3,-7,-3,-1,2,1
1501935667135724,0,-6,-5,7,12,0,-1,-3
1501935667144712,0,2,13,-10,-3,-2,0,1
1501935667144712,-1,-3,-9,-14,-2,0,0,-2
1501935667159734,-2,-5,-7,13,-10,-8,-4,-2
1501935667159734,0,-2,0,-12,10,2,1,-2
1501935667159734,-2,-2,4,45,11,-1,-2,-2
1501935667159734,1,2,8,-43,-4,5,0,1
1501935667181776,-2,-3,-4,69,-7,-7,-2,-3
1501935667181776,-5,-3,-2,-64,-7,-2,-2,-1
1501935667182716,-2,-4,-22,-44,10,2,-1,-2
1501935667182716,-1,3,15,-29,-11,-4,-2,0
1501935667195754,0,-2,-2,-14,12,1,-1,-1
1501935667195754,-2,-2,-7,49,-5,0,0,-1
1501935667204735,0,1,6,2,-4,-2,-1,-2
1501935667204735,-1,-2,-9,-23,4,0,0,-2
1501935667219737,-2,-4,-13,-45,-11,-4,-3,0
1501935667219737,0,1,-5,-28,-8,-4,0,-1
1501935667219737,-2,1,12,10,8,2,1,2
1501935667219737,-1,-3,-24,-1,-1,-1,-1,-2
1501935667241761,1,2,-9,-25,-3,2,-1,2
1501935667241761,1,0,-10,-12,-5,3,1,-1
1501935667242746,-2,0,9,58,7,-5,0,0
1501935667242746,-1,-5,-19,-88,-9,-7,-4,-3
1501935667255769,-1,2,20,63,4,2,0,-2
1501935667255769,0,3,-1,0,-7,2,1,1
1501935667263764,-1,-1,5,16,14,5,0,-2
1501935667263764,-3,-6,-11,26,-1,-3,-3,-3
1501935667278757,0,1,20,-58,-3,-1,1,-1
1501935667278757,-1,-3,4,-3,-5,-6,-1,-2
1501935667279765,-1,2,7,-42,1,0,-3,-2
1501935667279765,0,-1,5,41,1,-1,-1,0
1501935667301768,-1,-1,-9,-37,-3,0,1,0
1501935667301768,0,-1,5,36,21,2,-3,-1
1501935667308720,-2,-4,-16,-64,-27,-6,-1,-2
1501935667308720,0,0,1,92,-2,-1,0,0
1501935667315765,-2,-3,-3,-89,-13,-2,-2,-4
1501935667315765,0,2,7,22,-3,-1,1,2
1501935667323770,-3,-3,-8,36,12,3,-3,-3
1501935667323770,0,-1,6,24,0,-1,1,1
1501935667338736,1,2,0,-13,10,5,1,1
1501935667338736,-3,-1,4,7,0,-11,-6,-5
1501935667339758,0,-1,-3,13,-4,-2,0,2
1501935667339758,-1,-5,-19,-34,-4,0,-3,-1
1501935667361765,0,1,17,104,33,3,0,-2
1501935667361765,0,0,-22,-81,-26,-2,0,-1
1501935667362724,-1,-2,9,12,-6,-7,-1,0
1501935667362724,0,5,11,-34,-2,3,0,1
1501935667375766,0,-2,-12,-6,1,-5,-2,-3
1501935667375766,0,0,8,23,5,3,0,0
1501935667384746,-1,-5,-24,-54,-10,-2,-2,-3
1501935667384746,-2,3,25,29,10,-1,0,-2
1501935667398729,-4,-7,-26,-9,-2,1,-5,-4
1501935667398729,-2,0,-6,-31,-17,-3,2,2
1501935667399767,1,2,-7,-12,0,2,-1,-2
1501935667399767,-1,-4,4,29,-2,-2,-1,-2
1501935667421775,-2,0,-1,-48,1,0,-2,-1
1501935667421775,-2,-3,13,-8,4,-2,-2,-1
1501935667422730,0,1,0,14,-1,-1,0,-3
1501935667422730,-2,-3,-9,4,-13,-2,0,0
1501935667435771,2,2,22,85,11,-1,1,0
1501935667435771,0,-4,-16,-60,3,6,2,-1
1501935667444752,0,1,9,34,-1,-1,2,-2
1501935667444752,1,2,7,-35,5,-1,-1,-1
1501935667458768,-1,-3,-28,-8,-13,0,0,-1
1501935667458768,-4,-4,12,1,7,-2,-3,-4
1501935667459742,-2,-3,-14,61,0,0,-1,0
1501935667459742,-2,-1,6,37,-8,-5,-2,-2
1501935667481731,-2,-4,-2,-64,-17,-3,-2,-1
1501935667481731,0,1,-4,67,2,-2,1,-1
1501935667482732,1,0,-10,0,5,7,2,0
1501935667482732,-3,-1,9,-2,-12,-4,-1,-1
1501935667495732,2,-2,-10,1,1,-3,0,1
1501935667495732,1,0,-1,18,-5,-1,-3,-1
1501935667504762,1,1,8,-13,-1,-1,0,-1
1501935667504762,-2,-1,-8,0,10,6,1,-2
1501935667518779,1,2,32,52,-2,-5,-1,-1
1501935667518779,-1,1,-25,-17,-3,3,1,2
1501935667519752,0,-4,-1,14,0,-4,-2,0
1501935667519752,3,6,7,-63,12,2,0,1
1501935667541780,0,-2,-8,-18,-10,-4,-3,-1
1501935667541780,-3,-5,-2,-43,2,0,-1,-2
1501935667542744,-1,-2,6,31,-1,-1,-1,0
1501935667542744,-1,-2,-1,-48,5,2,-2,-4
1501935667555779,1,5,21,41,-1,0,0,0
1501935667555779,-1,-4,-14,36,-7,-4,-2,-2
1501935667564764,-1,-4,-13,-47,8,-1,-3,-1
1501935667564764,-2,-1,-8,-21,-9,-2,-1,-2
1501935667579741,-4,-5,-19,-43,-5,0,0,-4
1501935667579741,2,3,11,25,16,0,-1,-2
1501935667579741,-2,-1,7,-79,-33,-1,-1,-2
1501935667579741,-2,-1,-3,44,6,-4,-2,-2
1501935667601775,-3,-2,-4,-33,-6,-3,-2,-1
1501935667601775,3,3,8,26,6,3,3,0
1501935667602739,-2,-4,-6,41,7,0,-3,-1
1501935667602739,0,-1,-8,-55,-14,-1,0,-1
1501935667624778,1,1,-1,-5,-3,1,0,0
1501935667624778,-1,0,16,12,2,-3,-2,-2
1501935667625740,-3,-5,-14,-1,1,-2,-1,-2
1501935667625740,-1,-2,-2,25,-6,-1,-1,0
1501935667638782,1,-1,-5,-39,-8,0,-2,-2
1501935667638782,0,-1,-8,-4,-8,-3,0,-1
1501935667639741,-1,1,20,59,2,1,0,1
1501935667639741,0,-1,0,-46,-6,-5,-2,-1
1501935667661760,2,1,16,35,5,2,-1,-1
1501935667661760,-1,1,-6,-73,-9,-4,-2,-1
1501935667662741,-3,-5,-12,-9,-5,-3,-4,-5
1501935667662741,1,1,-3,-40,0,3,0,-1
1501935667684807,-5,-7,7,64,-10,-9,-4,0
1501935667684807,-1,1,2,-4,3,2,1,0
1501935667685755,0,1,6,10,3,-3,-2,-2
1501935667685755,0,0,-2,46,10,2,0,-3
1501935667698792,-1,0,-1,-67,-8,-1,-3,1
1501935667698792,-1,-1,1,30,-3,-2,-2,-3
1501935667699765,0,0,2,20,4,1,0,0
1501935667699765,4,0,-5,15,2,7,2,1
1501935667721759,-6,-3,19,98,18,-8,-5,-3
1501935667721759,-1,-6,-16,-41,-10,-5,-2,-3
1501935667722746,2,9,23,-55,-3,3,2,2
1501935667722746,-4,-9,-6,74,-14,-7,-4,-3
1501935667744804,0,3,8,50,7,7,2,0
1501935667744804,-4,-4,-4,-24,-15,-1,-2,0
1501935667745746,0,-1,-14,-78,5,0,0,0
1501935667745746,-4,-5,1,66,-5,-8,-3,-1
1501935667758790,-1,1,-10,-38,-1,1,0,1
1501935667758790,0,1,16,16,7,3,-3,-2
1501935667759779,0,0,-2,1,-7,0,-2,0
1501935667759779,1,0,2,-9,7,0,0,0
1501935667781767,-3,-3,-17,-66,-6,-3,-1,-4
1501935667781767,-1,-2,-31,-33,9,2,1,-2
1501935667782753,-4,-2,-4,52,-5,-5,-1,-1
1501935667782753,-2,-3,0,43,5,-2,0,0
1501935667804811,2,1,-2,-14,-20,-4,-1,1
1501935667804811,0,1,0,16,4,5,-1,1
1501935667805754,1,1,8,7,13,0,-1,-3
1501935667805754,-2,-3,-15,56,-11,-6,-2,1
1501935667818797,-1,-2,0,28,3,1,0,-4
1501935667818797,-2,-1,1,55,-1,-4,-2,0
1501935667819792,0,0,1,-6,2,-3,-2,-2
1501935667819792,-1,1,-2,-90,2,6,3,1
1501935667841795,-2,-5,-15,-19,-3,0,1,-4
1501935667841795,-1,1,9,44,7,3,0,0
1501935667842752,3,0,-5,-91,-2,2,1,0
1501935667842752,0,-2,5,-4,7,-4,-3,-2
1501935667865770,0,-2,-4,19,-7,-2,-4,0
1501935667865770,-3,-5,4,-1,-11,-8,-3,-3
1501935667865770,-2,-2,-4,86,2,-3,-2,-3
1501935667865770,-2,-1,-5,-36,2,1,0,-2
1501935667878795,0,1,-5,-15,8,4,1,1
1501935667878795,1,1,18,56,14,5,1,-3
1501935667879794,-3,-2,2,32,-10,-5,-2,0
1501935667879794,-2,-1,-11,-44,-14,-6,-4,-2
1501935667901822,-1,-1,-5,3,1,-2,0,-1
1501935667901822,0,0,-2,-18,-1,-1,1,1
1501935667902755,-1,-2,1,-4,4,3,-2,-3
1501935667902755,-1,0,-5,-38,-14,-1,0,0
1501935667924816,1,4,7,-9,4,6,-1,1
1501935667924816,-1,-3,-5,-19,-4,-4,-2,0
1501935667925789,-1,-1,-4,3,-8,-2,1,1
1501935667925789,0,0,15,71,7,0,-1,1
1501935667938804,0,-2,-4,-13,-2,0,0,0
1501935667938804,-1,1,-3,-2,0,-2,0,-1
1501935667939763,-1,-1,-1,-29,3,-1,-3,-2
1501935667939763,-3,-2,11,102,13,-1,-2,-2
1501935667961823,0,-1,-6,-76,-25,-7,-2,-1
1501935667961823,-3,-2,-4,12,-2,0,1,-1
1501935667962759,1,2,4,-2,1,2,2,2
1501935667962759,-1,2,-3,-5,4,2,-3,-2
1501935667984832,1,-1,-2,-2,4,-5,-1,1
1501935667984832,-2,-1,-1,-19,-4,0,-4,-7
1501935667985773,0,0,-4,-5,3,4,4,1
1501935667985773,0,0,8,15,-17,-5,-2,0
1501935667998802,-2,-3,0,35,5,-2,1,-2
1501935667998802,1,-2,0,-21,-3,-1,-3,1
1501935667999797,-1,-1,0,19,-3,-5,-4,0
1501935667999797,1,-2,-9,-46,1,1,1,-3
1501935668021805,1,0,-1,1,0,-2,-2,7
1501935668021805,-2,-5,-2,8,-7,-6,-3,2
1501935668022763,8,0,1,-6,3,4,6,-20
1501935668022763,-29,-3,-3,-19,3,1,-12,17
1501935668043805,29,1,-2,-3,-4,0,17,-11
1501935668043805,20,6,-1,-7,1,-1,0,14
1501935668044769,-17,-2,-2,-11,-6,-5,6,-31
1501935668044769,11,-3,-7,-17,-2,-4,-20,-10
1501935668058806,-25,-2,1,14,3,0,-21,-27
1501935668058806,7,-6,-5,-5,-2,2,7,28
1501935668059804,-17,1,2,-6,-3,-3,0,-26
1501935668059804,-14,0,0,-7,0,-1,1,-13
1501935668082768,11,0,-2,-1,1,-2,-25,-3
1501935668082768,-4,1,-1,-3,0,0,32,14
1501935668083768,-10,-2,-2,-7,-3,-3,-6,5
1501935668083768,29,1,0,-9,1,3,14,0
1501935668103809,-42,-6,-4,0,1,-1,-30,-4
1501935668103809,-2,2,1,0,0,2,10,13
1501935668104765,14,1,-3,0,-4,-4,-1,40
1501935668104765,-5,3,0,-5,0,-3,-24,-12
1501935668118834,-5,-11,-4,-1,-4,-3,27,-3
1501935668118834,-14,0,1,5,1,1,-6,-19
1501935668119792,6,-1,-3,-5,-1,2,6,28
1501935668119792,39,3,-2,-6,-2,-3,-4,1
1501935668141809,-5,0,2,-2,2,3,5,4
1501935668141809,-13,-6,-2,-4,-2,-5,-19,-26
1501935668142769,10,-2,-1,-3,-4,1,0,4
1501935668142769,-22,-1,0,-2,1,0,9,2
1501935668163811,1,3,0,1,1,2,8,1
1501935668163811,4,-1,-1,-2,-1,-2,-5,-5
1501935668164809,-3,-3,-1,-3,-2,1,-7,-1
1501935668164809,0,-2,-1,-1,-1,-3,4,2
1501935668178819,11,0,2,3,2,2,-5,3
1501935668178819,-8,0,-2,-5,-3,-1,15,2
1501935668186829,-11,2,-1,-5,-1,-4,-10,-11
1501935668186829,-11,-4,-2,-2,0,3,10,-6
1501935668201817,8,3,-2,-3,-2,-1,2,4
1501935668201817,8,1,-2,-2,0,-1,-19,-7
1501935668202774,4,-2,2,2,0,-4,0,-10
1501935668202774,-4,-3,-5,-9,-1,1,2,0
1501935668223815,2,2,1,5,-1,-1,-7,2
1501935668223815,1,-2,-1,0,-2,-5,-11,1
1501935668224774,-5,-1,-6,-6,-1,1,18,-3
1501935668224774,4,0,2,10,0,-1,-2,2
1501935668238816,3,-1,-2,-5,-3,-2,3,8
1501935668238816,-5,-1,-1,-1,-2,0,-3,-5
1501935668246841,2,0,-1,-2,-2,0,-5,3
1501935668246841,-3,0,-2,-7,0,0,-2,1
