timestamp,emg1,emg2,emg3,emg4,emg5,emg6,emg7,emg8
1501928884738342,-12,16,8,-32,-26,11,7,-3
1501928884738342,-25,-7,17,92,14,-12,-10,-8
1501928884739297,18,12,36,6,-11,2,-2,2
1501928884739297,3,3,-8,40,21,9,5,5
1501928884740309,10,3,-1,21,6,10,2,6
1501928884740309,6,7,-8,-75,-64,-17,-7,0
1501928884740309,-2,11,12,112,52,13,8,5
1501928884740309,-2,-12,-64,-103,-56,-14,-7,-2
1501928884761313,5,-8,-46,-26,1,-8,-4,-1
1501928884761313,-4,4,33,-64,22,13,8,0
1501928884763336,-10,-12,-61,-78,-23,-9,-5,-3
1501928884763336,28,6,-31,-128,0,1,-2,0
1501928884766313,3,10,51,63,27,3,2,2
1501928884766313,2,1,-29,-70,11,11,6,5
1501928884775348,-17,-15,36,-52,-23,-23,-20,-11
1501928884775348,-10,9,60,-23,-13,1,7,-8
1501928884778304,-4,-8,-25,-38,5,-6,-8,-5
1501928884778304,3,-6,31,52,14,-2,0,-2
1501928884799339,-19,-45,-117,-38,-61,-33,-23,-14
1501928884799339,3,13,50,65,12,13,11,12
1501928884802304,-1,-22,-24,-123,-23,-29,-23,-23
1501928884802304,-8,-2,-18,36,-23,1,1,-2
1501928884828339,19,29,45,68,66,40,24,14
1501928884828339,-23,-26,-33,47,5,-22,-20,-14
1501928884831305,-4,-14,-10,-65,-71,-12,-2,-4
1501928884831305,14,16,5,90,26,10,6,7
1501928884842365,4,-5,-94,-98,-29,1,6,3
1501928884842365,-12,-18,-15,106,-18,-28,-27,-12
1501928884844339,-2,5,16,126,18,8,10,4
1501928884844339,9,2,31,29,-2,0,-3,-4
1501928884887324,-20,-30,-49,104,-24,-23,-15,-11
1501928884887324,3,6,13,-59,-17,7,6,2
1501928884888339,9,-11,-67,-48,-42,-17,-13,-4
1501928884888339,4,9,24,-61,0,10,7,4
1501928884888339,-6,-12,-35,-20,6,-7,-7,-5
1501928884888339,-10,0,-16,-58,-10,-3,3,1
1501928884893306,17,-1,-14,-68,20,14,5,3
1501928884893306,-19,-14,-32,-73,-28,-13,-9,-10
1501928884901305,7,4,-17,-31,-2,-1,-1,0
1501928884901305,1,4,-2,-24,28,14,3,5
1501928884918340,-7,-15,-39,-75,3,-12,-8,-7
1501928884918340,1,-8,-7,127,13,-6,-2,-6
1501928884919310,1,7,2,-17,2,6,6,2
1501928884919310,18,10,38,25,59,14,6,4
1501928884923383,-26,-6,58,-50,28,-13,-10,-14
1501928884923383,5,0,-7,68,22,7,4,4
1501928884930347,0,2,6,5,-22,-5,-1,0
1501928884930347,11,6,-1,88,20,8,5,8
1501928884962331,4,8,11,-55,-59,3,3,0
1501928884962331,-37,3,36,-31,6,-12,-7,-5
1501928884963310,35,18,29,-104,12,12,11,12
1501928884963310,0,-16,-22,-14,-10,-17,-12,-6
1501928884970321,9,20,76,93,23,7,6,5
1501928884970321,-7,-16,-31,21,-38,-14,-8,-6
1501928884971345,-6,7,19,-63,-15,9,4,1
1501928884971345,-5,-9,-3,99,-25,-13,-8,-5
1501928884992311,-12,-9,11,127,51,7,2,-2
1501928884992311,-14,-14,-22,41,-2,-20,-12,-8
1501928884992311,-1,6,20,17,-26,-5,-3,-1
1501928884992311,1,-4,8,-67,-9,-5,-5,-6
1501928885014374,-14,9,22,97,0,2,2,0
1501928885014374,10,2,-37,-15,36,13,5,3
1501928885015325,-5,-10,0,81,49,-2,-7,-3
1501928885015325,-17,-9,2,51,-26,-11,-6,-7
1501928885029381,14,-2,-49,-7,-30,-3,0,2
1501928885029381,9,18,19,-81,10,21,11,8
1501928885030315,3,-2,23,127,16,-8,-5,-4
1501928885030315,5,7,-39,-74,-38,3,4,2
1501928885051332,0,-3,-14,102,28,4,2,-1
1501928885051332,11,8,69,67,-26,-2,-1,3
1501928885058354,-15,-13,-49,-108,-4,-1,-4,0
1501928885058354,9,0,12,101,39,3,4,-4
1501928885074356,0,-2,-3,-128,-44,-10,-6,-2
1501928885074356,-5,-5,-20,95,15,0,1,2
1501928885075329,-5,13,55,2,16,18,6,-6
1501928885075329,5,-16,0,-95,-31,-26,-14,-8
1501928885089370,-13,7,-13,-73,-1,6,3,4
1501928885089370,16,11,-20,-1,23,13,7,4
1501928885096348,-9,-13,-11,-72,-9,-14,-9,-4
1501928885096348,4,7,-2,-21,-31,-2,-1,-1
1501928885127336,3,0,0,56,34,2,-1,0
1501928885127336,-4,-10,-50,-104,-59,-11,-6,-6
1501928885127336,-8,-8,-2,-54,-17,-1,0,1
1501928885127336,-10,2,4,107,27,2,-1,-2
1501928885134320,11,6,-12,-2,-22,8,7,7
1501928885134320,3,-7,-30,-47,-25,0,-1,0
1501928885135324,3,5,5,66,24,6,4,0
1501928885135324,-12,-7,1,-51,-8,-4,-3,-5
1501928885148360,0,5,-6,127,37,9,4,-2
1501928885148360,3,-2,-5,-105,7,-3,-4,0
1501928885163376,-1,-1,2,-42,9,-4,-4,4
1501928885163376,-7,-3,1,72,22,-1,-2,-2
1501928885172337,11,3,12,30,-8,3,-1,0
1501928885172337,-30,-14,-7,-76,-18,-19,-12,-13
1501928885172337,5,2,-21,-69,-22,3,-2,-7
1501928885172337,-16,2,0,10,3,2,7,9
1501928885194363,3,-15,0,34,7,-13,-8,-4
1501928885194363,24,9,14,73,12,16,10,12
1501928885195342,0,1,54,-29,5,-5,-3,0
1501928885195342,1,2,-12,-66,-3,7,-2,-3
1501928885208366,-7,-2,-3,-93,2,0,3,-6
1501928885208366,-15,-15,-1,115,13,-8,-7,-3
1501928885209338,0,1,-9,68,1,0,2,-2
1501928885209338,16,11,42,56,36,9,8,9
1501928885232347,-24,-21,-29,-76,-29,-18,-19,-14
1501928885232347,11,11,17,-36,14,4,4,3
1501928885232347,-4,5,-1,127,22,7,-7,-3
1501928885232347,12,-2,4,-36,-10,-1,15,5
1501928885254368,-4,-3,-15,16,-1,2,2,9
1501928885254368,9,7,18,34,1,0,-3,-2
1501928885255363,-3,-2,-12,37,-18,-1,5,6
1501928885255363,3,-1,6,-88,2,1,-10,0
1501928885268375,-2,-1,-14,-90,-16,0,4,-8
1501928885268375,1,5,51,66,21,8,0,-1
1501928885269336,11,5,-12,-64,8,1,1,5
1501928885269336,-16,-17,-9,119,-22,-18,-18,-13
1501928885292359,-19,-2,-10,-37,21,1,3,3
1501928885292359,13,0,49,38,29,-2,-2,1
1501928885292359,12,13,14,-45,22,12,7,5
1501928885292359,-8,-19,5,60,-39,-23,-15,-6
1501928885314345,-19,0,-16,13,-6,-1,-7,-7
1501928885314345,0,2,11,-94,-12,3,4,-6
1501928885315343,-14,-10,-39,-33,-11,-5,-2,-1
1501928885315343,18,12,-16,8,15,10,-4,2
1501928885328372,7,4,38,-3,7,-2,1,3
1501928885328372,-4,-9,-3,-69,-19,-8,0,5
1501928885329345,0,0,16,37,-5,-5,-3,-9
1501928885329345,-11,-2,-14,-55,-19,-1,-4,-5
1501928885353353,-1,-9,-5,61,32,-2,-4,2
1501928885353353,-5,-3,-18,30,-34,-9,-2,-3
1501928885353353,-2,-5,-2,-13,-24,-6,-2,-3
1501928885353353,3,3,-18,8,16,2,0,-5
1501928885374377,13,11,-44,-68,-25,5,4,8
1501928885374377,-3,-6,-18,-77,-27,-10,-5,-6
1501928885375370,-2,-1,26,82,7,-3,0,0
1501928885375370,-2,-3,-16,15,2,2,3,1
1501928885388364,-11,3,12,1,-5,2,2,-7
1501928885388364,0,-2,-28,-63,-3,-2,-6,-3
1501928885396360,6,4,-2,-15,21,9,6,3
1501928885396360,-14,0,29,47,39,1,5,3
1501928885426400,17,-1,47,23,-20,-6,-5,-4
1501928885426400,-3,2,-11,82,22,4,2,2
1501928885427372,-8,-7,-2,31,-4,-7,-8,-1
1501928885427372,-3,-1,-12,1,9,4,1,2
1501928885433403,4,-2,2,37,1,-2,-2,1
1501928885433403,-3,-9,-25,-24,-4,-6,-5,-3
1501928885449380,1,7,0,112,28,11,5,-3
1501928885449380,-8,-4,-9,-66,-40,-5,5,1
1501928885464340,10,-4,29,62,-11,-9,-12,-1
1501928885464340,5,10,-26,-72,2,15,15,10
1501928885465338,-8,-11,-8,-64,-18,-14,-12,-5
1501928885465338,10,1,0,-39,4,2,-2,-6
1501928885481342,3,5,-1,14,18,3,-3,-1
1501928885481342,1,2,24,8,-11,-1,4,2
1501928885481342,8,16,46,-85,18,23,11,10
1501928885481342,-3,-9,-23,-90,-39,-16,-12,-7
1501928885494339,10,8,35,-11,12,6,5,12
1501928885494339,-16,-12,-23,127,29,-7,-12,-22
1501928885495340,6,-5,-7,-93,-62,-13,-1,0
1501928885495340,-9,-1,15,-20,5,7,-2,-9
1501928885508345,-6,-8,-48,4,6,-2,0,0
1501928885508345,0,3,-3,-70,-9,-7,-9,-1
1501928885516374,-3,-4,-1,127,40,-2,0,-3
1501928885516374,0,3,-3,-86,-38,6,-3,3
1501928885531352,-11,-9,17,24,-15,-7,6,-7
1501928885531352,15,16,18,106,65,21,10,18
1501928885532343,-9,-8,-20,-69,-54,-20,-15,-18
1501928885532343,3,5,-13,39,6,4,1,7
1501928885553386,0,2,-18,41,13,4,5,-7
1501928885553386,4,0,6,36,-9,2,1,4
1501928885561415,0,2,29,70,42,5,3,6
1501928885561415,-1,0,0,110,20,0,0,-1
1501928885568365,0,8,8,53,17,2,-3,-2
1501928885568365,-3,-7,0,23,-52,-16,-4,-6
1501928885583419,-8,-10,-52,-51,-12,-6,-4,-1
1501928885583419,-2,-8,-5,-45,-13,-7,-5,-10
1501928885591417,4,1,32,15,14,0,0,2
1501928885591417,-20,-7,-1,-52,0,-2,-1,0
1501928885592349,8,4,-11,61,5,4,1,3
1501928885592349,4,7,34,11,2,5,8,14
1501928885614389,-8,-11,-68,-104,-20,-5,-7,-16
1501928885614389,1,-3,16,13,5,-2,-6,-2
1501928885615369,-4,-3,-20,-38,0,1,12,6
1501928885615369,-2,-3,4,-62,-6,6,4,-1
1501928885628359,10,4,9,-78,-13,0,5,8
1501928885628359,-1,-3,-5,68,14,1,-8,-5
1501928885636410,-1,-8,0,-78,-36,-12,-12,-7
1501928885636410,-1,10,-4,85,23,9,20,-2
1501928885651422,1,-4,26,45,-7,-3,-4,2
1501928885651422,-2,-15,-60,-1,-19,-13,-8,-6
1501928885658393,0,9,41,40,0,0,-2,12
1501928885658393,-7,-4,-2,-86,0,-6,-15,-13
1501928885674394,0,7,21,57,12,7,8,-4
1501928885674394,-2,-8,-24,-34,-9,-4,-4,-3
1501928885675389,9,-3,9,101,22,3,0,0
1501928885675389,-5,2,-8,20,-8,-4,-6,-16
1501928885688363,0,-3,-6,-4,-12,-1,4,6
1501928885688363,2,8,41,-34,3,3,4,0
1501928885696395,3,2,1,30,22,9,4,4
1501928885696395,-3,-8,-24,-25,-16,-8,-4,3
1501928885727423,-2,4,30,84,41,11,0,2
1501928885727423,6,4,28,-30,-24,-5,2,-1
1501928885728364,-9,-9,-5,54,-7,-8,-6,-10
1501928885728364,7,8,15,75,28,10,7,5
1501928885733396,-2,-6,6,9,-2,-7,-4,7
1501928885733396,6,10,-2,-19,23,11,6,1
1501928885742383,-20,-9,26,2,-40,-15,-18,-31
1501928885742383,3,1,1,-28,5,-2,13,24
1501928885756430,18,11,23,-128,6,9,8,15
1501928885756430,-9,-12,-10,-94,-10,-11,-2,-5
1501928885757389,9,7,-23,-70,5,7,-5,6
1501928885757389,-9,-4,16,49,-3,-14,-3,-16
1501928885771428,-9,-7,-24,-62,-36,-4,-8,-3
1501928885771428,6,9,34,38,24,4,9,6
1501928885772357,3,-2,-31,12,-20,-4,-1,-2
1501928885772357,-6,-13,-39,12,-16,-12,-10,-4
1501928885794400,-2,-4,-30,-75,-9,1,1,-1
1501928885794400,-3,3,15,0,11,2,-5,-8
1501928885795377,6,-2,-4,-91,-12,0,6,4
1501928885795377,-3,5,7,98,-7,4,-3,-10
1501928885816411,-1,-7,-32,-45,-23,-12,-7,-2
1501928885816411,0,-8,-21,-110,-16,-3,-2,-1
1501928885817396,-4,-1,17,16,25,1,4,0
1501928885817396,2,6,21,64,16,5,-1,12
1501928885839428,-6,-1,-27,70,5,-2,-6,-10
1501928885839428,-1,5,14,10,7,7,0,2
1501928885840370,-4,-6,-41,12,-6,-6,6,-2
1501928885840370,5,4,-2,-69,15,6,-4,1
1501928885862395,-4,-1,63,77,9,-2,0,-8
1501928885862395,-4,-6,-10,-29,-2,-3,-4,0
1501928885863371,6,11,24,85,8,7,2,6
1501928885863371,4,1,-35,-108,-3,-1,0,-1
1501928885884401,-5,-7,10,33,-13,-8,-3,-3
1501928885884401,-1,1,5,64,-1,3,0,0
1501928885890428,-2,-1,14,-16,2,-2,-3,-2
1501928885890428,0,2,7,-17,21,1,1,-1
1501928885898407,-6,-7,-5,51,-22,-11,-8,-4
1501928885898407,-3,-5,1,-60,-39,-2,-2,3
1501928885907392,0,1,-8,-20,12,3,1,-3
1501928885907392,-1,1,39,75,7,-6,-3,-3
1501928885913367,-3,-7,-16,48,19,7,-1,-3
1501928885913367,1,2,-18,119,4,-2,-1,-6
1501928885929376,-8,-7,-6,-104,-14,-8,1,0
1501928885929376,5,5,20,16,20,8,1,2
1501928885937385,-8,-13,-37,10,-30,-15,-1,-4
1501928885937385,-2,3,-1,-57,4,2,-2,6
1501928885938402,-4,0,12,-15,-1,-2,-3,-10
1501928885938402,13,-10,-38,21,-8,-5,-4,0
1501928885959435,-4,6,-12,-70,-1,6,1,0
1501928885959435,4,1,24,64,8,-6,-3,6
1501928885961371,-10,-6,-10,-55,-30,-9,-2,-3
1501928885961371,0,-12,-29,-3,-21,-11,-15,2
1501928885981427,4,6,4,30,46,11,13,-1
1501928885981427,0,2,-8,31,-35,-1,1,0
1501928885983369,3,4,15,62,34,6,6,-1
1501928885983369,-6,3,5,-103,-8,5,2,0
1501928885997441,2,2,4,86,20,-1,-5,1
1501928885997441,-7,-3,-11,-49,-16,-6,0,-6
1501928885999402,10,2,-8,42,2,5,-2,8
1501928885999402,-10,0,-14,0,-13,2,10,-1
1501928886026373,-11,-12,17,-54,-49,-20,-15,-9
1501928886026373,2,-3,-7,22,22,4,2,5
1501928886028374,-3,-4,-24,-23,-27,-5,-7,-3
1501928886028374,3,4,14,45,8,2,2,3
1501928886033374,6,12,5,-69,18,18,11,5
1501928886033374,-9,-10,-15,-18,-14,-15,-11,-3
1501928886049373,26,-2,18,21,6,-1,1,7
1501928886049373,-16,-7,-6,35,11,-1,-2,-15
1501928886056406,-9,0,-27,-66,-9,1,0,0
1501928886056406,15,7,29,107,43,11,8,-3
1501928886058376,-1,6,5,63,12,-1,-6,-7
1501928886058376,-1,-6,-7,-76,-49,-8,-3,-2
1501928886079435,-3,4,4,38,6,1,1,0
1501928886079435,19,-1,-22,-21,5,-3,-2,-1
1501928886081376,-31,-10,-22,47,1,-3,-2,-1
1501928886081376,-2,3,37,-63,8,-2,-2,-2
1501928886093444,-2,-6,-27,-22,-22,-8,-6,-2
1501928886093444,4,6,10,6,20,9,5,-3
1501928886102414,-4,-13,-34,-30,-13,-10,-7,-5
1501928886102414,6,-2,-20,-91,-34,-3,-3,0
1501928886116450,6,3,18,120,23,4,2,2
1501928886116450,-1,1,26,-62,-22,-6,-3,1
1501928886118391,-1,-1,-17,79,13,6,3,-5
1501928886118391,-4,-3,5,-14,5,-2,-2,-3
1501928886139444,9,6,17,92,39,4,1,-2
1501928886139444,-10,-6,-26,-34,-54,-7,-4,4
1501928886141414,-1,1,22,-33,-6,-1,1,3
1501928886141414,-1,2,-2,127,36,10,6,5
1501928886161392,4,-2,-14,-99,-38,-9,-9,-5
1501928886161392,-20,-6,-1,45,20,1,-11,-10
1501928886163380,-9,-1,5,14,-5,-4,0,11
1501928886163380,12,3,4,-46,-4,6,5,7
1501928886184396,1,-2,14,67,2,-2,2,1
1501928886184396,-10,-1,-5,58,-2,-5,-2,-7
1501928886186381,3,-7,-22,-35,-8,-6,-7,-2
1501928886186381,3,0,4,-25,6,4,-5,6
1501928886199426,-14,4,5,-42,-12,-7,-1,-20
1501928886199426,-6,4,9,28,23,10,5,-2
1501928886201389,-2,1,22,-93,-43,1,0,-2
1501928886201389,-6,-3,6,38,4,-6,-2,-5
1501928886213396,5,-12,-23,15,-3,-5,-1,2
1501928886213396,0,4,-5,-5,-9,-3,-4,-3
1501928886222382,3,8,20,-39,19,9,4,-2
1501928886222382,-5,-7,-15,48,6,-5,-4,-1
1501928886236428,15,-2,-14,-94,-14,-1,-3,3
1501928886236428,-4,0,25,7,20,3,4,-1
1501928886238384,0,-4,-28,69,2,-1,1,3
1501928886238384,3,-2,-1,-19,-20,-4,-3,-3
1501928886259426,-1,1,-11,-48,17,6,8,3
1501928886259426,3,-2,14,85,9,1,-1,0
1501928886261387,-6,1,3,-39,4,-1,-1,-10
1501928886261387,8,-2,-16,-9,-10,-3,0,17
1501928886273386,-2,-1,0,10,10,0,-5,-10
1501928886273386,1,-1,-16,-90,-24,-1,3,2
1501928886282387,2,-4,20,-14,-5,-2,-1,-5
1501928886282387,1,2,-6,71,13,1,1,-6
1501928886304387,-11,-2,10,42,-1,5,-4,-1
1501928886304387,5,-4,-22,-21,-9,-7,0,-3
1501928886306389,-6,-2,4,-22,-7,-12,-7,-5
1501928886306389,0,0,17,17,0,0,3,-6
1501928886326458,2,1,14,44,4,-3,-4,6
1501928886326458,-2,-1,1,-18,5,1,-2,-4
1501928886328389,2,6,7,29,15,3,2,2
1501928886328389,-6,-5,-19,78,28,6,3,-2
1501928886341452,-4,-2,-13,-97,-25,-7,-4,0
1501928886341452,7,0,-2,-3,5,1,3,10
1501928886343389,3,1,-22,8,6,-1,0,-2
1501928886343389,9,-3,7,47,2,0,-3,16
1501928886356461,-10,3,20,-13,0,1,0,-7
1501928886356461,1,-14,-38,64,-15,-11,-7,-7
1501928886358390,3,0,-17,-14,2,3,2,2
1501928886358390,-5,3,15,-27,7,2,3,-3
1501928886379424,7,-5,4,63,-1,-3,-6,-1
1501928886379424,-6,2,-1,28,-5,-1,-3,-4
1501928886381393,8,12,27,-69,-9,15,8,8
1501928886381393,-14,-15,-22,64,3,-16,-16,-17
1501928886401464,0,-1,10,44,-5,-1,4,3
1501928886401464,-1,6,1,-75,1,4,2,-5
1501928886403405,-4,-5,0,35,-2,-1,-2,-1
1501928886403405,0,1,-9,-48,-5,-1,1,-2
1501928886416461,-6,-4,-30,-41,-2,2,3,-4
1501928886416461,0,-2,19,69,13,-6,-6,3
1501928886418396,4,-4,-23,-30,2,-4,-6,-1
1501928886418396,-13,-2,-24,-128,-28,0,1,-2
1501928886439436,3,-2,13,76,11,0,-2,3
1501928886439436,-3,1,-3,-32,1,3,2,-1
1501928886441435,1,0,4,49,-7,-4,1,-12
1501928886441435,-2,-3,-6,-42,-10,-7,-2,-5
1501928886469466,5,1,10,-61,-6,-3,-1,2
1501928886469466,-5,-2,-15,10,7,4,0,-5
1501928886470399,-8,-6,-15,-15,2,-5,-6,-4
1501928886470399,6,4,3,82,15,6,2,-5
1501928886484440,-2,-1,16,61,6,3,5,11
1501928886484440,-6,-3,23,-11,-35,-13,-6,8
1501928886490437,2,0,-10,-19,5,4,5,-1
1501928886490437,-2,-3,-8,100,-6,-3,-1,-2
1501928886506423,-1,0,-2,-44,-3,-7,-8,-1
1501928886506423,-1,-3,-6,-4,22,9,2,-3
1501928886514416,-3,0,-8,13,-5,-5,-1,1
1501928886514416,0,3,7,-32,2,1,3,1
1501928886528440,-1,-2,-14,20,14,-2,0,-3
1501928886528440,6,6,28,86,41,7,1,1
1501928886538411,-2,-9,-4,49,-38,-14,-8,-2
1501928886538411,3,2,-20,-27,-5,4,1,2
1501928886539403,-3,-10,-14,66,-5,-4,1,5
1501928886539403,-4,5,6,-26,3,4,-1,-13
1501928886560424,-1,0,43,36,27,3,0,3
1501928886560424,3,2,2,-61,-6,-6,-3,-4
1501928886560424,-2,-2,-28,-100,-22,1,-2,-1
1501928886560424,-2,-1,-14,-30,2,1,8,1
1501928886562437,17,2,10,9,2,0,-7,10
1501928886562437,-11,2,36,60,-5,-3,1,-11
1501928886582443,6,-7,-39,-39,-12,2,-3,-1
1501928886582443,-5,-8,-1,-11,-29,-13,-5,-5
1501928886584405,-5,2,-3,15,-10,3,1,-5
1501928886584405,-4,-1,17,86,7,-1,-3,-3
1501928886604420,-9,-8,2,21,-2,-15,-7,-7
1501928886604420,5,2,11,-23,4,-1,-1,1
1501928886606406,-6,-2,-6,40,31,9,3,4
1501928886606406,2,-1,-19,-69,-48,-6,-4,0
1501928886626469,-6,0,27,98,2,-1,-1,-6
1501928886626469,0,-7,-31,28,-7,-3,-3,-3
1501928886628443,-6,-3,4,-55,-2,-8,-4,-3
1501928886628443,-3,-3,-5,-9,5,0,-1,1
1501928886649440,5,5,23,17,14,4,1,0
1501928886649440,0,-2,-37,10,-12,-1,-1,4
1501928886650409,-7,-8,-19,-7,-14,-8,-7,-4
1501928886650409,-6,0,15,21,5,-1,3,-10
1501928886656482,11,7,13,-93,-15,-1,-2,2
1501928886656482,-5,-9,-26,66,3,-1,0,-1
1501928886663420,4,2,7,57,0,3,1,11
1501928886663420,-8,8,20,4,15,4,-2,-1
1501928886679451,5,-1,5,-26,-10,2,4,0
1501928886679451,5,9,68,25,28,1,-1,3
1501928886681409,-10,-17,-100,-31,-27,-6,-4,-4
1501928886681409,-2,-5,13,-38,0,1,-3,1
1501928886701477,-3,1,-12,14,23,2,2,0
1501928886701477,6,-1,15,-17,-26,-1,-4,-2
1501928886703409,-2,5,13,-41,5,-3,0,-11
1501928886703409,0,-2,-5,-17,6,2,-3,5
1501928886716475,14,0,-11,45,9,-1,1,9
1501928886716475,-9,-1,-35,-1,3,4,7,4
1501928886723431,-7,6,30,-19,21,4,1,-7
1501928886723431,5,-8,-26,10,22,-5,-2,2
1501928886739479,-15,-1,11,58,-18,-7,-7,-9
1501928886739479,3,4,-1,41,15,-1,2,7
1501928886741413,8,5,1,-17,-7,3,1,-5
1501928886741413,2,-1,0,-14,2,0,-1,1
1501928886761477,-11,-3,-10,-92,-7,0,5,-9
1501928886761477,3,-3,9,42,24,1,-3,0
1501928886763447,-4,-6,-21,31,-28,-6,-3,1
1501928886763447,2,-1,33,68,0,-3,-3,1
1501928886784455,2,1,1,-33,-10,-3,-4,-1
1501928886784455,-4,-4,-25,-24,-18,-3,-3,-3
1501928886790456,3,2,21,88,17,4,6,7
1501928886790456,-1,3,6,-72,-24,-14,-7,-8
1501928886807454,0,-1,-12,-60,9,14,-2,-2
1501928886807454,4,-4,23,43,-4,-8,1,-6
1501928886813427,-10,-1,22,17,11,-1,-3,-3
1501928886813427,-9,-7,-60,-61,-31,-2,-2,-4
1501928886829451,28,3,-1,-26,-3,-1,-2,15
1501928886829451,-17,-1,21,43,14,0,-2,-4
1501928886836468,-2,-3,10,61,-7,-5,-2,-13
1501928886836468,5,3,8,120,1,2,0,4
1501928886836468,-11,-5,8,3,-8,-3,-1,-18
1501928886836468,10,-3,-40,-50,-5,3,-3,9
1501928886861420,2,2,32,94,9,-2,4,3
1501928886861420,-4,-6,-23,-1,8,3,2,4
1501928886862431,-9,1,3,72,11,-3,0,-5
1501928886862431,2,2,32,-98,-23,1,-1,2
1501928886865459,0,-5,-36,4,7,-4,-10,-6
1501928886865459,1,1,17,-75,-30,-6,2,6
1501928886881468,-9,-4,-30,-91,4,-1,-1,-4
1501928886881468,-6,-3,-9,17,-11,-5,-4,-9
1501928886883458,9,5,-11,-49,11,3,2,5
1501928886883458,7,2,11,80,14,6,1,4
1501928886904489,-9,-4,2,-38,-17,-9,-5,-10
1501928886904489,-5,0,-21,-4,-8,2,0,-3
1501928886905422,4,-1,-3,-40,9,0,-2,0
1501928886905422,-1,0,23,23,4,-1,0,-2
1501928886926487,8,-4,-41,-9,-12,-1,-1,8
1501928886926487,-13,2,-3,82,26,-2,-1,-5
1501928886928461,-5,-7,-44,-33,-41,0,1,1
1501928886928461,4,-1,12,103,23,1,1,-1
1501928886949485,-5,0,14,81,-21,-4,-2,1
1501928886949485,15,4,5,32,1,0,-1,1
1501928886950452,3,2,25,1,11,6,2,8
1501928886950452,-11,-2,-35,-54,3,-5,-3,-1
1501928886955489,27,0,31,75,38,4,3,6
1501928886955489,-18,-2,6,-54,-23,-5,-3,-7
1501928886964469,-6,-2,-14,-42,-25,-11,-2,-1
1501928886964469,3,4,5,-18,5,11,1,-1
1501928886979466,-14,-3,-1,55,7,-2,-1,3
1501928886979466,5,-5,-21,-8,-11,-2,-2,-5
1501928886980441,14,6,24,23,13,5,2,4
1501928886980441,-4,-5,-1,52,-12,-8,-9,-4
1501928887001501,-3,2,-16,-6,6,5,4,2
1501928887001501,-9,1,8,-83,2,-2,-1,-3
1501928887003429,-3,0,25,61,-11,2,-1,-1
1501928887003429,2,-6,-35,43,5,-2,-1,1
1501928887015440,-10,-3,9,29,-9,-3,-4,-7
1501928887015440,4,2,24,82,17,2,1,3
1501928887024438,-2,-3,8,-9,3,-3,-4,1
1501928887024438,4,7,30,-18,0,4,3,1
1501928887039443,-9,1,-11,83,24,0,-2,-1
1501928887039443,-5,-8,-26,39,-15,-3,-1,-2
1501928887040432,-1,-7,2,-104,-29,-5,-7,0
1501928887040432,18,6,16,9,-3,2,6,5
1501928887060443,-40,0,3,34,-3,-4,-2,-7
1501928887060443,9,1,0,-106,-5,4,-3,0
1501928887069433,-8,5,-1,60,20,7,3,-2
1501928887069433,-4,-10,3,33,-38,-16,-7,-7
1501928887076470,12,3,-2,-34,2,10,4,7
1501928887076470,2,-2,-15,-59,-2,-8,-2,2
1501928887084435,-6,-2,1,73,-11,-1,-3,-9
1501928887084435,-10,1,-2,-128,7,1,-2,9
1501928887098434,7,5,22,-14,-4,-4,0,1
1501928887098434,-6,-9,-12,82,8,-4,-4,-4
1501928887106473,3,-5,-45,-96,-29,-5,-1,-1
1501928887106473,0,0,-9,-20,3,1,2,-2
1501928887121473,1,2,42,55,8,3,1,3
1501928887121473,1,-3,-29,-95,-33,-1,-1,0
1501928887123467,1,0,9,52,42,3,3,2
1501928887123467,-1,2,-5,-26,-6,-1,1,-1
1501928887144507,-3,-9,-28,20,-8,-7,-5,-6
1501928887144507,5,3,23,-11,5,8,4,0
1501928887145437,-2,2,9,20,12,1,2,1
1501928887145437,-6,-2,-17,1,9,-2,0,-6
1501928887159506,8,-2,13,38,1,-2,-4,-1
1501928887159506,0,1,12,-22,3,-4,0,0
1501928887161449,2,-1,0,15,5,-2,-1,1
1501928887161449,-3,-1,1,63,32,2,2,0
1501928887181499,11,-6,-37,-125,-34,-4,-4,-8
1501928887181499,-10,5,21,83,12,-1,-1,0
1501928887183438,-3,2,-25,-65,6,8,2,3
1501928887183438,3,-5,-15,-93,-15,-5,-5,-3
1501928887204483,3,1,4,33,11,1,2,2
1501928887204483,0,1,17,36,-5,-3,1,-4
1501928887205440,4,3,21,109,12,-2,1,5
1501928887205440,-8,-2,5,-80,-8,1,-4,-8
1501928887219507,3,-5,-23,52,-10,-7,-3,-1
1501928887219507,3,3,42,10,13,5,3,1
1501928887226517,-13,1,-7,-47,-7,-2,0,-2
1501928887226517,-1,2,2,76,6,0,-1,-5
1501928887249487,-3,-6,10,-8,4,1,0,-1
1501928887249487,-1,0,3,38,-16,-3,-5,-2
1501928887251444,-2,-14,-25,-39,-22,-11,-9,-7
1501928887251444,-12,-1,0,-13,-21,-2,-2,-1
1501928887265477,-4,3,-9,52,17,4,4,-1
1501928887265477,5,-1,-16,-57,-13,0,0,3
1501928887266475,-8,-3,-2,11,-30,-10,-2,-2
1501928887266475,10,-2,9,-1,-2,-1,-3,2
1501928887279516,-3,3,8,-10,-8,-2,-3,0
1501928887279516,-6,-7,-27,-3,3,-6,-2,0
1501928887280444,-1,0,6,78,1,0,-4,-3
1501928887280444,8,0,21,16,10,0,-1,1
1501928887301502,-4,-5,-28,-68,-9,-1,-3,-1
1501928887301502,2,0,-8,47,26,4,1,-7
1501928887303481,4,7,19,-38,-25,3,4,0
1501928887303481,-3,-9,-13,55,-28,-3,-2,-4
1501928887324512,-3,-2,-7,-41,2,-3,-2,-2
1501928887324512,-8,8,14,77,18,8,1,7
1501928887325477,9,-14,-2,-40,-19,-10,-6,-4
1501928887325477,4,1,-10,91,36,5,0,-2
1501928887339511,-12,10,36,-21,-23,1,3,2
1501928887339511,-2,-6,-8,8,16,0,-3,-2
1501928887341458,-16,0,-16,-1,6,2,0,-13
1501928887341458,25,-1,-29,-102,-30,-8,-2,19
1501928887361496,-8,-2,21,98,19,2,2,-1
1501928887361496,1,-4,-28,-115,-9,-5,-3,-2
1501928887369449,-1,2,7,6,11,7,1,3
1501928887369449,-8,1,24,67,0,-4,3,-5
1501928887384518,-1,-5,-24,-26,-2,2,-1,-4
1501928887384518,1,0,18,-85,-29,-4,-2,-2
1501928887386463,3,-1,5,56,35,-2,-2,3
1501928887386463,-1,3,3,48,-5,1,2,-2
1501928887398508,-1,-9,-31,-44,-26,-9,-9,-6
1501928887398508,0,-2,-5,44,15,-1,-1,-2
1501928887413472,5,5,42,51,9,1,1,2
1501928887413472,-5,5,10,36,18,4,1,-2
1501928887421521,1,-4,-20,-27,4,-12,-2,-2
1501928887421521,0,0,9,23,3,10,3,6
1501928887423466,0,-3,-17,-33,-3,-2,-3,1
1501928887423466,4,0,13,-59,2,3,0,-6
1501928887444454,5,4,8,62,26,5,1,2
1501928887444454,-3,-3,-12,-26,-19,-10,-2,-2
1501928887445456,-3,-10,-12,-128,-17,-7,-3,-4
1501928887445456,-5,-8,-8,86,11,-3,-4,-2
1501928887458499,3,3,25,8,-3,0,-2,-1
1501928887458499,1,2,6,85,10,3,3,1
1501928887465494,0,-1,-18,26,-22,-3,0,1
1501928887465494,-10,0,-13,-122,-17,0,-1,4
1501928887482494,-6,-1,15,72,14,1,2,-10
1501928887482494,0,-6,-19,-75,-27,-2,-2,-1
1501928887484456,-1,0,-6,20,-1,-5,-1,0
1501928887484456,-12,-6,-12,-82,-31,-10,-5,-10
1501928887504507,6,5,10,-24,-4,-4,0,5
1501928887504507,3,1,-7,-53,13,13,3,1
1501928887506468,4,-6,-7,14,3,-3,-2,-4
1501928887506468,-8,-3,-8,21,10,-2,-2,5
1501928887526498,8,4,13,15,15,11,5,2
1501928887526498,-1,3,47,9,-7,-12,-5,-2
1501928887528492,1,2,0,-27,-4,0,-1,-9
1501928887528492,-3,1,0,-20,2,3,2,0
1501928887542502,4,7,-14,19,21,10,5,5
1501928887542502,-6,-11,20,9,-36,-22,-13,-7
1501928887547505,0,5,11,-12,3,2,2,4
1501928887547505,2,1,-11,-11,-6,-2,0,-1
1501928887571524,2,7,37,8,20,5,4,-4
1501928887571524,-2,-9,-41,92,-11,-3,-2,-6
1501928887573461,-4,2,21,-70,-38,-9,-7,-1
1501928887573461,1,-11,-44,-79,-10,-3,-4,-2
1501928887578525,-6,1,7,-101,-24,-3,1,7
1501928887578525,8,2,-16,49,21,2,2,-1
1501928887585508,-4,2,17,86,28,4,1,-1
1501928887585508,2,1,11,73,14,4,2,-1
1501928887601506,-10,-8,-16,-45,-26,-7,-7,-7
1501928887601506,-4,3,18,65,39,7,3,2
1501928887603469,1,-2,-13,-35,-18,-3,-2,3
1501928887603469,-1,3,9,-39,3,0,-1,-3
1501928887624475,1,-5,-27,-45,-6,-1,-3,0
1501928887624475,1,0,8,-98,-4,-1,-1,1
1501928887625471,5,1,-13,-4,31,7,6,3
1501928887625471,-8,-2,-18,13,9,2,-1,-5
1501928887639476,2,3,18,74,-1,-2,-1,0
1501928887639476,-1,-11,-24,-69,-30,-8,-4,-1
1501928887645491,-6,4,35,44,11,1,0,-4
1501928887645491,-2,-8,-13,-31,-24,-7,-3,-3
1501928887662514,2,-1,-10,60,29,-1,-1,-1
1501928887662514,2,6,8,-17,-3,3,4,3
1501928887663465,-3,-6,-13,10,14,2,-1,-1
1501928887663465,3,7,41,35,13,5,2,2
1501928887684486,-3,-11,-2,53,-10,-8,-4,-1
1501928887684486,-2,-2,-5,29,-6,-1,-2,-3
1501928887690507,2,-2,-11,-24,-5,-1,-2,-2
1501928887690507,2,4,11,-7,17,4,1,-2
1501928887698469,-2,2,-12,-64,-11,1,1,0
1501928887698469,-2,-5,-16,-6,4,-4,1,5
1501928887712467,-3,-1,-7,-39,-2,-3,-4,-2
1501928887712467,-2,-5,-24,38,10,0,-2,-4
1501928887721502,-6,-9,-10,-73,-38,-10,-5,0
1501928887721502,4,3,0,108,43,3,1,1
1501928887723470,-1,0,-18,-79,-42,-1,2,-1
1501928887723470,-4,1,5,-31,-10,1,1,-2
1501928887744470,4,-5,-3,-67,-21,-3,-5,8
1501928887744470,3,4,7,-20,3,-2,0,-17
1501928887745474,1,-9,-43,-4,14,-3,-3,-2
1501928887745474,4,6,20,-27,-19,-5,0,1
1501928887757473,-2,-3,-2,1,1,-8,-1,0
1501928887757473,-6,-1,-10,-31,-7,9,1,2
1501928887767472,-1,-3,-11,48,9,0,0,2
1501928887767472,4,-3,13,46,-10,-6,-5,-4
1501928887781484,-10,-3,-17,76,10,-2,-2,3
1501928887781484,-2,0,10,-62,-21,-2,-2,0
1501928887783475,-1,0,4,94,30,1,3,1
1501928887783475,-4,-7,-1,21,-7,-4,-5,0
1501928887812518,3,-2,-4,-63,-10,1,-2,-4
1501928887812518,3,3,-13,-1,-15,2,3,4
1501928887813476,-7,-4,12,97,25,-4,-3,-7
1501928887813476,0,-3,6,-55,-4,0,-2,-1
1501928887827480,0,-1,16,109,10,-1,0,-2
1501928887827480,-2,3,12,-22,-1,2,0,-1
1501928887832509,2,2,-12,-45,6,-2,0,2
1501928887832509,-3,-4,8,72,17,3,-1,-2
1501928887842536,-2,4,9,-50,-3,4,2,-5
1501928887842536,1,-2,-24,110,21,2,0,6
1501928887847491,-2,-5,-14,-101,-44,-13,-5,-2
1501928887847491,-1,6,27,48,13,1,1,-2
1501928887871521,-1,-3,-10,-6,-9,-2,-1,-8
1501928887871521,-2,2,12,46,26,2,1,1
1501928887873515,-1,2,13,-67,-9,4,0,1
1501928887873515,-1,3,3,36,-1,-5,-3,1
1501928887877524,5,2,-4,81,20,10,6,2
1501928887877524,-9,-16,-9,41,-13,-20,-13,-10
1501928887903558,2,7,22,-3,5,9,3,0
1501928887903558,1,-5,-56,-90,-27,0,3,3
1501928887904482,-1,-1,18,38,16,-4,-3,-1
1501928887904482,0,1,-7,-65,-4,1,0,1
1501928887915548,-2,-1,5,-28,-6,-6,-4,5
1501928887915548,0,1,6,101,17,6,3,1
1501928887924522,-5,-4,-21,-27,-20,-8,-3,-3
1501928887924522,4,2,9,-38,5,2,1,0
1501928887938480,-4,-5,8,40,-18,-8,-6,-7
1501928887938480,-3,-3,-13,-40,6,0,-2,-3
1501928887939482,1,0,-13,-30,-12,0,0,1
1501928887939482,-2,4,24,54,5,1,-1,2
1501928887946549,0,0,-15,5,-11,2,1,-2
1501928887946549,0,-1,2,-60,-6,-1,0,0
1501928887962527,-5,-3,21,-97,9,-7,-5,-1
1501928887962527,-1,-3,-30,-59,-25,-7,-2,-3
1501928887968515,0,-4,-22,62,16,7,1,-1
1501928887968515,0,0,-6,-114,-38,-5,-1,-2
1501928887983528,3,2,-18,62,19,-5,-2,5
1501928887983528,-2,3,23,-26,-12,4,2,-5
1501928887991488,4,0,-15,81,16,5,6,2
1501928887991488,-16,-10,-21,-21,-31,-6,-7,0
1501928887997523,3,3,10,36,2,-1,1,0
1501928887997523,2,-4,-10,-31,-3,-6,-6,2
1501928888007494,-6,0,5,33,-1,-2,-3,-7
1501928888007494,5,7,33,64,30,2,3,2
1501928888021530,-4,-6,-35,-97,-22,-2,-3,-3
1501928888021530,-3,-3,-14,7,4,-1,1,0
1501928888023499,1,7,27,-64,-6,6,0,1
1501928888023499,0,-2,-9,79,21,-3,-3,-1
1501928888044559,-1,1,19,9,-10,2,-8,-1
1501928888044559,0,1,-4,28,30,-1,1,-4
1501928888045522,0,-2,-7,-12,-35,-5,11,14
1501928888045522,-3,-4,3,-19,13,-4,-1,-16
1501928888057536,0,0,-4,17,-2,1,-2,3
1501928888057536,-2,-5,-6,81,0,1,-12,-2
1501928888066511,-4,3,18,-54,-14,-2,5,1
1501928888066511,-1,-1,-3,2,23,0,3,-2
1501928888081564,3,2,-5,-17,-7,2,2,-2
1501928888081564,-3,-2,4,-66,7,-2,0,-3
1501928888083491,-3,-6,-19,-35,6,-2,-6,0
1501928888083491,3,0,-11,10,-9,-2,-3,4
1501928888104533,-1,0,-3,-30,4,2,1,-3
1501928888104533,-1,0,-7,84,4,0,-4,0
1501928888105493,-2,-1,-1,-60,-15,-4,1,-3
1501928888105493,4,2,-8,50,20,6,-5,7
1501928888117531,-5,-6,11,-73,-53,-11,9,-1
1501928888117531,1,-3,-14,31,-14,-1,4,0
1501928888126565,-2,-6,-7,79,24,3,-7,-5
1501928888126565,-1,-5,-2,75,-5,-4,-6,-9
1501928888149536,1,2,-11,-16,2,-1,0,2
1501928888149536,1,1,-1,-24,-6,0,0,2
1501928888151494,0,0,14,-14,7,-3,-2,-1
1501928888151494,-1,-2,-1,83,8,0,2,2
1501928888171541,4,-1,-14,-59,-28,0,0,1
1501928888171541,-1,-1,10,-15,-2,-2,1,-3
1501928888173532,0,3,16,0,20,-1,-6,-4
1501928888173532,0,1,34,-45,-5,-5,-1,-1
1501928888194540,-4,-5,-28,95,43,5,3,-5
1501928888194540,-3,-2,-19,-82,-11,-3,3,3
1501928888195498,2,5,30,13,2,1,-4,-12
1501928888195498,-1,-1,-3,54,16,5,3,3
1501928888201568,0,2,7,57,1,0,-10,-4
1501928888201568,2,3,14,25,3,3,12,7
1501928888215543,-2,-4,-4,114,29,-1,5,3
1501928888215543,-3,-4,-9,-3,-25,-8,-5,-6
1501928888224500,1,7,32,4,12,1,-3,-1
1501928888224500,-4,-8,-33,-8,-6,-3,-6,-4
1501928888225512,0,0,11,47,-7,0,-6,0
1501928888225512,-2,0,-12,-43,-9,2,7,1
1501928888246540,2,4,28,57,11,2,-1,3
1501928888246540,-4,-4,8,95,9,0,-1,-3
1501928888254536,0,-4,-10,-54,-5,-2,-1,-2
1501928888254536,-3,-3,7,37,-24,-9,-8,-2
1501928888261563,1,3,27,30,12,2,5,0
1501928888261563,-2,-3,-33,-70,-13,3,2,-1
1501928888263527,1,-1,-16,-73,4,1,-3,1
1501928888263527,1,0,8,5,-5,0,1,7
1501928888284546,-4,-7,-28,-74,1,-5,-3,-9
1501928888284546,0,-1,22,25,-41,-6,-6,-4
1501928888285503,-2,2,-1,-74,-18,1,3,2
1501928888285503,2,4,-2,-49,21,7,3,-1
1501928888306565,-2,-3,4,48,-2,-4,1,1
1501928888306565,0,2,20,-76,3,0,-3,-2
1501928888308540,-1,-5,-16,22,-3,-11,-3,-3
1501928888308540,0,6,11,9,18,15,6,3
1501928888321527,-3,-5,-28,-73,-59,-9,-9,-3
1501928888321527,1,2,13,-45,-10,-7,-5,0
1501928888335553,-1,0,13,89,26,2,2,-5
1501928888335553,-3,-4,-26,-119,-41,-3,-3,-5
1501928888344544,2,0,2,100,22,3,3,5
1501928888344544,-3,-1,-7,-102,-37,-2,-5,-6
1501928888345507,-4,-4,-12,54,-25,-10,-3,-4
1501928888345507,4,5,6,-1,15,1,1,3
1501928888366546,-1,1,23,36,17,3,4,-6
1501928888366546,-4,-5,-22,91,28,0,8,7
1501928888368518,2,1,15,62,-10,4,-4,3
1501928888368518,-7,-6,-4,79,21,-6,-4,3
1501928888381572,4,3,-4,-98,-19,0,1,3
1501928888381572,-11,-2,23,88,25,-1,-19,-23
1501928888387547,27,-1,4,-106,1,2,18,-10
1501928888387547,-5,-5,-10,63,11,-5,-2,12
1501928888404516,-4,-1,14,-55,4,-3,-10,-3
1501928888404516,-8,3,-10,-1,-9,2,9,-3
1501928888406521,-1,-3,-37,-100,-8,1,-7,3
1501928888406521,-3,1,17,-4,-8,-3,-1,-15
1501928888427553,-3,-3,2,75,26,1,-1,0
1501928888427553,6,-1,-13,-110,-26,-5,-1,9
1501928888428512,-6,0,11,-10,-3,5,-4,-2
1501928888428512,4,-1,-6,13,-2,-3,4,1
1501928888441551,-5,-1,-5,-44,2,1,-4,0
1501928888441551,4,-5,-21,4,-2,-6,-3,3
1501928888449512,-6,2,33,67,15,-2,4,-3
1501928888449512,-8,-7,-41,-58,-37,-4,-3,-3
1501928888463577,11,1,11,79,20,2,1,1
1501928888463577,-8,-1,-7,-61,5,-1,-1,-1
1501928888471591,-2,2,2,18,-7,-6,-7,1
1501928888471591,4,-2,-16,-106,2,7,6,2
1501928888495517,-2,-2,11,65,2,2,5,3
1501928888495517,5,0,-1,78,23,5,4,3
1501928888496547,-7,-4,-22,-43,-26,-4,-4,4
1501928888496547,0,6,55,102,0,-5,-10,-12
1501928888500548,-5,-6,-39,-49,-21,-2,8,3
1501928888500548,-1,2,23,95,16,0,-3,-5
1501928888524587,-1,-2,-9,32,13,5,4,11
1501928888524587,1,0,9,15,2,0,-2,-7
1501928888525559,-2,-1,-3,-55,-5,0,-2,-1
1501928888525559,4,-2,1,14,-1,-5,-4,3
1501928888527516,-7,-3,-13,-9,1,-5,-2,-5
1501928888527516,-1,-3,14,-36,-16,-1,2,4
1501928888546532,-3,1,-15,16,0,-1,1,-1
1501928888546532,-1,-2,21,18,-11,-5,0,0
1501928888548529,0,0,-6,0,31,3,1,0
1501928888548529,-1,-4,-8,45,6,-4,-2,2
1501928888561588,-2,0,4,-63,-13,-5,-13,-16
1501928888561588,3,5,16,-6,0,3,7,0
1501928888567526,-1,0,13,49,6,4,0,1
1501928888567526,0,-6,-23,16,7,-6,-5,-1
1501928888584562,-1,-2,1,-14,-3,-2,-2,-2
1501928888584562,-6,-3,-13,-27,10,5,0,-7
1501928888590593,-1,2,-2,-59,-6,-1,1,-3
1501928888590593,-2,-1,-9,-38,-12,-4,-3,-2
1501928888607523,1,-3,4,-25,0,-2,0,1
1501928888607523,1,-1,-2,42,11,1,-3,1
1501928888614555,-4,-7,-25,-1,-16,-6,-5,-3
1501928888614555,-2,0,3,-28,2,-1,0,-2
1501928888621549,0,-2,0,-12,6,-1,-1,5
1501928888621549,4,4,16,49,-3,1,-1,-1
1501928888627533,-1,0,13,-1,-10,3,3,2
1501928888627533,3,1,5,-16,-3,3,-1,-1
1501928888644589,-1,-3,-9,12,-1,-1,0,1
1501928888644589,0,-1,-16,-27,-1,-2,2,1
1501928888645524,2,7,-4,-82,1,3,0,0
1501928888645524,-7,-7,6,70,-3,-9,-7,-3
1501928888666575,-3,-6,-11,15,4,-4,0,0
1501928888666575,2,0,4,3,6,0,-2,0
1501928888668525,-3,-3,1,82,-10,-3,-2,-3
1501928888668525,3,5,-2,-55,1,6,5,2
1501928888680568,-3,-1,5,73,11,0,-3,-3
1501928888680568,-2,-8,1,-72,-15,-6,-4,-2
1501928888689558,-2,-2,-8,43,2,2,1,3
1501928888689558,-1,0,-8,20,-1,-1,1,-5
1501928888704588,0,0,13,44,-5,-4,-1,-2
1501928888704588,1,0,-3,-20,4,0,3,1
1501928888706559,-1,1,-1,-35,5,-1,-1,0
1501928888706559,-4,-5,8,30,19,-2,-3,-2
1501928888734571,-1,-3,-24,-78,-14,1,0,0
1501928888734571,1,2,14,-23,7,-1,0,-1
1501928888736528,-2,-4,0,-30,16,-4,-4,-4
1501928888736528,2,2,-14,-26,-3,1,2,3
1501928888749539,-1,-2,-18,34,1,-2,-3,-2
1501928888749539,-3,-2,-4,-40,-7,-1,0,1
1501928888751565,2,-2,2,51,-2,0,0,0
1501928888751565,1,6,6,-64,-18,5,3,3
1501928888763574,-3,-5,1,2,-8,-5,-3,-4
1501928888763574,0,1,0,-80,-18,-2,-2,-2
1501928888771576,-1,-2,-14,18,6,0,-3,-4
1501928888771576,2,2,-3,-73,-1,1,0,1
1501928888793594,0,1,15,-115,-27,-2,0,-1
1501928888793594,-3,-6,-26,89,-3,-6,-6,-3
1501928888802559,-1,-2,-10,-60,-13,-3,-2,-2
1501928888802559,0,1,19,81,19,3,0,0
1501928888803533,-5,-4,7,14,-17,-5,-4,-2
1501928888803533,-2,-1,6,-84,-3,2,1,1
1501928888809534,-1,-2,14,-35,-10,-6,-3,-3
1501928888809534,0,-1,6,123,36,2,0,-1
1501928888824566,-1,-4,-33,-65,-9,1,-1,-2
1501928888824566,-1,0,-1,17,-7,-1,-1,-2
1501928888825533,1,2,5,33,16,4,3,0
1501928888825533,0,2,18,84,22,-11,-3,0
1501928888846591,-1,-1,33,26,-49,2,0,-1
1501928888846591,2,-3,-75,-65,-12,-2,1,1
1501928888848565,-4,-9,1,-21,-19,-7,-6,-3
1501928888848565,-1,-1,1,7,-15,-2,-1,-2
1501928888860575,1,5,23,20,29,1,1,-1
1501928888860575,-1,-5,-36,10,-8,0,-2,-1
1501928888869558,0,1,7,23,-5,-4,-2,-2
1501928888869558,-1,-5,-9,-42,-21,-1,-2,-3
1501928888884580,1,3,0,-9,19,8,3,3
1501928888884580,-3,-3,28,79,3,-4,-3,-3
1501928888890572,1,4,15,11,5,-1,0,0
1501928888890572,-3,-7,-28,-112,-22,-6,-6,-4
1501928888906577,-5,-6,-32,76,11,-3,0,-1
1501928888906577,1,4,32,42,15,0,-1,1
1501928888912604,-2,-2,-7,56,-8,1,0,-1
1501928888912604,-2,-2,-9,-79,-12,1,0,0
1501928888920580,0,5,23,-6,16,-5,-3,-3
1501928888920580,-4,-8,-18,-57,-36,-5,-3,-5
1501928888936557,3,0,-3,65,5,2,2,0
1501928888936557,5,-1,-17,41,10,3,1,5
1501928888944610,-10,-1,-10,-85,-15,1,-2,-2
1501928888944610,-1,-4,-22,15,15,2,1,0
1501928888945551,-8,-6,-5,-21,-5,-5,-7,-7
1501928888945551,-5,-7,0,36,-11,-7,-2,-9
1501928888966582,0,3,6,-52,6,3,0,0
1501928888966582,6,1,14,-27,9,-1,-3,12
1501928888968552,2,1,14,-32,0,-1,1,8
1501928888968552,6,1,2,58,10,7,0,-2
1501928888980583,-36,-4,-6,-10,-13,-4,0,-1
1501928888980583,-8,4,25,30,7,3,5,-8
1501928888989577,-3,-1,-8,72,16,1,0,-4
1501928888989577,-9,-8,-2,-128,-56,-14,-9,-11
1501928889004584,16,3,24,75,23,-3,2,3
1501928889004584,1,-5,-43,-69,-9,-1,-4,-4
1501928889005550,-3,5,2,67,21,1,1,-3
1501928889005550,-7,-3,-21,20,15,5,2,0
1501928889027583,28,1,-11,-39,-11,1,0,17
1501928889027583,-8,-1,15,-63,-13,-4,-3,-9
1501928889029577,5,-3,-11,-15,-2,-1,-3,0
1501928889029577,5,4,-6,-3,8,11,6,5
1501928889049590,-8,-8,11,29,33,-11,-7,-13
1501928889049590,5,9,51,30,19,4,4,1
1501928889056574,-8,0,22,-92,-12,-2,-3,-2
1501928889056574,-1,-2,-6,45,8,1,1,1
1501928889065589,-2,-2,-21,25,0,-4,-3,-6
1501928889065589,0,2,12,75,1,2,-2,1
1501928889077590,2,-3,-5,-26,7,-1,-1,3
1501928889077590,-2,0,11,-29,5,-1,1,1
1501928889086591,3,-2,-5,38,8,0,1,-2
1501928889086591,-3,0,15,44,6,-2,-1,-3
1501928889088550,0,-1,-18,-17,-16,-4,-2,-1
1501928889088550,-1,0,11,-4,-2,-3,1,3
1501928889100585,3,-2,-40,13,-5,8,3,-2
1501928889100585,-2,-6,-32,-13,-9,-7,-4,-2
1501928889109551,-3,-2,11,-2,-6,1,1,-3
1501928889109551,2,0,-11,69,1,-6,-3,-1
1501928889124590,-4,-5,7,-47,-9,-8,-8,-2
1501928889124590,-5,-1,-3,25,-10,-1,2,0
1501928889125575,1,-2,-9,-3,-4,-1,-3,-1
1501928889125575,0,0,4,46,19,3,1,2
1501928889146612,0,-3,-8,24,-52,-6,-3,-3
1501928889146612,1,0,28,-56,6,-6,-5,0
1501928889148585,1,-2,-20,46,-7,0,0,-3
1501928889148585,0,1,-12,-84,-1,0,1,-5
1501928889169593,1,6,16,57,25,6,1,2
1501928889169593,2,-5,-12,75,-4,-2,-3,3
1501928889170553,-2,-1,7,12,5,-4,-1,1
1501928889170553,2,4,9,-56,-13,-1,-1,1
1501928889184591,-1,1,17,-16,-14,-4,-2,-3
1501928889184591,0,0,-23,72,15,7,4,1
1501928889190614,-1,-3,6,-50,-15,-5,-5,-5
1501928889190614,1,4,8,36,10,2,0,0
1501928889214600,-3,-8,-28,13,-7,-4,1,-3
1501928889214600,-2,9,28,-73,1,2,0,0
1501928889215557,1,-1,-2,-8,14,4,3,4
1501928889215557,-3,-2,12,-15,-6,-4,-4,-2
1501928889229626,1,1,-1,70,17,3,1,1
1501928889229626,-1,-3,-1,-104,-43,-6,-3,-4
1501928889231585,2,3,22,7,3,3,3,1
1501928889231585,-7,-11,-62,19,-17,-12,-7,-5
1501928889244617,-2,-3,6,88,23,-1,-1,-3
1501928889244617,2,2,4,-34,-9,0,-1,0
1501928889246590,-1,3,21,-61,-18,-2,-2,0
1501928889246590,1,2,-5,-50,25,9,4,2
1501928889266602,-4,-2,18,47,0,-2,-5,-9
1501928889266602,1,-2,-11,33,2,-1,-1,0
1501928889268562,-3,-1,3,-11,-6,0,-1,0
1501928889268562,4,9,49,56,20,7,5,5
1501928889289601,-3,-4,-22,-47,-10,0,0,2
1501928889289601,-1,-3,-13,60,9,-1,-1,-2
1501928889290569,0,-3,-9,-14,2,-2,-5,-2
1501928889290569,0,0,16,39,8,3,1,-1
1501928889312604,1,1,7,-36,5,0,0,2
1501928889312604,-1,0,15,59,5,2,2,-1
1501928889313568,1,0,-8,19,9,-1,-3,2
1501928889313568,-5,-7,-8,-20,-15,-8,-5,-3
1501928889334603,0,3,9,18,-3,1,3,1
1501928889334603,-2,-6,-15,39,12,-3,-1,-1
1501928889336573,-2,-5,-19,-39,-14,-4,-3,-4
1501928889336573,-2,-4,-16,-18,-19,-9,-6,-3
1501928889348635,-1,1,6,-1,6,-1,-1,2
1501928889348635,0,-1,0,-18,6,5,3,2
1501928889356582,1,1,-11,17,-2,2,2,0
1501928889356582,-4,-3,17,-16,5,-7,-3,-2
1501928889363577,2,3,-5,-5,-2,2,0,2
1501928889363577,-5,-2,-9,1,2,-3,-4,-3
1501928889377603,-3,-3,-5,11,-2,3,1,1
1501928889377603,0,1,-2,-19,-13,-5,-3,-2
1501928889386607,-3,-4,-13,-73,-10,3,2,-3
1501928889386607,0,2,15,-27,-4,-3,-5,-1
1501928889388566,-2,2,14,29,4,0,-1,-1
1501928889388566,0,-7,-52,20,1,-2,0,0
1501928889409641,1,2,0,12,10,2,-1,-4
1501928889409641,-3,-3,5,-95,-45,-10,-5,-1
1501928889410571,-1,-4,-14,28,3,0,0,0
1501928889410571,-1,1,12,-36,1,2,-1,-1
1501928889423616,-1,-3,-17,-2,-11,-6,0,-2
1501928889423616,0,-2,-6,12,9,3,2,3
1501928889430633,-1,1,2,-13,4,-4,-3,-3
1501928889430633,0,-2,11,-2,-10,-1,-2,-3
1501928889446640,1,0,3,-21,3,3,-1,1
1501928889446640,1,2,3,24,10,-3,0,0
1501928889448570,-2,-4,-9,-10,-2,-1,-1,-2
1501928889448570,0,-1,2,-1,-3,0,-4,-13
1501928889469639,-10,-2,0,-4,-4,-5,-1,5
1501928889469639,-1,-1,-4,17,2,0,-1,-2
1501928889470571,2,0,-4,-14,-5,-2,-3,-5
1501928889470571,2,-2,2,7,1,1,1,6
1501928889491578,1,0,5,-18,-2,1,-3,-4
1501928889491578,-6,-2,-1,11,0,-2,0,-9
1501928889493583,6,-1,0,-1,2,-2,-4,1
1501928889493583,3,-2,2,1,-5,-11,-2,15
1501928889506591,-5,-1,7,1,2,12,-8,5
1501928889506591,-2,-5,-20,-18,2,1,30,17
