timestamp,emg1,emg2,emg3,emg4,emg5,emg6,emg7,emg8
1501934047934991,0,4,38,21,40,-7,3,19
1501934047934991,-6,-11,-62,29,0,3,7,-52
1501934047941046,5,17,54,-108,-37,18,9,0
1501934047941046,9,-3,14,26,-48,-14,-16,-4
1501934047942999,-13,-13,-17,65,-21,-7,0,-5
1501934047942999,0,2,21,16,-15,-9,-9,16
1501934047945027,1,9,20,107,49,10,12,6
1501934047945027,7,13,27,71,36,17,10,6
1501934047948991,3,-3,-52,-58,-45,4,-11,-6
1501934047948991,2,-2,15,-87,-5,-1,-1,6
1501934047956029,-9,-14,-45,101,24,-14,-18,-8
1501934047956029,-9,-12,-20,-56,-79,-17,11,4
1501934047971032,1,-2,-7,-10,-1,-4,5,-5
1501934047971032,-6,5,20,90,33,12,0,-6
1501934047977032,-17,-34,-83,-74,-55,-32,-24,-10
1501934047977032,-2,-15,-61,-93,-68,-16,-16,11
1501934047992032,-2,12,39,69,32,6,9,-2
1501934047992032,16,-2,6,-86,-32,-6,-35,-33
1501934048009025,-18,-9,-27,-12,-4,-5,31,-10
1501934048009025,14,5,6,15,60,14,4,29
1501934048010032,3,-7,-37,-74,-13,3,-27,-13
1501934048010032,-50,-11,-12,122,-3,-20,-2,-10
1501934048055014,-13,1,-5,-45,16,5,-15,-6
1501934048055014,6,5,-3,-65,1,4,8,6
1501934048055996,10,-3,-5,-64,8,1,-16,-11
1501934048055996,5,-10,-27,-84,-23,-9,2,3
1501934048057007,2,-2,-10,-27,33,3,-3,-2
1501934048057007,16,1,1,72,36,1,-9,30
1501934048059042,-18,14,45,7,12,17,48,0
1501934048059042,-18,12,45,28,-10,1,-59,-47
1501934048067996,-30,-5,-41,44,1,-9,47,-41
1501934048067996,6,5,32,16,-6,8,-16,36
1501934048074057,-3,-5,-26,94,17,3,-5,-36
1501934048074057,9,1,2,60,18,-8,12,9
1501934048083034,70,20,51,15,-19,14,-48,52
1501934048083034,-64,-3,-19,-70,-22,2,67,-60
1501934048097067,-53,-27,-21,25,-60,-22,-34,-41
1501934048097067,-4,-3,9,47,24,6,5,70
1501934048106032,-20,-9,3,94,-10,-5,0,-29
1501934048106032,40,10,36,52,30,-4,-25,27
1501934048128034,23,6,5,-96,-13,-3,-12,14
1501934048128034,-25,10,23,-6,16,5,15,-54
1501934048130001,4,-5,-42,-48,16,-9,-14,6
1501934048130001,-21,-8,-41,-16,-3,-3,-8,-13
1501934048143011,-2,4,-3,33,-18,-2,1,-25
1501934048143011,39,3,35,38,20,4,-3,29
1501934048149043,-20,-6,-27,-27,-21,-7,18,2
1501934048149043,-13,-3,-14,-54,-35,-3,-18,-54
1501934048166007,18,0,2,84,38,3,-15,73
1501934048166007,53,2,-37,-97,-17,6,35,47
1501934048167003,-33,-5,-23,-62,-6,-10,-3,-21
1501934048167003,-34,-13,-17,33,-45,-9,-7,-40
1501934048188064,34,20,32,105,76,24,32,32
1501934048188064,-28,-16,-8,79,-17,-15,-24,-17
1501934048194040,-14,-3,37,-93,-37,-11,6,-33
1501934048194040,38,3,-14,-43,11,5,-13,34
1501934048203011,1,-5,-15,30,23,0,8,14
1501934048203011,-13,5,19,35,-15,-3,-17,-55
1501934048211015,39,-8,-18,56,11,-5,4,60
1501934048211015,-8,-1,37,127,53,-5,6,-11
1501934048226076,10,2,-2,-80,-71,-11,-13,10
1501934048226076,-7,-2,-28,20,-9,5,21,-2
1501934048227005,8,-7,15,127,24,1,-25,3
1501934048227005,4,9,40,46,25,7,6,15
1501934048248067,-10,-11,-51,-29,-6,-4,-21,4
1501934048248067,5,-1,-10,-12,47,5,27,25
1501934048250017,-39,-4,-18,11,-41,-5,-6,-48
1501934048250017,7,0,25,24,4,-2,7,13
1501934048263036,-15,-1,21,30,25,-4,-13,-26
1501934048263036,-9,-9,-69,-77,-19,-6,-5,-13
1501934048269070,25,7,-3,-91,-28,6,-6,0
1501934048269070,7,-1,18,-15,-2,1,31,49
1501934048286069,-26,-5,-1,21,-23,-16,-11,-118
1501934048286069,-4,-2,11,-81,-8,2,-12,-8
1501934048287010,0,6,13,-43,-13,9,21,3
1501934048287010,-2,-1,-15,107,48,0,-22,-35
1501934048308069,21,4,14,-128,-34,-4,5,36
1501934048308069,-73,-13,-10,118,4,-12,-10,-65
1501934048310010,-1,-4,3,11,-15,-5,-15,-16
1501934048310010,28,8,16,-114,-39,0,-2,87
1501934048323021,-13,-16,-77,-14,-2,-5,-1,5
1501934048323021,10,-5,22,-3,-17,-12,16,21
1501934048329068,-10,-1,5,28,10,-1,1,5
1501934048329068,-3,7,-29,-73,-60,6,4,0
1501934048346056,-1,-4,8,-31,-1,1,6,14
1501934048346056,34,8,37,41,33,10,-6,18
1501934048347045,-20,-5,-26,-4,11,-4,-4,3
1501934048347045,6,-17,-54,121,-24,0,-3,-60
1501934048368034,22,9,26,-100,-53,-12,-4,19
1501934048368034,-28,-5,-7,9,-10,-2,-2,-8
1501934048370013,9,22,108,73,76,23,10,20
1501934048370013,-16,-18,-35,-99,-41,-14,-24,-19
1501934048382082,-3,-7,-11,26,10,-5,11,12
1501934048382082,14,1,2,107,-4,-3,2,5
1501934048391016,19,15,27,-14,22,15,3,-7
1501934048391016,-15,-5,-16,25,-12,-8,-6,-9
1501934048406087,-29,-3,6,80,33,5,12,4
1501934048406087,25,9,14,8,11,5,-2,20
1501934048407025,-8,-8,-19,-67,-8,-2,2,-34
1501934048407025,-16,2,24,46,49,4,-18,-60
1501934048428058,-6,-5,4,60,1,0,5,-1
1501934048428058,12,0,-5,-110,-35,-7,-4,9
1501934048430029,4,-6,-17,-8,0,3,4,35
1501934048430029,7,-5,-20,-51,0,0,5,14
1501934048442058,7,25,101,45,34,20,7,17
1501934048442058,-17,-7,-3,45,7,-6,0,-3
1501934048451031,18,-1,0,35,-21,-6,-10,4
1501934048451031,-6,-3,-9,-92,-17,-11,3,17
1501934048466066,-9,-5,-3,1,-39,-11,-12,-11
1501934048466066,6,6,27,19,26,7,-4,1
1501934048467021,-8,-8,-6,-15,-20,-13,-7,6
1501934048467021,16,10,7,36,27,9,9,8
1501934048488063,-1,-4,-12,-20,-11,1,-7,-6
1501934048488063,-4,-3,-26,-84,26,7,-19,1
1501934048490021,-10,-13,-10,52,-32,-21,4,0
1501934048490021,12,1,0,47,15,5,15,33
1501934048502062,-5,-2,-11,-96,13,-1,4,2
1501934048502062,-15,-12,-45,-54,-32,-8,2,-28
1501934048511057,11,5,-1,-27,33,14,0,-6
1501934048511057,-4,-3,20,53,-22,-6,-16,-16
1501934048526057,5,0,-8,50,14,2,1,2
1501934048526057,4,5,12,-17,-5,6,1,-1
1501934048527032,9,3,13,4,-32,-5,-9,-18
1501934048527032,2,-2,6,-65,4,0,12,36
1501934048548095,0,-2,-54,-112,-31,-9,-5,-60
1501934048548095,39,7,33,41,15,4,0,62
1501934048550025,1,10,30,37,32,14,5,-10
1501934048550025,-31,3,30,28,7,-1,-9,-28
1501934048562083,28,-2,-7,62,-4,5,14,54
1501934048562083,-9,3,7,-7,3,-3,0,-25
1501934048571060,-9,2,-7,74,16,-2,-9,-6
1501934048571060,11,7,9,40,-8,8,5,7
1501934048585095,-5,-15,-37,30,-27,-16,-7,2
1501934048585095,-14,-16,3,100,-13,-22,-10,-12
1501934048592089,4,6,17,-73,-2,1,6,0
1501934048592089,-13,-7,-51,-53,-1,1,-9,-25
1501934048608065,-2,-3,11,46,18,-1,-6,6
1501934048608065,-5,3,0,9,25,15,-3,-54
1501934048610041,-18,-2,8,-41,-47,-8,14,20
1501934048610041,32,2,-10,-16,7,-9,5,22
1501934048622089,-16,4,8,-110,6,8,-13,-30
1501934048622089,3,2,2,33,-12,-5,9,13
1501934048631067,-4,-17,-45,5,28,-11,-13,6
1501934048631067,-11,-2,1,-55,-9,2,-1,-21
1501934048646090,7,5,32,-30,7,-2,-14,-4
1501934048646090,-16,0,2,-105,-25,-1,1,12
1501934048647030,-5,-5,-39,30,13,5,3,2
1501934048647030,8,-14,-37,-40,-22,-23,0,30
1501934048668093,-5,5,13,51,16,11,3,-24
1501934048668093,7,5,18,6,-6,3,2,15
1501934048670063,19,-9,-36,59,11,-2,-6,-9
1501934048670063,-10,5,20,-41,16,3,-13,-28
1501934048682070,15,10,33,1,1,0,8,34
1501934048682070,-19,-6,-36,-90,0,0,10,-58
1501934048698054,14,-1,35,-77,-38,-6,5,36
1501934048698054,-9,2,33,41,-26,-3,-23,-44
1501934048706104,-2,-6,-18,-55,2,-1,10,7
1501934048706104,-5,4,28,89,10,-2,-5,37
1501934048707034,-5,-3,-18,-97,-30,-5,2,17
1501934048707034,-10,-3,0,11,2,-1,-14,-21
1501934048728071,10,-1,-32,29,-13,-1,5,-7
1501934048728071,-14,-4,-31,-6,-14,0,2,0
1501934048730046,-11,1,10,-28,8,-2,-10,-2
1501934048730046,-2,-1,23,55,-1,1,12,3
1501934048751051,7,-1,-48,-10,8,0,-15,-10
1501934048751051,33,-3,-33,-1,-4,-1,9,28
1501934048752036,-9,-4,33,123,21,4,-3,-17
1501934048752036,3,13,66,75,37,7,13,31
1501934048766110,-32,-28,-60,39,-3,-14,-13,-42
1501934048766110,3,7,27,90,8,4,-2,8
1501934048767037,-17,0,-18,42,23,4,-6,-44
1501934048767037,0,-2,-9,-79,-14,-5,-6,-10
1501934048788104,-4,1,13,2,10,2,8,25
1501934048788104,-2,-1,15,17,-16,0,-3,-6
1501934048790038,-7,4,5,-26,-9,1,1,-29
1501934048790038,-13,-5,-35,-17,-2,-4,-2,-1
1501934048802081,8,5,28,-78,13,7,-4,12
1501934048802081,-8,-5,-11,-65,-22,-5,0,-17
1501934048811077,3,0,28,17,2,5,-1,17
1501934048811077,23,-2,-24,-26,4,-5,-1,27
1501934048826106,-2,7,21,-72,-13,7,0,3
1501934048826106,-6,-7,-1,107,4,-3,-2,2
1501934048827041,7,0,-9,-94,-24,-5,7,10
1501934048827041,2,3,-14,17,-9,2,8,-3
1501934048848087,12,-1,31,79,25,-8,-9,4
1501934048848087,-11,-3,-34,-97,9,6,-8,-14
1501934048850065,0,-1,4,40,5,-4,-1,19
1501934048850065,11,0,13,-15,4,3,5,20
1501934048871111,-15,-2,-31,125,24,0,1,-35
1501934048871111,17,4,11,-97,-18,-8,-9,20
1501934048872045,-1,-2,-9,40,5,2,3,-12
1501934048872045,29,1,2,1,21,6,0,51
1501934048886113,-9,19,67,38,-1,24,12,-49
1501934048886113,16,-7,-27,-18,-12,-16,-2,11
1501934048887056,-22,-2,-29,-26,-4,2,-1,-22
1501934048887056,-6,-3,-1,12,-14,-4,6,-14
1501934048908105,-1,-5,-6,32,6,-5,-1,16
1501934048908105,-7,3,-22,-79,2,8,2,-18
1501934048910077,11,-2,12,17,-5,-4,-20,-8
1501934048910077,5,4,23,-11,20,6,0,6
1501934048931096,-4,-7,-8,31,-10,-12,12,35
1501934048931096,-14,4,19,-78,-8,4,-4,-28
1501934048932047,2,-4,-15,-8,12,-10,-11,7
1501934048932047,5,7,-3,13,40,22,0,-2
1501934048946117,9,0,72,75,-11,-17,6,14
1501934048946117,-8,-3,-14,4,3,4,-3,1
1501934048947048,31,18,27,-26,-28,1,13,30
1501934048947048,-39,-15,-42,-77,-5,-8,-9,-45
1501934048968115,11,4,-1,-65,-21,0,4,16
1501934048968115,4,2,-3,37,17,6,4,8
1501934048970049,15,0,1,32,-11,-5,-6,21
1501934048970049,-3,2,30,4,-3,-4,-24,-17
1501934048991099,24,-8,-31,51,-20,-2,24,45
1501934048991099,-6,1,7,-49,-8,2,32,-6
1501934048992051,-7,-3,-21,-84,5,3,-16,-8
1501934048992051,2,-4,-16,107,8,0,19,20
1501934049005248,-4,0,2,-23,13,0,-10,2
1501934049005248,8,-2,4,-18,-17,-3,8,4
1501934049012250,-3,-1,9,22,24,3,-22,0
1501934049012250,-4,2,-2,-1,-8,-8,-10,-30
1501934049027271,8,-3,-7,-33,-29,-6,7,-11
1501934049027271,-5,-2,18,94,12,-3,-10,42
1501934049036225,-13,4,9,28,23,12,15,-22
1501934049036225,14,1,11,-62,-30,-9,-24,25
1501934049051242,-17,-9,-39,-65,-7,-11,-27,-34
1501934049051242,8,-9,-34,-46,-4,-6,19,13
1501934049052219,5,-1,-18,-69,26,8,14,18
1501934049052219,-5,-1,11,-23,-22,-4,-7,-12
1501934049073270,-6,7,15,-125,-1,18,34,8
1501934049073270,-4,-2,-9,30,5,-5,-37,-16
1501934049075210,-1,1,-14,-36,12,-2,5,-15
1501934049075210,-25,-6,3,-40,-33,-9,4,-27
1501934049087278,-15,-5,-41,41,14,4,1,-30
1501934049087278,2,1,6,-10,22,3,-7,28
1501934049096215,5,-4,23,6,-34,-13,-40,-16
1501934049096215,-65,-9,-21,1,18,4,56,-31
1501934049110252,-8,-3,5,-81,-49,-7,-16,-21
1501934049110252,6,4,27,60,8,6,12,8
1501934049112212,-19,-12,-26,30,-12,-11,-8,-27
1501934049112212,23,-3,-14,103,1,-10,-19,13
1501934049133254,0,2,10,33,17,4,-22,-15
1501934049133254,7,0,-6,-30,1,2,19,1
1501934049135213,9,0,21,-7,3,-2,9,9
1501934049135213,6,5,7,26,-36,-3,-6,-9
1501934049147256,-10,-11,-29,0,-16,-9,-8,-15
1501934049147256,17,4,2,77,13,1,-13,7
1501934049156251,-1,1,23,-26,-45,-2,3,1
1501934049156251,25,0,-5,4,3,-2,-16,40
1501934049170258,2,13,35,24,36,14,44,11
1501934049170258,-32,-13,-2,19,-38,-15,-20,-46
1501934049172227,5,-8,-75,-60,20,6,8,31
1501934049172227,-10,-6,2,19,16,-1,-7,-3
1501934049193281,14,4,16,40,14,2,-5,14
1501934049193281,-18,-1,15,-32,0,-1,-18,-38
1501934049195221,-8,-5,-22,-51,-19,-5,1,5
1501934049195221,16,-1,-2,84,16,0,14,-26
1501934049207229,3,-2,9,67,7,-1,-10,14
1501934049207229,4,0,-24,-81,0,6,10,7
1501934049216254,-9,-2,16,71,10,-3,-5,-21
1501934049216254,7,3,-3,58,-13,3,-28,-8
1501934049231219,10,-4,-18,-61,-33,-5,29,94
1501934049231219,-4,2,31,102,7,-8,1,-40
1501934049232230,-2,0,-40,26,1,0,4,18
1501934049232230,3,-1,-13,-98,-9,2,-3,-3
1501934049253221,-7,-4,19,104,33,-4,-13,-14
1501934049253221,-5,-5,-19,-30,-36,-10,-22,15
1501934049255220,22,-1,-5,-4,-13,-4,13,51
1501934049255220,3,15,30,34,49,23,27,14
1501934049267223,-13,-11,-37,-123,-44,-12,-35,-30
1501934049267223,8,1,3,-44,-6,-3,15,11
1501934049276264,-7,-2,6,109,28,-1,2,8
1501934049276264,0,-3,-26,-90,-32,-1,2,-7
1501934049291243,1,3,12,-93,-42,-3,3,-7
1501934049291243,3,0,-5,97,14,5,-9,-7
1501934049292251,-1,1,4,12,3,-2,12,-2
1501934049292251,-5,-8,4,54,8,-3,-9,-6
1501934049313287,4,-2,-36,35,4,1,-28,-3
1501934049313287,0,6,55,99,46,8,18,-7
1501934049315235,-16,-5,-1,11,-66,-13,5,-21
1501934049315235,9,-1,2,74,5,0,12,37
1501934049327258,-4,-2,2,59,24,-8,-2,-6
1501934049327258,-3,-1,-12,-86,-12,7,4,4
1501934049336262,6,2,-15,7,16,3,-22,-9
1501934049336262,-9,-5,37,61,6,-8,13,18
1501934049350297,14,-1,-20,-51,-16,-2,9,34
1501934049350297,3,0,-5,-38,9,1,-6,-29
1501934049352258,0,5,18,-17,34,6,6,0
1501934049352258,-18,-7,-53,-42,-17,-5,-1,-17
1501934049373270,-1,10,46,85,42,3,-6,8
1501934049373270,-21,-10,-24,-14,-31,-10,-3,1
1501934049375240,-9,1,14,1,3,-2,-3,-47
1501934049375240,16,1,18,2,4,0,-5,21
1501934049396253,-4,-1,1,57,30,4,-21,-25
1501934049396253,2,-3,-37,-58,-18,-3,18,6
1501934049397238,3,1,21,19,-15,5,7,-5
1501934049397238,-8,-2,1,8,-3,-6,-28,-8
1501934049411253,-6,1,7,13,-4,2,26,-18
1501934049411253,9,1,8,24,2,-1,1,45
1501934049412230,-5,-5,-15,-6,-38,-7,-2,0
1501934049412230,-5,-8,-29,-73,11,-5,-8,-4
1501934049433266,18,12,42,-15,-13,7,7,4
1501934049433266,-22,-5,-19,35,19,1,-20,-8
1501934049435236,-13,-7,13,-91,-14,-6,8,-1
1501934049435236,15,7,16,-65,-12,-1,-20,19
1501934049456255,13,0,9,40,21,2,27,27
1501934049456255,-13,-3,16,101,-4,-7,-9,-39
1501934049457245,-8,-2,-16,-33,-1,3,-9,2
1501934049457245,-7,-5,-12,-92,-19,-4,1,-15
1501934049470292,-4,-3,-7,56,16,2,-2,-20
1501934049470292,11,-7,-27,-30,-4,-4,-4,13
1501934049477272,3,4,-3,-50,8,4,-3,-9
1501934049477272,23,7,30,106,-2,4,20,3
1501934049493242,-15,-13,-45,49,-15,-11,-17,-25
1501934049493242,-16,5,19,15,19,-1,-29,-21
1501934049495237,21,2,-3,46,-2,2,21,35
1501934049495237,-26,-6,0,-45,-21,-6,3,-37
1501934049515282,5,-1,-16,-94,-12,-5,3,-16
1501934049515282,8,3,0,-27,6,9,-14,8
1501934049517235,-1,-2,9,24,25,1,12,9
1501934049517235,-8,-2,6,-34,-4,-8,-7,-1
1501934049530278,2,0,5,-11,-11,7,1,38
1501934049530278,-2,9,40,25,-29,-5,-10,-33
1501934049537256,-4,-8,-60,-81,-15,-1,-1,-40
1501934049537256,0,3,20,49,20,-1,0,34
1501934049553281,-17,-5,-56,-90,4,-3,-4,-10
1501934049553281,16,-2,15,-16,-2,-1,-1,26
1501934049555250,-6,-4,-2,37,14,-2,5,-1
1501934049555250,2,-1,-12,3,-10,4,3,-8
1501934049575287,-10,-2,-8,-51,4,-5,-9,-31
1501934049575287,2,-4,-33,-34,-10,-7,-22,26
1501934049577239,24,6,28,53,16,6,33,36
1501934049577239,-27,-7,-27,79,5,-4,-1,-22
1501934049590285,3,6,39,51,24,3,-4,0
1501934049590285,0,-10,-28,102,-6,-2,-10,-9
1501934049597268,-25,2,17,-3,2,-3,8,-35
1501934049597268,14,-2,-28,-73,-25,0,4,0
1501934049613279,2,0,32,119,-10,-5,-10,-2
1501934049613279,-4,-6,-19,-128,4,-8,-12,-13
1501934049615278,1,0,17,-26,-11,-3,-9,8
1501934049615278,-5,1,3,23,17,1,5,-9
1501934049635302,-3,2,-5,-39,-8,2,7,-9
1501934049635302,11,-2,-8,84,14,4,10,7
1501934049637253,-8,-3,-20,-5,-20,-9,-15,6
1501934049637253,8,6,10,-83,1,4,-5,-5
1501934049650308,-5,-12,-35,52,-8,-5,2,-7
1501934049650308,9,6,22,-41,6,0,15,28
1501934049657264,3,1,-10,-41,14,7,-16,-9
1501934049657264,-5,-8,14,115,12,0,4,23
1501934049673305,-4,2,3,27,-5,-2,-15,-57
1501934049673305,8,3,16,-50,-39,-3,10,22
1501934049675250,0,1,9,-31,9,0,-15,-9
1501934049675250,6,-1,-8,-47,-26,-5,15,3
1501934049696272,-2,2,2,-28,26,7,1,15
1501934049696272,14,2,18,96,-3,-3,7,8
1501934049697279,4,5,17,27,-2,0,3,3
1501934049697279,6,-3,-14,-25,5,6,8,12
1501934049710290,-7,-1,21,32,27,-1,-8,-31
1501934049710290,-14,-6,-12,-101,-32,-9,-5,-22
1501934049717248,7,-1,9,88,10,-7,-12,7
1501934049717248,-8,-3,-24,-15,8,5,13,3
1501934049733288,-4,-9,-12,40,-13,-6,-3,21
1501934049733288,-5,4,2,53,11,2,-5,0
1501934049735248,-17,-5,-6,50,8,-3,-2,-17
1501934049735248,0,-3,3,56,13,6,0,11
1501934049756269,-9,1,18,-113,-28,-8,-8,-10
1501934049756269,0,1,-11,27,28,7,21,-29
1501934049757259,-7,-6,-12,-68,-43,-9,-16,-8
1501934049757259,8,4,17,30,16,-1,0,10
1501934049770296,-7,-2,-3,-28,-6,4,-1,-1
1501934049770296,6,7,27,-1,13,4,2,0
1501934049777281,19,-1,-15,10,10,1,-3,25
1501934049777281,-25,-2,-35,22,13,-7,2,-56
1501934049793313,10,1,7,43,-16,5,6,27
1501934049793313,-16,1,24,29,-3,-3,10,-14
1501934049795273,15,3,21,14,15,2,6,37
1501934049795273,-3,-9,-26,-107,-44,-7,-20,-20
1501934049815295,-7,4,32,80,15,-2,-6,9
1501934049815295,-4,-9,-74,-14,19,5,14,-1
1501934049817254,-3,-1,-3,-39,-38,-8,-17,-7
1501934049817254,33,4,16,92,13,-4,12,65
1501934049830327,-23,-3,1,-62,0,0,-21,-32
1501934049830327,-1,5,19,-24,6,7,21,20
1501934049837290,-14,-9,-9,127,9,-4,-8,-25
1501934049837290,13,-1,-4,-44,-8,-2,-11,4
1501934049860265,15,7,21,87,16,3,12,19
1501934049860265,-8,-14,-42,-30,-4,-9,-41,-14
1501934049862255,4,9,33,11,15,8,36,8
1501934049862255,-4,-3,-30,-32,-39,-5,11,-15
1501934049875321,-6,-3,8,111,22,1,-3,-19
1501934049875321,6,2,34,-60,-19,-7,-11,-7
1501934049877292,6,-2,-7,-59,-7,3,8,29
1501934049877292,-15,0,8,26,31,-4,-39,-31
1501934049889285,16,3,0,-48,-6,4,39,31
1501934049889285,-8,-4,-22,-40,-14,-5,-6,-1
1501934049898271,9,0,4,33,14,-1,3,24
1501934049898271,-8,10,56,41,10,7,2,-35
1501934049913259,10,-11,-53,-61,-6,-8,-12,11
1501934049913259,-2,2,18,17,15,8,9,-4
1501934049915261,-9,-7,-27,22,8,1,-18,16
1501934049915261,-18,-2,9,9,-9,-2,17,-30
1501934049935328,4,-1,-13,-39,-9,-1,-2,-19
1501934049935328,7,6,39,87,5,0,8,7
1501934049937263,-9,-7,-57,-14,-9,-4,-8,-10
1501934049937263,27,0,-19,-34,-8,4,-13,14
1501934049949272,-18,-2,5,7,-20,-9,-4,12
1501934049949272,0,-1,12,32,18,6,19,11
1501934049958269,-6,2,28,36,25,-6,-3,-28
1501934049958269,-7,-9,-11,19,-22,3,-9,-7
1501934049972304,17,0,3,-25,-2,-2,-6,34
1501934049972304,-26,-3,-8,-89,-39,0,-3,-26
1501934049981298,-6,-2,0,-39,3,6,3,-33
1501934049981298,-6,1,15,91,12,-12,-14,-9
1501934049996298,14,2,2,-75,-28,3,13,50
1501934049996298,-3,0,-20,127,44,2,-16,-21
1501934049997296,5,-6,-8,-115,-58,-9,-1,-15
1501934049997296,-7,6,39,-15,8,4,1,23
1501934050009304,-5,-12,-49,21,5,-12,-4,-7
1501934050009304,20,3,2,-18,-11,8,7,29
1501934050018265,5,8,16,-1,24,7,1,-12
1501934050018265,-1,-12,-3,16,-17,-12,-6,33
1501934050033352,-13,10,25,4,5,8,1,-23
1501934050033352,-2,-8,-23,-122,-22,-13,10,1
1501934050035267,-4,6,17,32,-32,6,-1,-4
1501934050035267,8,1,-11,19,11,0,3,21
1501934050055330,-6,0,15,59,31,2,0,-23
1501934050055330,-1,-8,-39,-54,-30,-9,-34,-12
1501934050057299,-10,-1,8,5,16,-2,19,5
1501934050057299,-1,4,8,-13,24,9,12,-14
1501934050069269,3,-5,-27,-25,-18,-7,-12,6
1501934050069269,6,-1,-12,27,12,-5,-6,17
1501934050078269,5,-2,7,-14,5,8,6,9
1501934050078269,-10,-5,-50,-23,-8,-1,-20,-39
1501934050093307,6,-3,6,-19,-1,-3,17,25
1501934050093307,0,3,21,-9,-16,4,9,8
1501934050095276,-6,-5,-15,14,28,-4,-15,-14
1501934050095276,-11,2,23,-128,-10,-1,17,-29
1501934050115309,-9,0,-5,62,32,9,-10,-10
1501934050115309,13,-4,-37,-80,-60,-13,-8,-7
1501934050117280,-16,1,8,105,-11,-4,16,-19
1501934050117280,-22,-3,-7,37,13,-1,-3,-2
1501934050129340,-4,-6,-3,-1,-6,-5,-12,-46
1501934050129340,-10,0,31,-26,13,0,1,-13
1501934050138280,3,1,-6,26,17,5,-19,-1
1501934050138280,8,2,0,-6,-8,4,3,7
1501934050153314,-9,0,-3,-74,-6,-5,-30,-19
1501934050153314,-1,-6,0,127,12,6,61,61
1501934050155273,-1,8,18,85,5,-5,-11,-1
1501934050155273,11,-2,11,-16,3,-1,3,23
1501934050175314,10,-7,-34,2,-18,-6,-15,-1
1501934050175314,-1,5,11,-73,27,10,-2,-10
1501934050177283,1,-1,13,-4,-20,-6,1,2
1501934050177283,-2,-4,-5,-4,0,-2,3,-1
1501934050189319,28,6,20,14,-2,4,3,11
1501934050189319,-6,2,-7,76,17,0,-15,-25
1501934050198304,-4,-4,0,38,10,1,-9,0
1501934050198304,3,-6,-28,36,-42,-8,-2,10
1501934050213318,-5,-4,-24,-37,-23,-3,29,12
1501934050213318,1,-2,4,95,8,2,-3,2
1501934050215276,0,3,-1,-18,21,0,-5,-2
1501934050215276,7,-2,-1,18,5,-2,-27,8
1501934050243289,-3,8,37,-27,-6,-13,16,7
1501934050243289,-13,-8,-15,1,8,16,-7,-16
1501934050244279,6,-2,-7,3,1,2,12,27
1501934050244279,1,3,-24,-101,10,9,2,-13
1501934050249311,-8,-5,2,37,-8,5,-10,-7
1501934050249311,6,-1,16,55,-25,-19,-4,-2
1501934050258278,-12,-2,4,24,-9,-3,-7,-20
1501934050258278,23,-1,-1,30,8,0,22,38
1501934050273281,-10,-2,-21,-41,12,1,-5,0
1501934050273281,-2,-1,-10,-24,4,-2,-14,-8
1501934050275282,0,-2,1,-42,-2,5,3,-1
1501934050275282,9,-1,-5,63,-17,-14,-26,-4
1501934050295280,-28,-3,15,43,22,10,20,-4
1501934050295280,10,6,13,-8,8,4,-10,20
1501934050297288,-7,-6,-14,-86,-34,-11,11,-18
1501934050297288,-10,-2,-14,4,30,-4,-7,-26
1501934050318282,7,5,-2,-27,-44,10,5,0
1501934050318282,-3,5,18,-28,10,2,5,-4
1501934050320282,3,3,6,-42,-13,-6,-4,5
1501934050320282,-9,-2,-12,31,20,4,0,-7
1501934050332284,-2,-1,17,23,-6,-6,-14,-16
1501934050332284,6,-3,-28,-64,5,3,19,20
1501934050339317,-3,-17,-41,35,10,-6,-20,-8
1501934050339317,-24,-1,18,-43,-44,-19,-5,-2
1501934050355283,11,-1,-16,-33,1,7,8,3
1501934050355283,-4,0,9,11,-10,-10,-15,-6
1501934050357298,6,3,6,-57,13,2,8,11
1501934050357298,2,-5,-13,-38,-5,4,14,-12
1501934050378349,-3,-3,3,119,4,-4,-15,-11
1501934050378349,-4,3,13,9,3,-5,-3,-5
1501934050380294,14,0,18,79,3,0,-21,-30
1501934050380294,-4,4,9,-5,-4,-1,38,57
1501934050393312,-5,2,13,-13,13,5,-6,-30
1501934050393312,8,-2,-11,13,4,5,3,2
1501934050395289,-1,3,10,-94,-25,0,10,25
1501934050395289,8,7,20,-39,-2,6,-12,-14
1501934050415328,0,-6,-8,44,21,0,-1,19
1501934050415328,-4,-4,-9,-49,-23,-15,-2,-3
1501934050417322,4,-1,-28,28,-3,3,4,5
1501934050417322,-4,2,0,88,32,12,-3,-18
1501934050438299,-3,3,-14,-63,-5,-7,5,5
1501934050438299,1,0,6,-29,-28,-1,-8,15
1501934050439288,-4,0,-11,28,5,6,-3,6
1501934050439288,-1,-2,-15,-49,12,-2,10,2
1501934050452361,-8,-2,14,18,-8,-9,-14,-20
1501934050452361,3,1,13,44,31,-2,-10,5
1501934050459349,2,8,32,9,0,-2,18,13
1501934050459349,-3,-5,-39,-58,-11,0,-4,4
1501934050475332,-3,-6,-5,12,-6,-7,-5,4
1501934050475332,0,2,9,26,0,4,-6,-7
1501934050477323,-8,-8,-16,-93,-19,-6,10,-13
1501934050477323,11,10,49,77,11,10,3,8
1501934050498351,-2,-5,-42,-77,-33,-15,-7,-6
1501934050498351,-12,-8,-8,92,-3,6,-11,-29
1501934050500294,3,2,-4,35,13,-5,6,17
1501934050500294,2,-1,8,-18,-15,0,-10,-5
1501934050512355,1,1,9,22,24,8,19,19
1501934050512355,1,3,30,74,8,-5,-1,0
1501934050519338,-10,-3,-1,-3,-9,-2,-9,-25
1501934050519338,-15,-5,-12,-25,-2,-6,3,-8
1501934050535360,3,3,-3,-31,4,-2,-10,-3
1501934050535360,-2,1,-16,-32,-3,-3,5,-7
1501934050537327,5,7,39,83,27,7,9,-4
1501934050537327,1,-2,-4,58,-4,-2,-12,3
1501934050558361,-5,-4,8,-43,-10,0,6,3
1501934050558361,5,-3,0,7,1,-4,-10,25
1501934050560296,-7,-7,-35,-31,-21,-8,-9,11
1501934050560296,5,-2,5,88,33,-1,-1,-15
1501934050572344,-1,5,7,-23,-8,6,8,-4
1501934050572344,12,6,20,59,21,18,16,21
1501934050579357,-6,-6,-17,-71,-19,-8,-14,-4
1501934050579357,10,-4,-1,20,10,4,-8,-4
1501934050595297,-32,-5,-7,3,-8,-9,6,26
1501934050595297,-9,-1,4,-37,-1,-3,1,-26
1501934050597309,0,-3,-9,98,-12,-2,0,12
1501934050597309,-5,3,29,52,12,2,-25,-31
1501934050618300,11,-5,-21,-50,-33,-8,14,32
1501934050618300,-3,2,-17,-27,-6,-4,-9,-48
1501934050619309,-7,-1,-7,-69,10,4,13,-8
1501934050619309,6,0,17,62,-3,-4,-6,12
1501934050632368,6,5,19,17,7,9,-7,-16
1501934050632368,-7,-8,-36,-53,-16,-5,9,0
1501934050639370,2,-6,9,76,-1,-6,-12,4
1501934050639370,-4,-1,3,-70,-7,-1,32,12
1501934050655358,1,-1,-3,5,10,-5,-13,-22
1501934050655358,0,-1,10,12,-5,10,1,5
1501934050657334,4,4,-14,11,51,5,-15,1
1501934050657334,-6,5,4,18,-34,-2,-7,-9
1501934050678366,14,0,17,81,18,-5,-3,24
1501934050678366,-2,-7,-21,-57,-33,-12,-20,-5
1501934050680302,-2,-1,-3,-14,18,4,36,9
1501934050680302,1,1,2,-17,4,-2,-11,5
1501934050693365,9,5,24,86,17,8,7,-3
1501934050693365,-13,-6,-25,-20,0,-6,-3,-12
1501934050699362,8,3,9,-53,-32,-6,-10,-11
1501934050699362,0,1,-16,3,1,0,6,-1
1501934050715366,0,-6,0,-2,-9,-1,10,18
1501934050715366,-4,-1,14,14,17,5,-7,-23
1501934050717304,-4,-1,0,-74,-9,1,9,0
1501934050717304,-6,-3,1,-17,-12,-7,-15,-9
1501934050738380,-5,0,-2,26,9,-15,-1,-11
1501934050738380,8,4,25,2,7,19,6,25
1501934050740315,0,-4,-41,-25,6,-4,-1,-15
1501934050740315,-12,-3,-2,0,-1,5,11,-4
1501934050752346,0,-4,-1,10,-18,-8,-19,4
1501934050752346,9,-4,-25,6,-11,-14,9,16
1501934050759358,-2,7,28,45,-6,2,-11,-14
1501934050759358,3,-3,-17,-13,15,0,3,22
1501934050775377,-3,-4,-9,-19,4,2,-6,-21
1501934050775377,2,8,28,-7,-5,-2,1,1
1501934050777341,1,-7,-4,82,10,1,-6,-1
1501934050777341,-2,-6,-28,-72,-7,-3,12,0
1501934050798382,8,4,-13,83,0,4,-8,6
1501934050798382,-8,-1,-5,-4,3,-2,-22,-13
1501934050800311,2,5,31,-60,-10,4,44,22
1501934050800311,-9,-7,-7,4,19,-6,-15,-21
1501934050812332,5,1,-6,-72,-21,-1,-28,-12
1501934050812332,-5,-3,0,100,25,0,33,18
1501934050821312,-11,-3,-17,-41,-11,3,-24,-26
1501934050821312,21,6,21,-21,-5,2,11,-14
1501934050836351,-5,0,9,-20,-18,0,7,1
1501934050836351,1,1,-9,-2,-3,-4,0,-2
1501934050837322,-1,-2,1,65,4,-4,-11,-8
1501934050837322,2,-3,0,-25,-10,-1,-14,23
1501934050858378,-5,-3,-6,20,12,1,3,-6
1501934050858378,3,-1,-5,-54,-7,-7,14,12
1501934050860322,-2,0,8,81,26,4,-7,-2
1501934050860322,-1,3,13,18,-6,2,6,9
1501934050872335,6,2,3,-64,-1,0,-15,-9
1501934050872335,-8,-1,11,-51,-13,0,17,6
1501934050881325,6,-1,8,12,10,-8,-7,16
1501934050881325,-8,-6,-10,54,-39,-1,-7,-2
1501934050895359,14,3,6,-12,14,8,13,13
1501934050895359,-4,-8,-8,-26,4,-10,-16,-2
1501934050897316,1,8,22,21,-5,3,6,1
1501934050897316,17,0,9,-33,10,-1,-30,-5
1501934050918380,-4,-3,-25,-51,-12,-2,40,17
1501934050918380,1,3,11,55,6,2,-9,-6
1501934050919317,-4,-1,-4,-28,-23,3,-6,-5
1501934050919317,1,1,2,39,8,-3,11,15
1501934050932328,-8,-4,-4,15,-3,-5,-4,-25
1501934050932328,-2,-4,-6,14,-3,-3,-12,-15
1501934050941320,-4,-1,-5,-15,-1,-6,-1,4
1501934050941320,-5,0,4,17,0,-7,3,-14
1501934050955318,-8,4,13,59,13,11,-8,0
1501934050955318,-10,-9,-14,-32,-12,-8,6,-5
1501934050957318,10,3,1,-19,-28,-4,-13,1
1501934050957318,-2,4,14,70,13,5,9,5
1501934050978385,-4,-13,-45,-55,-32,-8,-8,29
1501934050978385,4,9,24,10,3,-2,4,-1
1501934050979320,-3,-3,-26,-49,4,2,-7,-2
1501934050979320,-10,-5,8,42,15,-3,15,-12
1501934050992332,-2,0,12,-18,-10,-10,-19,-16
1501934050992332,7,2,4,16,18,22,15,12
1501934051000364,4,-1,-8,-92,-16,-4,-16,12
1501934051000364,-6,3,7,12,6,-2,28,14
1501934051015371,3,-3,12,49,12,1,-1,-3
1501934051015371,4,-3,-30,-9,-4,-6,-16,-6
1501934051017324,3,-2,-7,40,10,-4,7,-10
1501934051017324,-9,-7,-13,-28,-10,-1,-22,1
1501934051038389,-19,-4,-12,45,9,3,6,-30
1501934051038389,-5,0,22,11,-4,1,3,1
1501934051039324,0,-1,-11,-30,8,-1,-22,-8
1501934051039324,-2,6,33,-36,-30,-5,22,-12
1501934051052345,10,-6,-24,36,6,-7,-9,8
1501934051052345,-4,-7,-14,-17,-27,3,1,-1
1501934051060344,-14,-1,-8,-58,-18,-1,8,-18
1501934051060344,12,0,-22,-113,-5,3,0,19
1501934051076386,6,0,13,23,9,6,2,3
1501934051076386,6,6,10,-5,6,-3,-16,-11
1501934051077356,1,3,16,2,29,3,18,14
1501934051077356,-4,0,-37,-112,-14,4,-19,-17
1501934051098362,-7,-1,14,39,8,-4,3,-23
1501934051098362,-4,0,-9,-16,-7,-9,-4,-20
1501934051099341,9,-3,-12,38,-1,0,-10,-1
1501934051099341,-11,-2,-6,19,11,3,17,-7
1501934051112357,3,1,-7,-69,-9,3,-4,10
1501934051112357,5,3,4,-60,13,3,-7,16
1501934051121330,-4,-1,9,59,-22,-18,6,-4
1501934051121330,5,-8,-15,39,0,12,-7,22
1501934051135394,-2,2,-7,-19,0,-2,-4,-8
1501934051135394,-3,0,3,33,11,-2,-13,-43
1501934051137362,-10,-1,33,66,-5,0,-2,7
1501934051137362,-22,-4,-12,5,-8,-8,22,0
1501934051158394,8,4,2,-19,-20,-4,1,-14
1501934051158394,-10,-9,-21,14,-3,1,-7,1
1501934051159330,3,2,15,62,6,1,0,7
1501934051159330,1,1,8,123,11,-12,-16,-10
1501934051172356,1,2,7,-22,4,13,0,0
1501934051172356,-1,3,21,29,22,-1,13,13
1501934051181332,-6,-14,-44,69,-14,-6,-8,4
1501934051181332,8,5,16,-77,6,-1,-12,2
1501934051195375,-10,-5,-5,-39,5,-4,-7,0
1501934051195375,0,1,-15,-3,1,0,18,9
1501934051197333,2,3,1,22,-1,8,27,-4
1501934051197333,9,-2,1,18,-1,-1,-5,7
1501934051218410,1,-2,-13,-90,-4,-3,-9,12
1501934051218410,-4,1,18,-40,-8,-4,-10,-10
1501934051219365,-1,-2,5,-36,9,4,7,4
1501934051219365,0,2,-3,43,4,-13,-15,-12
1501934051248405,6,-1,-7,-48,-3,15,10,13
1501934051248405,-3,-1,-11,72,-18,-9,0,13
1501934051249357,2,-3,2,-60,-9,3,-28,-12
1501934051249357,3,-4,13,-11,-28,-10,19,44
1501934051255402,-8,-2,-7,52,14,4,-1,-38
1501934051255402,-11,-9,-29,-28,-15,-3,22,24
1501934051257345,-7,5,-4,-67,0,-4,-17,-20
1501934051257345,-2,-2,6,90,6,6,-20,-8
1501934051278401,2,5,6,60,0,-4,11,20
1501934051278401,0,-4,-4,53,-7,-2,-1,-15
1501934051279373,-3,-4,-9,32,26,-1,-8,11
1501934051279373,-4,-2,0,-86,-55,-9,-12,-20
1501934051300379,7,6,24,100,0,6,26,37
1501934051300379,-2,-2,-17,-9,9,-7,-11,-18
1501934051302339,3,-6,-6,-3,-6,0,3,14
1501934051302339,-3,-4,-17,-11,10,5,-4,-16
1501934051315347,-6,1,30,-32,6,-4,-6,-15
1501934051315347,9,-1,-3,124,6,-10,-10,26
1501934051317340,-14,1,27,-20,-9,9,4,-16
1501934051317340,2,-3,-16,-34,7,4,4,-5
1501934051338405,-1,-3,-32,60,25,-2,-6,-4
1501934051338405,5,-3,-1,-83,-36,2,-5,5
1501934051339373,1,1,2,-11,-13,-13,-8,-18
1501934051339373,-4,-2,-7,26,7,-4,16,14
1501934051360397,-3,0,2,-60,9,9,-11,-11
1501934051360397,5,5,30,53,21,2,14,2
1501934051362342,-2,-4,-12,59,10,5,-16,-14
1501934051362342,3,-1,-10,-25,-7,4,17,-1
1501934051375380,8,1,-8,60,6,-10,-10,9
1501934051375380,1,-8,-25,-95,-34,-5,-11,-9
1501934051377353,-3,-4,-3,38,10,-4,8,8
1501934051377353,-5,4,4,-40,5,9,-4,-2
1501934051398382,6,-6,-8,-24,2,-5,-6,12
1501934051398382,-7,2,12,33,6,1,2,-7
1501934051399367,10,4,-6,-36,3,-3,-3,16
1501934051399367,0,-4,-8,12,0,2,8,5
1501934051420404,-2,0,3,10,0,1,0,-11
1501934051420404,-5,-3,-8,-47,-11,-6,-7,-7
1501934051422345,7,7,14,30,26,8,11,7
1501934051422345,-14,-7,4,51,-4,-24,-12,-11
1501934051435422,8,-4,16,-90,-21,18,-4,3
1501934051435422,-9,-2,-5,71,35,0,2,10
1501934051442365,1,0,-19,-88,-75,-10,-11,-7
1501934051442365,5,0,3,66,2,-2,8,-7
1501934051458418,-13,-7,-25,58,21,-7,2,-5
1501934051458418,5,0,4,-24,-27,0,5,-7
1501934051459349,-1,-3,0,-11,-2,2,0,10
1501934051459349,-5,1,1,-73,-18,2,-4,-7
1501934051480419,2,1,9,-13,-12,-10,-2,8
1501934051480419,1,0,-8,-15,6,9,-2,3
1501934051482360,-3,-2,2,6,11,-3,3,-7
1501934051482360,-10,-2,-26,-80,-30,0,-3,0
1501934051495358,-6,4,21,95,13,-4,-2,-52
1501934051495358,4,2,0,74,13,4,3,2
1501934051501413,-5,-1,14,107,16,0,-19,-2
1501934051501413,9,-3,5,8,10,0,25,5
1501934051518423,3,2,-3,-90,-18,4,-7,20
1501934051518423,-6,-1,20,37,-1,-6,-6,-9
1501934051519368,-4,-7,-18,31,-9,1,-1,-17
1501934051519368,1,6,15,41,50,8,-10,6
1501934051540392,13,-1,-14,-43,-41,-7,11,15
1501934051540392,-34,-8,-30,-83,2,-4,-14,-8
1501934051542352,-6,2,0,-39,20,1,10,0
1501934051542352,1,-2,1,-19,-11,-5,-8,-8
1501934051555395,-15,-6,3,44,-5,-6,-2,-4
1501934051555395,11,-2,-20,-128,-8,1,-5,-4
1501934051561413,-1,2,22,84,0,4,10,7
1501934051561413,-5,-1,4,7,7,1,-25,-16
1501934051578416,2,1,10,39,-8,-3,20,7
1501934051578416,8,0,-2,-33,-7,-1,-2,9
1501934051579365,-5,-4,-18,21,2,-5,10,10
1501934051579365,7,0,13,80,11,3,-15,1
1501934051600380,10,5,10,18,18,0,2,19
1501934051600380,-7,-2,14,8,-5,4,2,-33
1501934051602357,3,2,6,-8,40,4,2,-6
1501934051602357,-13,-3,-8,-26,-24,-11,3,-7
1501934051615377,-8,-5,-10,-52,10,-2,-9,-7
1501934051615377,5,1,17,6,8,5,-8,4
1501934051621425,8,0,-10,13,38,9,10,9
1501934051621425,0,1,8,22,-15,-3,-12,-5
1501934051638415,-7,-3,-7,6,6,0,14,4
1501934051638415,4,3,17,-4,-15,-7,-8,-28
1501934051639393,11,5,11,32,12,7,2,24
1501934051639393,-13,-9,-24,-33,-20,-6,-8,-25
1501934051660403,21,2,4,-39,-16,-5,-9,20
1501934051660403,-1,-1,2,2,5,1,1,17
1501934051662389,-3,-2,-10,-29,-7,-2,11,0
1501934051662389,-12,0,-8,-11,-23,3,0,-26
1501934051675402,-1,0,7,31,-17,-6,-9,-8
1501934051675402,0,0,13,64,9,0,5,15
1501934051682385,-1,1,20,-37,2,0,1,-8
1501934051682385,-1,-7,-41,-30,-1,2,6,11
1501934051698424,-3,-4,-16,14,16,-5,-3,2
1501934051698424,-7,-8,-36,-73,-34,-8,7,-10
1501934051699397,14,5,24,-76,-27,-1,-11,7
1501934051699397,7,0,3,21,17,-1,-8,6
1501934051720404,-22,-6,-11,-17,0,-3,-6,-10
1501934051720404,1,3,0,76,35,6,6,6
1501934051722397,-5,-2,4,-46,-26,-3,-8,-9
1501934051722397,1,1,4,54,10,6,-10,-9
1501934051734409,-7,-3,-19,-101,-32,-4,29,0
1501934051734409,13,7,9,-16,7,0,-4,17
1501934051743394,-15,-9,-30,13,-29,-9,-7,9
1501934051743394,18,0,24,35,15,3,16,7
1501934051758365,-10,-5,-15,-1,5,0,-13,-9
1501934051758365,0,-5,-5,33,1,-3,-10,-17
1501934051759377,-6,-6,-26,-29,-11,-11,2,-15
1501934051759377,6,2,10,6,21,2,-6,16
1501934051779410,5,4,22,-49,-14,2,-14,-12
1501934051779410,-3,-1,3,37,2,-2,17,17
1501934051788379,-9,-3,-24,-72,-10,2,10,0
1501934051788379,-2,4,21,71,16,-3,1,3
1501934051794379,2,-2,-4,-31,1,3,-9,-13
1501934051794379,3,-1,2,-23,2,0,7,8
1501934051803369,-4,-7,-3,73,-2,-4,-15,-10
1501934051803369,2,0,4,19,25,-2,16,8
1501934051818438,4,-1,-12,-35,-47,-3,-12,-1
1501934051818438,-19,-6,-14,-59,-18,-1,-7,-29
1501934051819369,8,1,8,25,7,-2,3,12
1501934051819369,4,-2,-16,-4,-14,-4,-6,6
1501934051840442,-4,2,12,81,27,3,-10,-1
1501934051840442,10,-2,15,20,-5,-2,19,-11
1501934051842381,-15,-1,-30,-29,-18,-9,7,-10
1501934051842381,-3,1,13,-23,1,7,-4,2
1501934051854378,2,1,13,21,16,0,-6,2
1501934051854378,0,-1,-12,110,16,-2,-7,-6
1501934051863380,2,1,10,-13,-28,-1,1,4
1501934051863380,-3,-1,13,-36,-8,-6,-4,-14
1501934051878418,-6,-1,-4,54,26,5,-1,-9
1501934051878418,7,1,0,-7,-15,-1,10,28
1501934051879383,7,-2,-3,25,12,1,-3,-3
1501934051879383,0,-2,-10,-52,-27,-5,-4,4
1501934051899436,1,0,6,-16,-20,0,3,7
1501934051899436,1,3,10,-32,15,0,-4,-1
1501934051908406,3,-4,-8,-15,13,-1,-3,-2
1501934051908406,2,-1,7,1,-24,-8,-1,6
1501934051914378,-3,-1,1,55,24,3,17,11
1501934051914378,-6,-1,-5,29,4,1,-14,-37
1501934051923385,0,3,4,25,13,4,2,-8
1501934051923385,0,-5,-15,-11,-7,-1,-8,2
1501934051938408,-1,-2,7,-31,-27,-7,-14,-16
1501934051938408,-1,1,-5,32,3,4,20,20
1501934051939388,0,0,6,-78,-12,-3,-1,-5
1501934051939388,-2,-2,-14,52,3,-5,-4,-32
1501934051960435,-3,-3,-7,30,-12,-4,1,4
1501934051960435,2,-1,5,-5,-11,-4,-16,8
1501934051962388,-1,1,10,90,13,4,1,8
1501934051962388,-4,4,33,18,35,16,11,9
1501934051974388,-10,-5,-15,35,-18,-10,-18,-42
1501934051974388,-3,1,-5,-12,0,-1,13,3
1501934051983391,-3,-6,4,21,-2,-2,-7,11
1501934051983391,-4,0,-8,-4,8,4,9,-19
1501934051998420,6,1,11,35,11,-2,-4,23
1501934051998420,-1,-5,-3,-11,3,-4,3,2
1501934051999416,-2,2,-8,-75,-18,-3,-7,-5
1501934051999416,-2,-2,-14,-19,-10,-3,-3,6
1501934052020445,-7,2,14,-57,43,3,0,-15
1501934052020445,3,0,-11,-83,-36,-5,3,16
1501934052022392,-2,-2,-7,36,8,1,-4,-1
1501934052022392,-8,-6,-12,18,11,-2,-6,-23
1501934052034430,3,0,-6,-24,-2,6,14,12
1501934052034430,3,-4,-4,-4,12,-4,-26,-8
1501934052043409,-10,-3,-6,20,16,6,13,-2
1501934052043409,9,2,10,38,-7,-3,5,12
1501934052058426,0,-2,-6,32,-17,-3,-6,2
1501934052058426,0,-4,-18,-58,-9,0,8,4
1501934052059408,-5,-1,10,52,0,-4,-6,-21
1501934052059408,2,-3,-13,-70,-15,-1,-4,12
1501934052080456,-6,1,18,83,46,7,5,3
1501934052080456,2,-4,-20,-52,-55,-9,-9,1
1501934052082396,10,3,4,28,1,-3,-6,-22
1501934052082396,-13,-7,-22,-21,0,2,10,18
1501934052094445,4,1,-9,-18,5,0,-1,3
1501934052094445,-12,1,19,74,29,0,-12,-13
1501934052103397,10,-1,-14,-23,-24,-4,2,42
1501934052103397,-5,1,9,-29,0,-2,-1,-28
1501934052118449,0,1,2,-39,-5,5,7,9
1501934052118449,2,-1,2,20,11,4,-6,-3
1501934052119390,0,-1,0,-78,-11,2,-1,-5
1501934052119390,-1,-4,23,101,6,-10,-9,6
1501934052140447,3,3,14,32,-23,-4,14,1
1501934052140447,4,-8,-44,-41,16,-4,-10,-2
1501934052142399,32,2,10,9,-17,0,-7,-2
1501934052142399,-38,0,-16,32,18,7,3,-19
1501934052154448,-13,-10,-13,-91,-32,-11,-1,-23
1501934052154448,7,6,11,36,3,3,1,13
1501934052163388,-9,-3,8,42,12,-3,0,-22
1501934052163388,13,-2,-15,30,22,-1,3,24
1501934052178459,19,1,1,-47,-70,-1,-1,20
1501934052178459,-24,0,21,95,20,3,-8,-51
1501934052179430,-20,-9,-18,-29,-3,-2,-3,-13
1501934052179430,1,5,16,-39,-1,0,6,12
1501934052200406,29,1,10,104,21,-3,-3,16
1501934052200406,-20,-2,-4,-24,-8,2,-1,-6
1501934052202403,3,2,15,10,11,3,19,12
1501934052202403,11,3,10,93,3,2,-7,19
1501934052223457,-1,-4,7,2,10,-7,-13,-8
1501934052223457,14,-5,-34,-21,-40,-6,1,8
1501934052224394,-18,-1,5,25,30,1,1,-26
1501934052224394,13,1,-2,-73,-24,0,2,20
1501934052238463,1,1,-18,-99,19,0,-10,7
1501934052238463,0,5,44,-10,-5,0,7,23
1501934052239394,-14,-11,-47,-22,-18,-7,-12,5
1501934052239394,1,-4,-20,11,-10,-2,-1,-13
1501934052260433,-1,2,-8,18,5,0,10,5
1501934052260433,2,-3,-3,-61,-3,-1,-5,-6
1501934052262404,12,4,14,32,13,2,4,15
1501934052262404,13,-3,1,-99,-20,-6,-10,1
1501934052283459,-17,2,-8,-1,15,5,-2,-18
1501934052283459,2,-3,8,65,47,-5,8,14
1501934052284396,14,1,3,-9,-42,-3,-17,14
1501934052284396,-3,-1,13,12,13,0,19,-8
1501934052298438,-11,-1,-1,7,-2,3,-5,-25
1501934052298438,-3,-5,-27,-34,-5,-1,-10,9
1501934052299398,-6,-1,-6,-101,8,1,7,-14
1501934052299398,-9,1,15,67,7,-2,-12,-16
1501934052320460,3,-5,-17,71,2,-2,9,19
1501934052320460,4,2,15,23,-21,2,-5,5
1501934052322398,10,3,2,3,8,4,6,-3
1501934052322398,-14,-2,-9,7,4,2,1,-25
1501934052343465,-8,-4,1,34,22,-3,1,8
1501934052343465,-1,-1,-5,-62,-39,-3,-8,-26
1501934052344416,-7,7,15,-23,-3,-3,5,3
1501934052344416,-2,-1,-11,24,-3,-1,-9,-11
1501934052358458,-5,-6,-4,48,8,-1,-9,0
1501934052358458,-2,5,35,31,5,1,5,6
1501934052364445,-8,-5,-15,-65,-25,-3,-20,-10
1501934052364445,9,-2,-10,-107,-11,-3,24,28
1501934052380442,-4,3,21,85,22,3,1,6
1501934052380442,6,-5,-8,-64,-25,-12,-5,9
1501934052382427,-18,0,2,-17,5,7,-1,5
1501934052382427,2,1,4,-25,-5,-2,-12,-16
1501934052403469,12,-3,-6,-29,-14,-5,-2,-4
1501934052403469,-24,5,11,70,40,12,16,-18
1501934052404404,-2,-3,10,55,22,-2,-10,12
1501934052404404,6,-8,-17,-23,-9,-7,-7,31
1501934052417452,-13,3,8,-31,-9,-3,4,-26
1501934052417452,5,-1,-6,99,2,-3,1,-2
1501934052424445,12,-7,-26,-26,-6,-8,0,20
1501934052424445,3,2,4,80,31,6,-5,6
1501934052440449,-18,1,5,-68,-32,0,-2,-9
1501934052440449,-4,1,12,52,11,-3,-3,-28
1501934052442429,1,3,11,120,15,1,3,-18
1501934052442429,-1,-5,-5,-37,-19,-5,-2,-9
1501934052463444,-1,-4,-10,40,-3,0,2,-1
1501934052463444,1,-4,-10,27,22,-2,-9,11
1501934052464407,0,-3,-11,-67,-40,-6,1,-1
1501934052464407,2,1,3,11,4,-2,-8,-9
1501934052477438,-3,-1,15,-49,-4,6,8,9
1501934052477438,4,-2,-41,-93,-10,0,-1,5
1501934052484445,-5,2,11,51,4,-2,5,-13
1501934052484445,1,-4,-20,-41,-2,-2,-8,-9
1501934052500423,1,-2,-10,12,-23,-7,1,11
1501934052500423,1,3,12,48,15,3,1,-16
1501934052502421,-1,-9,-18,47,-9,-2,-5,7
1501934052502421,-7,3,13,-49,-16,-9,0,-3
1501934052522472,0,0,3,8,23,5,-6,-13
1501934052522472,-1,-3,-14,-59,-7,9,8,9
1501934052523410,1,-2,7,30,-14,-7,-7,0
1501934052523410,7,1,1,-10,-3,-4,2,-11
1501934052536476,-8,-2,-2,5,10,4,10,9
1501934052536476,-1,-4,12,12,-14,-20,-8,13
1501934052545457,-4,-2,-13,-23,0,16,-5,1
1501934052545457,0,4,1,32,13,-8,4,9
1501934052560462,0,-4,-18,-51,-14,11,-9,-6
1501934052560462,3,0,4,4,18,1,5,18
1501934052560462,1,1,13,11,-17,-18,1,2
1501934052560462,-4,1,7,69,14,14,-2,15
1501934052582481,1,6,14,-38,22,-8,-13,-16
1501934052582481,13,-9,-14,27,-7,4,6,22
1501934052583414,4,0,-3,-21,11,0,-7,7
1501934052583414,-9,-1,-3,-56,-8,-5,3,3
1501934052596483,-1,0,6,1,13,-15,-2,1
1501934052596483,23,3,12,-83,-40,14,-11,23
1501934052605431,2,5,26,75,41,9,14,2
1501934052605431,-28,-10,-33,-31,-17,1,-7,-39
1501934052620457,2,-1,-5,6,4,-3,2,-4
1501934052620457,-5,-1,3,3,4,-12,-1,-9
1501934052620457,1,1,1,13,2,-1,-4,-1
1501934052620457,7,2,11,26,11,4,0,4
1501934052642439,0,-5,-19,-17,-8,-16,-3,4
1501934052642439,-13,-3,-3,26,-7,10,-2,-19
1501934052643428,0,0,-3,-70,0,-3,-1,0
1501934052643428,3,0,6,-40,14,13,-1,1
1501934052656458,-3,-5,-1,34,-11,-10,3,-1
1501934052656458,-2,2,3,44,17,2,-7,-4
1501934052665432,-10,-3,-5,-54,1,-5,4,-10
1501934052665432,8,-1,10,43,-10,-6,-4,5
1501934052680434,7,-4,-17,30,-3,3,0,4
1501934052680434,-8,4,13,95,20,-2,0,4
1501934052680434,-10,-8,-29,-69,-30,2,-7,-42
1501934052680434,-4,-1,13,78,15,-15,-1,-8
1501934052702431,9,-3,-23,-41,-41,23,-5,8
1501934052702431,-9,-4,-11,-56,-13,-7,3,-3
1501934052703420,-2,1,1,-31,4,2,-2,-4
1501934052703420,0,0,7,40,-2,-14,1,9
1501934052716482,-6,0,17,22,14,12,1,-11
1501934052716482,-1,-3,-9,-20,-3,-5,-19,-13
1501934052725434,1,-1,-9,16,-6,-5,19,17
1501934052725434,6,2,6,15,-10,0,-10,-1
1501934052740422,0,4,31,74,20,-2,4,10
1501934052740422,5,2,-4,-55,-25,-2,1,-4
1501934052740422,2,-2,-3,36,17,-2,-4,16
1501934052740422,-2,-2,-11,-69,-16,2,5,2
1501934052762438,-2,-1,-1,-41,-12,-8,-10,-4
1501934052762438,-1,1,-10,16,27,-6,11,-8
1501934052763424,-3,-3,18,21,-21,11,-13,-6
1501934052763424,1,1,4,56,-10,0,9,7
1501934052776497,-4,-2,-12,29,31,6,-1,3
1501934052776497,-2,1,10,-68,-71,-11,-1,-6
1501934052785488,-6,-1,-11,17,10,-5,1,-6
1501934052785488,-3,-2,-9,45,12,8,-8,-6
1501934052800425,-4,0,3,49,5,-6,-5,-10
1501934052800425,1,-1,9,-16,8,3,5,19
1501934052800425,-10,-2,-2,-24,3,-5,-3,-17
1501934052800425,3,-2,-7,-21,-11,2,-4,8
1501934052822438,-5,-2,-1,111,1,-10,-4,-5
1501934052822438,-1,-1,-2,-44,13,-5,0,-3
1501934052823436,11,0,5,33,10,3,-4,16
1501934052823436,-8,-2,5,-46,17,3,5,-12
1501934052836472,12,-5,-4,-8,-14,3,-2,29
1501934052836472,-1,-3,-11,12,1,5,6,-2
1501934052845439,-2,2,2,21,-2,-6,1,4
1501934052845439,-1,1,5,27,12,9,-4,-7
1501934052860460,4,-2,-2,-128,-18,-13,2,2
1501934052860460,-1,-3,-9,124,27,1,-5,-7
1501934052860460,-4,1,9,-84,-10,0,7,15
1501934052860460,-8,-2,-3,74,-3,-10,-14,-43
1501934052882430,3,2,5,-48,-8,-2,-1,8
1501934052882430,1,0,15,40,19,4,4,-7
1501934052883431,1,-3,-3,10,5,-6,-9,-11
1501934052883431,8,3,-4,-57,-4,10,5,28
1501934052896496,-3,0,9,-20,-7,-6,-3,-12
1501934052896496,-5,-2,7,11,7,3,3,9
1501934052912449,10,-4,-31,11,0,-2,0,2
1501934052912449,3,2,5,-63,-13,-7,2,14
1501934052920457,-11,-1,-7,-47,0,10,-2,-7
1501934052920457,-2,5,15,5,34,11,4,-1
1501934052920457,12,-2,12,88,-12,-10,-17,1
1501934052920457,-6,-3,-14,3,-3,0,15,11
1501934052942455,-2,-5,-4,83,-1,-13,-5,-27
1501934052942455,-8,0,-11,-10,0,3,-2,-5
1501934052943441,-5,7,28,98,33,13,2,25
1501934052943441,16,0,-22,-88,-36,-11,-5,-10
1501934052956434,-34,-6,-5,-3,0,-5,-3,4
1501934052956434,7,1,-5,1,-15,8,4,-24
1501934052965453,8,-1,-2,-22,16,1,-2,-8
1501934052965453,1,-2,6,12,2,0,-8,22
1501934052980446,11,7,10,24,17,5,13,2
1501934052980446,-1,-3,-4,21,-13,-2,-5,5
1501934052980446,-19,-3,-9,-128,-38,-10,-2,3
1501934052980446,12,2,20,60,40,-7,1,3
1501934053002454,-1,-4,-4,-96,-29,14,-7,-15
1501934053002454,7,-7,-15,76,0,-13,-5,-42
1501934053003439,2,1,0,58,5,-5,1,25
1501934053003439,-22,-4,-13,-72,-20,1,5,9
1501934053025477,-4,-1,-12,71,26,-4,0,-2
1501934053025477,-2,-4,-10,-53,-37,-10,-8,-1
1501934053026478,-13,2,17,-4,14,6,1,-20
1501934053026478,10,-2,-6,-14,6,4,2,4
1501934053040459,-4,2,7,107,7,-4,0,9
1501934053040459,7,0,1,-74,-12,-4,-6,-10
1501934053040459,-6,-7,-22,53,-2,-5,10,-10
1501934053040459,2,1,15,70,2,5,-21,-26
1501934053062479,21,4,-2,-63,-10,5,12,13
1501934053062479,1,4,17,-17,18,1,3,-19
1501934053063440,-28,-5,-6,-35,3,-1,4,7
1501934053063440,27,-2,4,-15,8,-8,4,-6
1501934053085469,-18,-6,-13,43,2,10,-7,-23
1501934053085469,-5,-2,13,-18,-20,-9,-4,25
1501934053086448,4,-3,-23,-30,-6,0,-5,-51
1501934053086448,-2,1,6,50,30,6,-2,7
1501934053100448,8,1,5,21,-27,-6,8,16
1501934053100448,-5,-4,-10,49,8,-15,-5,10
1501934053100448,-1,-3,-6,9,5,17,1,8
1501934053100448,-11,-2,-18,-35,-43,-10,3,8
1501934053122482,14,0,-1,38,24,2,-9,-23
1501934053122482,-2,2,17,65,5,8,5,32
1501934053123448,20,2,5,-48,-20,-6,-5,45
1501934053123448,-17,-6,-11,-16,2,-1,1,3
1501934053145515,1,0,4,-78,-20,-3,3,3
1501934053145515,-11,-1,-9,-47,17,2,-10,-6
1501934053146445,13,-1,15,41,3,0,0,9
1501934053146445,-23,-5,-9,-17,-21,-11,-14,6
1501934053160448,-2,2,10,-38,4,15,17,5
1501934053160448,5,-2,-14,13,-9,3,-2,23
1501934053160448,8,5,-4,-26,2,-2,2,-24
1501934053160448,-14,1,17,50,25,0,-5,-11
1501934053182492,0,-3,-10,-62,-38,-20,-5,15
1501934053182492,-9,0,-1,32,11,8,-2,-37
1501934053183447,1,5,29,-7,14,2,2,-1
1501934053183447,-2,-5,-11,4,-29,-3,1,-21
1501934053205491,8,3,-7,-67,-2,0,-8,15
1501934053205491,11,3,-5,-128,-22,1,15,26
1501934053206462,-20,-1,33,122,2,-7,-13,-32
1501934053206462,3,0,-4,-36,-1,-5,7,-6
1501934053220450,-2,0,-6,13,9,5,-7,2
1501934053220450,2,1,1,3,27,6,-1,-2
1501934053220450,2,-4,-8,-4,-17,-8,5,10
1501934053220450,21,3,3,-12,11,7,-3,35
1501934053242493,-27,-4,4,-4,-11,-19,-9,-61
1501934053242493,-1,-2,-1,43,27,22,0,5
1501934053243450,-1,-1,-13,-21,17,4,7,2
1501934053243450,1,0,16,120,-5,-5,3,7
1501934053265469,16,-4,-13,-31,-14,-3,-5,2
1501934053265469,-8,-3,-6,7,-4,-16,-11,-7
1501934053265469,0,-3,-24,-11,2,1,7,6
1501934053265469,-7,-4,-6,-85,6,6,-2,-29
1501934053279518,-1,-2,-10,43,5,-2,5,9
1501934053279518,2,0,0,61,-1,-11,-12,-11
1501934053280455,4,1,6,13,-3,13,8,13
1501934053280455,0,-1,16,77,41,3,7,0
1501934053310493,-3,0,-1,-69,-44,-14,-11,3
1501934053310493,0,-4,-5,40,-15,-1,0,6
1501934053311455,-6,1,-2,-54,-10,-2,-7,-16
1501934053311455,-1,-5,-29,-4,-1,0,0,8
1501934053325474,-12,-1,4,96,34,5,-4,-55
1501934053325474,-5,-2,4,22,-12,-11,-8,-12
1501934053325474,0,-1,3,35,1,0,4,-9
1501934053325474,-11,-2,0,-7,-21,-17,-6,-15
1501934053340473,6,1,0,86,32,17,1,25
1501934053340473,-1,2,14,-49,-27,-4,4,4
1501934053340473,0,-4,-9,42,9,-2,-7,-6
1501934053340473,0,-1,-4,-53,-35,-8,-6,-2
1501934053362503,-1,-3,-3,-34,6,4,8,15
1501934053362503,-1,2,4,-51,16,10,9,3
1501934053363458,1,-3,-10,-9,-5,-12,-5,11
1501934053363458,4,1,6,-5,-8,5,-7,-11
1501934053385487,-4,-1,-3,-18,-5,-1,-3,7
1501934053385487,0,-3,-8,47,14,2,3,23
1501934053385487,-2,0,6,-95,-32,-16,-10,-24
1501934053385487,5,-1,-21,-54,12,10,12,9
1501934053400478,3,-2,-2,-22,2,-3,1,6
1501934053400478,-9,-1,-8,-35,3,-9,-3,5
1501934053400478,-1,1,5,23,4,8,-4,-6
1501934053400478,-2,-2,6,-28,7,1,-10,0
1501934053422526,-6,0,-2,-9,-6,0,4,4
1501934053422526,3,-1,-2,-10,-17,-10,-8,2
1501934053423503,8,-1,-10,68,24,-3,13,11
1501934053423503,-9,1,8,-9,-5,8,-1,-9
1501934053445484,3,-1,2,7,2,-8,-2,11
1501934053445484,4,1,-5,39,11,9,0,-3
1501934053445484,-1,-1,3,-32,-21,-6,-11,-7
1501934053445484,-4,-2,-8,-11,-7,5,10,-4
1501934053459529,8,-1,0,10,-5,-11,-11,7
1501934053459529,11,-1,1,3,9,-3,7,27
1501934053460498,-14,0,8,6,1,3,-7,-10
1501934053460498,-3,-1,-12,44,1,-4,-1,-4
1501934053482504,0,1,13,-38,-27,1,1,7
1501934053482504,-6,-3,-15,73,4,-1,-5,-16
1501934053483465,7,0,-1,42,14,-4,1,16
1501934053483465,3,-1,12,-14,-11,5,-5,1
1501934053505485,-6,-2,-2,7,12,7,9,16
1501934053505485,-6,1,-1,-20,8,-1,-2,-60
1501934053505485,-3,4,1,-30,-8,7,5,-7
1501934053505485,1,-2,-8,41,5,-11,-20,8
1501934053520497,49,4,13,94,6,-1,6,50
1501934053520497,-22,-8,-47,-101,-18,-1,12,-21
1501934053520497,-8,1,0,11,26,2,-1,-4
1501934053520497,-5,0,12,-79,-11,-3,4,4
1501934053542537,-5,-2,2,39,2,-2,-10,-35
1501934053542537,8,0,12,47,5,-3,5,48
1501934053543481,3,-3,-31,-82,-26,1,-5,-9
1501934053543481,8,8,31,90,39,10,1,9
1501934053565471,-20,-7,-29,8,-29,-15,-9,-25
1501934053565471,-18,-6,0,-84,-9,-2,-11,-31
1501934053565471,-5,-2,-3,-28,-1,3,-5,-9
1501934053565471,0,2,12,93,18,-3,4,2
1501934053579543,3,0,5,-12,8,8,5,-1
1501934053579543,-10,5,10,60,-7,1,-4,13
1501934053580506,-1,-7,-8,7,-1,-7,0,-6
1501934053580506,-2,-4,-16,3,-22,-4,-13,-16
1501934053602529,8,3,-3,16,24,0,13,-5
1501934053602529,2,-5,-9,65,-16,-4,0,6
1501934053603473,4,4,7,82,4,4,0,5
1501934053603473,-4,-4,-8,-34,-10,-8,0,10
1501934053625493,-14,2,0,8,7,7,-6,-47
1501934053625493,9,-1,3,76,26,-4,-4,20
1501934053625493,-5,-4,-7,-110,-45,-15,-8,-3
1501934053625493,1,-4,-5,-22,-1,4,2,-17
1501934053640474,-5,0,-2,-85,-20,6,-13,11
1501934053640474,11,-2,-1,-39,-16,-20,11,11
1501934053640474,8,-1,6,15,2,14,7,12
1501934053640474,2,0,-4,2,-3,-3,4,22
1501934053662543,-12,-2,3,-8,1,-2,-5,-6
1501934053662543,1,0,2,-41,0,3,-10,-7
1501934053663475,8,-1,-2,33,6,-12,-3,8
1501934053663475,3,0,0,-73,-9,5,6,22
1501934053685499,-13,-3,-8,63,10,4,0,-44
1501934053685499,3,-1,7,-26,-6,-4,-6,-6
1501934053685499,-5,-2,1,31,9,1,2,-6
1501934053685499,-4,-1,-6,-15,-3,2,0,-8
1501934053700483,-4,-2,-2,-21,2,-8,0,15
1501934053700483,3,-1,5,-13,-1,13,-4,2
1501934053700483,-1,-2,5,13,5,0,-1,-2
1501934053700483,1,2,-2,3,-3,-4,-3,-14
1501934053722520,-4,-2,-3,-15,-1,-2,1,16
1501934053722520,-4,0,5,4,-1,-3,-8,-6
1501934053723484,-1,2,-1,-4,4,-1,5,7
1501934053723484,-2,-1,-3,5,-3,-6,-3,-24
1501934053745543,-1,-2,0,-3,1,5,5,8
1501934053745543,2,-1,-2,-20,1,-3,-7,7
1501934053746481,4,-1,-1,2,2,0,-10,6
1501934053746481,-9,-3,-1,5,-4,-1,12,-7
1501934053759527,-6,-2,2,-2,-1,-8,-12,-8
1501934053759527,0,-2,-1,-13,-2,1,2,-5
1501934053767523,-6,-1,1,2,0,1,13,-20
1501934053767523,1,-1,2,13,2,4,-2,4
1501934053782524,1,0,-1,-8,3,-3,-3,8
1501934053782524,-7,-1,-1,-8,-2,1,5,-13
1501934053783484,7,-1,0,2,-2,-3,-4,20
1501934053783484,-1,-1,-1,-3,0,-2,-24,-10
