timestamp,emg1,emg2,emg3,emg4,emg5,emg6,emg7,emg8
1501935701559738,-34,-54,-74,-76,-83,-47,-25,-13
1501935701559738,-2,-1,53,100,8,-4,-2,0
1501935701563737,5,3,-24,-47,-10,3,0,1
1501935701563737,-1,5,6,35,38,17,2,-2
1501935701564776,13,24,97,127,86,23,10,7
1501935701564776,-18,-23,-34,-84,-54,-36,-15,-8
1501935701564776,-4,-5,20,-1,-20,-17,-2,1
1501935701564776,9,8,4,-1,35,15,6,4
1501935701570778,14,21,22,-3,9,16,9,1
1501935701570778,-1,-8,-21,-14,2,2,-2,0
1501935701577741,-5,-1,-2,-9,9,-2,-2,-3
1501935701577741,-5,-10,-46,-118,-89,-21,-6,-2
1501935701590739,4,5,8,-2,3,4,4,0
1501935701590739,8,17,18,72,37,22,9,4
1501935701602751,-6,-3,-16,44,-60,-21,-3,0
1501935701602751,0,8,80,100,57,3,1,1
1501935701605743,-7,-14,-35,-119,-40,-8,-6,-8
1501935701605743,5,5,4,-42,-11,0,4,7
1501935701629785,2,14,66,31,83,19,0,-4
1501935701629785,-7,-23,-82,-74,-27,-7,-6,-8
1501935701667803,-12,-16,8,65,-12,-25,-10,-4
1501935701667803,-2,1,12,-37,18,-5,1,1
1501935701668775,3,2,-13,-11,-2,4,2,3
1501935701668775,9,11,19,-24,25,16,5,1
1501935701668775,-9,-10,-34,56,12,-1,-1,-3
1501935701668775,6,4,2,21,-4,1,-1,5
1501935701669741,3,-4,-13,57,5,-4,-2,-2
1501935701669741,-15,-3,3,-26,3,-7,-2,-12
1501935701680786,5,1,-11,-22,0,2,1,0
1501935701680786,-3,3,-16,-76,-6,0,-1,-5
1501935701687815,-6,-5,-3,-23,0,1,0,1
1501935701687815,6,-3,-16,15,10,10,2,5
1501935701696753,19,36,99,94,69,33,17,10
1501935701696753,-24,-24,0,-12,-37,-37,-20,-11
1501935701710792,1,-1,-8,-49,46,5,1,2
1501935701710792,1,6,49,51,-24,-9,-2,1
1501935701719747,1,3,24,-80,7,5,-1,-3
1501935701719747,2,3,6,106,-19,6,-2,-2
1501935701732814,6,7,-31,-17,48,36,6,-3
1501935701732814,-12,-16,20,111,-40,-33,-10,-2
1501935701741757,2,-1,-14,23,-26,0,1,1
1501935701741757,3,1,8,21,0,6,4,-3
1501935701756756,-4,-7,-5,-72,-33,-10,-2,-3
1501935701756756,1,1,-15,9,23,8,1,-1
1501935701758748,-3,-8,-49,-116,-44,-11,-4,-1
1501935701758748,9,7,23,87,48,18,9,7
1501935701779794,-5,-6,21,26,-10,-20,-8,-5
1501935701779794,-3,0,-27,-50,-28,-3,0,-2
1501935701780752,-3,-1,19,7,-12,-5,0,0
1501935701780752,3,8,45,59,40,12,2,0
1501935701792812,-6,-14,-67,-36,-44,-14,-4,-4
1501935701792812,-1,-3,-19,-16,-1,-4,-6,-6
1501935701801760,-2,1,12,-29,8,3,-2,-2
1501935701801760,0,-1,-9,-79,-13,-8,-2,-1
1501935701816791,0,3,14,103,20,4,0,1
1501935701816791,1,2,6,-105,-67,-9,2,4
1501935701818756,-5,-14,-46,-60,4,-5,-6,-5
1501935701818756,4,2,-18,62,-5,8,1,-2
1501935701839810,-7,-7,3,-39,-37,-13,-4,-2
1501935701839810,-1,-5,-30,10,15,-2,-1,0
1501935701840763,-2,-3,3,43,7,-1,-2,-2
1501935701840763,-3,-2,-10,-40,-25,-1,0,-2
1501935701852801,-1,4,16,-11,-2,-3,-4,-1
1501935701852801,5,4,14,27,46,13,2,0
1501935701861763,-2,-11,-48,-33,-25,-5,-1,-1
1501935701861763,-4,-3,-16,-85,3,-1,-1,-2
1501935701876802,-1,7,41,0,-15,-3,1,5
1501935701876802,-1,0,20,61,22,2,-2,-6
1501935701878770,2,2,-17,8,11,2,-2,-1
1501935701878770,-1,1,2,-1,-31,-6,-1,1
1501935701899805,1,1,37,49,-19,-6,-3,-3
1501935701899805,-1,0,0,-30,-5,2,3,2
1501935701900760,-4,-2,-4,86,-3,-6,-4,0
1501935701900760,1,0,-11,-15,13,0,-1,-1
1501935701912830,-1,2,8,118,14,-2,-1,-2
1501935701912830,-4,-6,9,59,1,-7,-3,-1
1501935701921776,1,1,14,-6,-19,-5,-2,-2
1501935701921776,0,1,0,18,39,12,4,2
1501935701936799,-1,-1,-17,41,-3,-2,-6,1
1501935701936799,-5,-11,-48,-3,-14,-8,-4,-3
1501935701938760,-1,3,38,-13,9,0,0,-2
1501935701938760,0,-5,-34,-13,7,3,1,0
1501935701959808,0,-2,3,-95,0,2,-2,-3
1501935701959808,0,1,0,-38,1,-1,0,0
1501935701960762,4,4,15,74,36,14,5,4
1501935701960762,-1,-3,9,93,-7,-11,-4,-1
1501935701972806,1,5,23,-2,1,3,5,1
1501935701972806,-2,-6,-21,-112,-21,-5,0,5
1501935701981779,-3,0,4,0,-13,-7,-2,-1
1501935701981779,-1,-1,1,-74,14,2,0,-4
1501935701996806,-3,-8,-26,-81,-21,-9,-5,-4
1501935701996806,5,5,5,127,40,17,4,-1
1501935701998763,-3,1,16,-112,-60,-10,-2,2
1501935701998763,1,5,-4,-18,-8,0,2,3
1501935702019813,0,4,15,57,18,2,2,2
1501935702019813,1,-1,-26,-100,-2,8,0,-2
1501935702020765,-4,-5,-15,82,27,0,-4,-3
1501935702020765,-4,-8,-28,-54,-20,-5,-4,-3
1501935702032805,-2,-1,-2,-7,-13,-4,0,-1
1501935702032805,3,8,24,87,23,6,1,-1
1501935702041786,-4,-3,20,55,24,-6,-4,-2
1501935702041786,-4,-5,8,47,-7,-4,-2,-1
1501935702056780,-3,-7,-33,-63,-28,-4,-1,-1
1501935702056780,-4,-1,6,-40,0,-3,-6,-4
1501935702058769,-1,-4,-17,27,-4,-1,-2,-4
1501935702058769,-1,0,2,-29,3,1,1,0
1501935702079770,2,4,12,85,21,6,1,0
1501935702079770,-4,-6,-1,-13,-23,-10,-6,-3
1501935702080795,1,0,-25,-5,-11,5,1,0
1501935702080795,-1,1,7,21,17,-3,-1,-1
1501935702101812,1,1,7,124,32,8,2,-1
1501935702101812,4,11,24,36,-2,0,5,5
1501935702103775,-4,-2,-7,-96,-25,-3,-3,-4
1501935702103775,-5,-4,19,88,1,-7,-9,-8
1501935702116812,3,6,9,31,-6,1,4,5
1501935702116812,-2,-4,1,54,3,-2,-1,0
1501935702118771,-1,-1,-2,-26,-5,1,-3,-3
1501935702118771,1,0,-2,2,5,0,1,0
1501935702139841,-2,-8,-17,-65,17,-2,-2,-4
1501935702139841,1,2,2,-20,6,1,0,1
1501935702140773,4,5,-2,-10,2,6,3,2
1501935702140773,-4,-9,-11,64,1,-3,-3,-2
1501935702161813,0,2,-10,-38,10,2,0,-1
1501935702161813,-2,-5,-4,45,-17,-4,-4,-2
1501935702163773,1,4,3,-36,-2,1,2,4
1501935702163773,2,6,23,25,-6,3,1,0
1501935702176785,-7,-8,5,21,2,-2,-1,-2
1501935702176785,-7,-11,-20,-63,-4,-12,-8,-7
1501935702178775,-2,-2,4,-78,-24,-9,-2,-1
1501935702178775,-2,-2,-34,-120,-21,-5,-2,0
1501935702199844,1,-1,8,-29,-16,1,0,0
1501935702199844,0,-2,-4,-27,-23,-4,-2,1
1501935702200776,-3,-8,-24,-13,4,-1,-3,-2
1501935702200776,10,17,11,38,2,13,7,6
1501935702221815,-18,-27,-21,-99,-44,-31,-14,-8
1501935702221815,3,5,16,56,16,6,3,3
1501935702223776,-1,2,7,41,-28,-5,-2,-2
1501935702223776,3,1,-23,-98,-24,-2,4,5
1501935702236778,0,1,-21,-71,12,5,-3,1
1501935702236778,1,3,17,93,6,1,1,-2
1501935702242842,-4,-6,-10,30,13,-4,-3,-1
1501935702242842,-1,-3,-8,-8,-2,-3,-1,-1
1501935702259826,6,8,18,45,10,3,3,2
1501935702259826,2,-5,-20,-52,8,7,1,0
1501935702260779,3,4,5,-42,-3,4,2,-1
1501935702260779,-9,-14,-2,48,-11,-11,-6,-5
1501935702281823,1,2,4,0,-3,-2,0,-1
1501935702281823,1,2,-11,5,8,0,2,3
1501935702283780,0,1,9,-64,22,4,-1,-4
1501935702283780,3,6,21,115,13,-1,1,1
1501935702295818,-4,-2,1,39,7,-2,-3,-7
1501935702295818,-1,-4,-32,-125,-38,-11,-6,6
1501935702304782,2,2,11,43,34,11,5,-1
1501935702304782,-4,-8,-19,-75,-5,-2,-2,-5
1501935702319849,4,7,4,37,23,6,1,2
1501935702319849,-3,-1,7,82,18,5,0,-9
1501935702320781,-2,-2,-24,-94,-36,-8,-3,1
1501935702320781,-2,-1,26,65,2,-4,-2,0
1501935702341828,-1,-2,-20,55,-1,1,-3,1
1501935702341828,2,1,-6,-62,-22,3,1,0
1501935702343783,-1,1,14,10,23,2,0,1
1501935702343783,-4,0,9,-35,-17,-3,-3,-2
1501935702356784,4,0,-29,17,2,2,1,3
1501935702356784,-2,-1,-4,-104,-34,-3,1,-1
1501935702362824,0,-3,-15,75,17,1,-1,-4
1501935702362824,-1,-1,-9,-85,-17,-5,-2,-1
1501935702379795,2,4,24,-1,1,0,-2,-2
1501935702379795,-1,-1,34,57,16,1,1,-3
1501935702380786,1,-3,-15,80,33,10,2,2
1501935702380786,-4,-6,-9,2,12,-6,-5,-4
1501935702401828,1,3,21,10,-3,4,1,-2
1501935702401828,-5,-3,-6,-2,4,-4,-5,-5
1501935702403788,-2,0,6,47,-13,-6,-2,0
1501935702403788,1,1,-12,9,3,5,1,-2
1501935702416807,-3,-1,16,-36,-2,-7,0,-1
1501935702416807,-1,0,-6,29,18,4,0,0
1501935702422807,-1,0,7,-18,-11,-6,-3,-2
1501935702422807,1,0,-11,30,5,3,-1,-2
1501935702439847,2,3,-6,-85,-35,-3,1,0
1501935702439847,2,0,7,-7,19,5,3,2
1501935702440791,-5,-7,-30,-106,-60,-11,-3,-6
1501935702440791,-4,-4,9,24,8,-3,-2,-2
1501935702461831,-1,-1,-8,-54,-21,0,-2,1
1501935702461831,-3,-5,-42,80,16,-3,-3,-5
1501935702463790,0,1,3,53,18,2,0,0
1501935702463790,-1,0,13,9,-24,-4,-2,1
1501935702476817,1,1,-12,12,11,7,1,-1
1501935702476817,5,9,34,-44,-27,-7,1,4
1501935702482833,-5,-8,-11,127,30,0,-3,-3
1501935702482833,2,6,-4,-49,-21,0,2,2
1501935702499839,-1,1,16,56,3,1,0,0
1501935702499839,-2,-1,3,82,15,0,-2,-1
1501935702500793,0,3,19,-19,-19,-6,0,0
1501935702500793,2,-1,-11,-48,4,8,2,2
1501935702521793,-4,-2,-14,-13,-4,-6,-3,-5
1501935702521793,-3,-5,-17,-66,-7,-7,-4,-3
1501935702523794,0,2,16,59,10,2,-1,1
1501935702523794,3,7,18,94,28,8,4,3
1501935702536815,-5,-14,-29,83,17,-3,-3,-5
1501935702536815,-4,-5,10,-58,-25,-5,-3,-2
1501935702542840,3,5,29,56,-2,3,3,1
1501935702542840,-6,-6,1,-22,-22,-9,-7,-5
1501935702559810,3,4,8,-27,19,7,2,2
1501935702559810,0,2,-1,67,5,1,0,0
1501935702560818,-4,-9,-17,-23,-33,-12,-3,-2
1501935702560818,-1,-1,-7,-49,-8,-3,0,0
1501935702582843,2,3,23,6,-4,1,0,-1
1501935702582843,-6,-8,-15,-117,-25,-7,-5,-4
1501935702583799,1,1,-26,-29,4,2,0,0
1501935702583799,-4,-5,8,1,14,-2,-5,-5
1501935702595838,-1,-1,8,-22,-14,-5,-1,-1
1501935702595838,2,2,7,-2,27,6,1,-1
1501935702604799,3,3,12,56,22,7,0,0
1501935702604799,-3,-7,-14,-96,-33,-9,-4,-2
1501935702619842,-2,-1,21,71,-2,-5,-2,3
1501935702619842,4,6,24,5,38,11,2,-5
1501935702620811,-4,-1,0,-3,-10,-5,-2,-1
1501935702620811,1,-2,5,80,17,4,1,-2
1501935702641864,-8,-8,-26,-73,-11,-11,-6,-2
1501935702641864,1,1,19,102,11,1,-2,1
1501935702643801,-2,-2,-10,40,13,6,1,0
1501935702643801,-1,-2,-16,-64,-26,-4,0,-1
1501935702664875,2,3,-4,69,8,3,2,1
1501935702664875,-2,-3,-18,21,-15,-3,-1,1
1501935702665802,-1,0,4,-1,-9,-5,1,1
1501935702665802,1,6,22,75,16,1,-1,2
1501935702686843,1,-3,2,0,5,0,-3,-2
1501935702686843,-8,-13,-40,5,-24,-12,-3,-8
1501935702688805,1,3,8,22,7,1,1,-1
1501935702688805,-2,-5,-20,-71,-34,-2,0,0
1501935702701818,-2,3,22,-2,0,0,-1,-2
1501935702701818,2,1,1,48,27,8,1,0
1501935702707849,1,1,6,4,-10,-4,-3,-1
1501935702707849,-1,-5,-34,-13,20,1,-2,-1
1501935702724875,-2,-4,10,106,25,6,1,-3
1501935702724875,-4,-5,-40,4,-51,-13,-4,3
1501935702725805,-1,2,7,11,13,-4,-2,-2
1501935702725805,-5,-9,-53,-54,-31,-4,-2,1
1501935702746815,-1,-2,-9,-31,12,0,-3,-7
1501935702746815,1,3,21,-39,12,7,2,1
1501935702748809,-1,-1,-7,-29,1,1,0,-1
1501935702748809,1,3,16,77,14,-3,1,1
1501935702761833,-1,-1,6,-32,-32,-6,-1,0
1501935702761833,-2,-1,-8,-7,-3,-4,-1,0
1501935702767848,-3,-4,-7,-71,-28,-1,-5,-8
1501935702767848,0,3,31,17,18,1,1,-2
1501935702784889,4,5,8,-24,1,4,0,0
1501935702784889,1,1,7,-64,-15,-4,-2,1
1501935702785811,-3,-4,1,37,19,0,-2,-1
1501935702785811,-1,-1,4,-44,8,4,1,0
1501935702806827,1,3,8,80,-2,0,0,0
1501935702806827,-3,-1,-4,1,-2,-6,-3,-3
1501935702808812,-4,-8,-26,-62,-21,3,-3,-4
1501935702808812,2,1,13,52,1,-3,-3,7
1501935702821842,2,0,-5,-30,6,1,1,-2
1501935702821842,-6,-3,-7,-91,-4,-4,-4,-1
1501935702827875,0,0,24,46,10,1,0,-1
1501935702827875,3,6,6,107,20,5,0,-2
1501935702844887,-5,-7,-29,-89,-24,-4,-2,-1
1501935702844887,4,1,19,45,10,8,1,-2
1501935702845815,-4,-4,-8,-117,-20,-12,-3,0
1501935702845815,-1,-2,-26,-23,0,3,1,-2
1501935702866853,3,5,14,44,13,-1,0,3
1501935702866853,-4,-6,-5,7,9,-2,-2,-6
1501935702868814,1,-3,-43,52,2,2,0,3
1501935702868814,-1,-3,9,7,-17,-5,-2,-5
1501935702880857,-6,0,-5,-11,8,-1,-2,-7
1501935702880857,-2,-2,16,80,7,-9,-3,3
1501935702887876,0,3,4,-7,2,10,3,0
1501935702887876,2,1,19,77,26,0,0,-2
1501935702904819,-1,4,-1,-35,-16,-2,-1,3
1501935702904819,2,1,2,36,-8,-1,0,-1
1501935702905816,4,0,-14,-62,-11,-2,0,2
1501935702905816,-5,-6,9,13,9,2,-3,-5
1501935702926859,1,2,4,-64,-21,-2,3,1
1501935702926859,-2,0,-12,49,0,1,-1,-1
1501935702928817,-3,0,22,64,11,-9,-3,-1
1501935702928817,-3,-4,-15,-107,-20,-7,-3,4
1501935702940851,0,-2,22,112,9,-1,-1,-3
1501935702940851,6,6,7,-21,-7,4,4,3
1501935702947880,-10,-15,-25,-14,-12,-13,-6,-7
1501935702947880,0,4,1,-18,-15,0,0,3
1501935702964874,-1,-4,-18,39,4,-1,-3,-5
1501935702964874,-2,-1,-4,-60,-10,-3,-1,0
1501935702965819,1,2,8,95,34,7,1,1
1501935702965819,-4,-6,-4,-54,-23,-9,-1,-2
1501935702986861,-1,-3,-8,-42,18,7,1,0
1501935702986861,-1,-3,-9,-2,-1,-5,-3,-2
1501935702988829,9,8,11,-28,4,0,2,1
1501935702988829,-10,-8,-22,-18,10,2,-4,-3
1501935703000858,3,2,6,42,1,4,3,5
1501935703000858,-3,-4,-30,-39,1,1,0,-4
1501935703007866,5,4,18,14,1,6,3,3
1501935703007866,1,2,14,16,-13,-5,-2,-1
1501935703024868,-4,-6,-1,-30,-3,-6,-4,-2
1501935703024868,-2,3,8,9,-12,-5,-2,2
1501935703025821,-2,-2,-22,-26,3,2,-1,-2
1501935703025821,3,3,18,59,6,1,-1,-3
1501935703046888,-3,-4,2,33,-2,-1,-1,-1
1501935703046888,0,-2,26,70,11,0,-1,0
1501935703048825,-8,-8,-9,-40,-3,-7,-5,-6
1501935703048825,0,3,9,112,38,6,2,-1
1501935703060868,1,-1,-11,-128,-64,-7,0,2
1501935703060868,-2,-3,-10,-110,-5,0,-5,1
1501935703069825,-3,-2,12,14,3,0,-1,-3
1501935703069825,1,0,-9,-52,-8,-6,-1,-1
1501935703084899,0,-1,-3,39,6,2,-1,-2
1501935703084899,4,4,-8,-28,-1,4,2,1
1501935703085827,-1,2,1,-69,-14,-1,-1,3
1501935703085827,-7,-12,-44,-37,-5,-9,-3,-5
1501935703106842,-2,-3,-3,-60,-1,3,0,-3
1501935703106842,0,2,7,-23,-14,-1,2,-1
1501935703108829,0,-4,-6,14,-5,-2,-2,0
1501935703108829,0,3,15,15,-6,-3,0,1
1501935703120871,-2,-4,-5,24,4,-5,-3,-1
1501935703120871,1,-1,1,35,12,2,0,-2
1501935703129829,-1,3,23,2,-10,-3,-1,-1
1501935703129829,3,2,0,-29,6,7,2,0
1501935703144863,0,1,4,66,33,0,-3,-1
1501935703144863,-5,-9,-31,-33,-5,1,-3,-5
1501935703145830,1,3,20,-4,-2,-6,-1,0
1501935703145830,0,-4,-5,39,4,2,0,-1
1501935703166876,-1,-2,-6,-75,-10,-4,-1,-1
1501935703166876,0,0,5,51,2,-1,0,-1
1501935703168839,2,1,-13,-34,8,7,1,4
1501935703168839,-3,-2,1,-3,5,-2,-2,-3
1501935703180872,1,1,17,100,35,5,0,-1
1501935703180872,0,-2,-24,-44,-35,-6,0,3
1501935703189833,-3,-8,-13,70,-5,-5,-3,-2
1501935703189833,3,5,3,-59,-10,0,0,2
1501935703204849,-2,-5,-39,72,6,-2,-2,-2
1501935703204849,0,1,-3,-57,-9,-3,-2,1
1501935703205835,1,5,20,37,11,8,1,-2
1501935703205835,-5,-8,-12,55,-2,-6,-3,-2
1501935703226885,1,2,-6,-37,-2,-2,0,-1
1501935703226885,0,3,25,22,18,3,-1,1
1501935703228833,-1,1,-9,-45,-9,-4,1,-1
1501935703228833,1,3,23,36,3,5,-2,0
1501935703240837,-2,-5,-35,-47,-16,-2,-1,0
1501935703240837,-1,2,28,35,10,4,2,-2
1501935703249836,-4,-10,-23,-2,5,-2,-4,-5
1501935703249836,-3,0,4,21,-7,-5,-3,-2
1501935703264874,0,0,7,15,-6,-1,0,1
1501935703264874,0,-2,6,82,17,1,-1,-3
1501935703265837,-4,-6,-28,-33,-29,-9,-4,1
1501935703265837,0,1,10,41,-8,5,1,1
1501935703286910,3,7,17,-64,-23,0,4,1
1501935703286910,-2,-5,-29,22,7,-1,-1,-5
1501935703288837,1,1,18,-57,14,2,1,-2
1501935703288837,-1,0,-6,-14,3,-3,0,1
1501935703300881,2,-2,-8,14,18,4,-1,8
1501935703300881,-5,0,17,22,-47,-14,-5,-19
1501935703309839,-2,-3,-6,-50,10,1,0,-3
1501935703309839,0,0,10,-87,-17,-1,-2,-3
1501935703324869,0,1,8,42,2,-1,-2,-4
1501935703324869,2,0,-10,-53,-1,2,3,8
1501935703325841,-4,-3,11,126,16,-1,-4,-3
1501935703325841,1,0,-19,-101,-37,-5,1,1
1501935703346909,-5,-5,1,68,-1,-7,-3,0
1501935703346909,-2,-4,7,-28,1,1,-2,1
1501935703348843,1,5,12,-13,6,1,1,-1
1501935703348843,-1,-2,0,70,23,0,-3,0
1501935703360907,-2,-2,-2,-49,-13,-2,-1,-3
1501935703360907,-1,2,-12,-35,13,3,2,2
1501935703369844,0,4,28,-35,-3,3,-1,-1
1501935703369844,-3,-5,-12,25,24,-1,-3,-3
1501935703384899,-1,-1,0,23,-4,-3,-2,-2
1501935703384899,-2,-2,27,92,29,0,-5,-3
1501935703385842,1,0,-17,-15,-8,0,1,3
1501935703385842,2,1,-5,74,-3,3,2,1
1501935703406864,-2,-2,6,24,-16,-8,-3,-4
1501935703406864,2,2,6,47,30,9,2,4
1501935703408844,3,4,5,-6,6,2,3,0
1501935703408844,-5,-5,5,-53,-11,-8,-5,-5
1501935703420892,0,-3,-31,0,18,4,1,-3
1501935703420892,1,2,11,19,-16,0,0,1
1501935703429847,-6,-5,16,-6,-10,-10,-3,-1
1501935703429847,-2,-7,-32,-21,-2,5,1,-1
1501935703444899,0,3,6,-89,7,-3,-1,-1
1501935703444899,-1,0,-1,65,5,-2,-2,1
1501935703445847,-4,-6,-5,-38,-31,-4,-2,-3
1501935703445847,2,3,17,127,18,3,1,3
1501935703466886,-4,-4,-7,-23,-19,-3,-2,-2
1501935703466886,1,-2,-3,-20,-7,-5,-2,0
1501935703468849,2,-5,-46,-7,-13,-1,0,2
1501935703468849,1,5,16,-29,10,2,-1,-1
1501935703480896,-2,-4,-2,70,14,5,-1,-4
1501935703480896,-3,-3,-22,-26,-26,-10,-2,0
1501935703489850,-4,-4,6,99,10,0,-2,-1
1501935703489850,0,-1,2,-28,2,1,-2,-2
1501935703504863,-2,-5,-25,-42,-1,-4,-1,-1
1501935703504863,0,3,16,40,5,4,0,1
1501935703505862,0,1,-5,-68,-7,-1,0,0
1501935703505862,-3,-5,-14,42,-1,-6,-3,-2
1501935703526915,-3,0,16,-66,-1,3,-1,-2
1501935703526915,0,-2,4,36,-12,-4,-1,0
1501935703528851,1,0,18,73,9,0,0,-1
1501935703528851,-1,-3,-20,-57,-21,-6,-3,-2
1501935703549863,0,-2,-37,-79,-14,8,1,0
1501935703549863,-1,-1,12,44,8,0,-1,-2
1501935703550853,-2,1,1,-8,-3,0,0,1
1501935703550853,0,1,13,12,7,1,2,1
1501935703564867,-1,2,27,53,-19,-6,-1,1
1501935703564867,-3,-4,-21,-87,-7,-1,-2,-2
1501935703565855,1,3,5,-22,4,1,1,0
1501935703565855,0,1,19,21,2,0,-1,0
1501935703586898,0,0,1,-33,-10,-4,-1,0
1501935703586898,-1,-3,-6,-27,-5,2,1,0
1501935703588856,0,0,-9,39,5,-2,0,-1
1501935703588856,-2,1,12,-26,-8,0,2,0
1501935703609871,0,0,14,14,3,1,0,-1
1501935703609871,1,4,-2,-46,21,6,0,-1
1501935703610875,-4,-8,4,58,-6,-12,-5,-2
1501935703610875,0,1,-1,3,2,7,2,0
1501935703624900,-2,0,7,59,10,-1,-1,-1
1501935703624900,-1,0,-10,-96,-24,-2,1,-1
1501935703625857,0,-1,4,-30,0,0,-1,0
1501935703625857,1,-1,-18,-40,-7,-3,-2,0
1501935703646900,2,5,27,24,-14,-4,-2,0
1501935703646900,-3,-5,-7,72,19,1,0,-2
1501935703648867,-3,-6,-23,17,-9,-5,-3,-3
1501935703648867,-2,-1,-6,-25,-23,-7,-2,1
1501935703669874,5,4,12,48,19,6,0,-2
1501935703669874,-4,-7,-14,-21,-18,-7,-4,-3
1501935703670859,0,1,-2,56,9,6,1,0
1501935703670859,0,2,2,-26,-2,-3,0,-2
1501935703683902,-4,-3,-2,17,7,-8,-3,0
1501935703683902,-1,-1,1,38,3,-2,-1,0
1501935703690900,1,-1,-14,1,-3,1,1,1
1501935703690900,0,0,-7,-46,2,-3,-4,-2
1501935703706880,-4,-4,-1,39,8,-1,-1,-2
1501935703706880,2,4,4,-38,-7,0,2,1
1501935703708871,-1,-1,-6,-45,-1,-1,-2,-1
1501935703708871,4,6,24,-3,7,4,2,0
1501935703729878,-5,-8,-13,91,10,-3,-4,-3
1501935703729878,1,-1,-10,6,8,2,-1,-1
1501935703730864,0,2,4,20,-2,-5,-1,1
1501935703730864,0,-2,6,38,9,0,-2,-1
1501935703743895,3,6,19,-71,7,11,2,1
1501935703743895,-1,2,6,-27,-29,-5,-1,0
1501935703750907,-4,-5,-18,-25,3,-1,-2,-4
1501935703750907,-3,-4,-16,-10,-12,-2,-1,-1
1501935703766904,0,0,-8,-47,-9,-2,-1,-1
1501935703766904,0,4,21,85,5,-1,1,1
1501935703768874,-1,-2,-16,2,7,-2,-3,0
1501935703768874,-1,0,6,62,25,2,-1,-2
1501935703789882,-1,-6,-7,-25,-13,-3,-2,-2
1501935703789882,-3,-2,-7,-31,-13,-2,-2,-1
1501935703790868,0,3,17,0,-5,-2,0,0
1501935703790868,-2,-4,-9,-4,11,5,1,-3
1501935703803896,-2,2,-4,1,-2,-2,-2,1
1501935703803896,-2,-2,18,45,16,1,-2,0
1501935703810909,-2,-3,-2,-62,-20,-3,-2,-1
1501935703810909,2,5,22,26,22,2,1,-1
1501935703826911,-1,-6,-18,3,-11,-2,1,-2
1501935703826911,-3,-4,-3,-26,12,-6,-6,-5
1501935703828867,0,1,2,-2,-20,1,1,-2
1501935703828867,-1,-2,-6,-37,-15,-5,0,1
1501935703849885,0,1,9,39,-5,1,1,1
1501935703849885,4,1,-10,-15,6,7,2,1
1501935703850876,-5,-3,15,-21,6,-7,-5,-3
1501935703850876,-2,-4,-17,23,-12,-2,-1,-1
1501935703863917,0,0,5,-33,3,0,1,-2
1501935703863917,-1,-1,-5,-19,1,1,-1,-3
1501935703870871,0,3,16,51,31,6,0,0
1501935703870871,-1,-3,-16,-23,-21,-9,-1,1
1501935703886913,0,1,10,46,1,2,-1,-1
1501935703886913,1,0,11,-16,-2,-2,1,2
1501935703888904,-3,-3,-15,18,-8,-2,0,-1
1501935703888904,-1,3,8,-9,11,1,-1,0
1501935703909909,-4,-6,-7,31,6,-4,-3,-2
1501935703909909,-3,-3,-3,73,8,-1,0,-2
1501935703910874,2,1,-4,-81,-40,5,3,2
1501935703910874,-2,1,-4,-28,-5,1,1,0
1501935703923877,-2,-3,-7,40,10,-3,-5,-3
1501935703923877,-2,-3,-15,-93,-14,-7,-3,-2
1501935703930887,0,2,8,-19,11,1,1,-2
1501935703930887,-5,-3,11,56,3,-2,-2,-3
1501935703946908,0,1,-9,-33,-7,2,3,1
1501935703946908,-4,-8,-18,56,16,-4,-3,-3
1501935703948875,0,0,2,8,0,-4,-2,-1
1501935703948875,-1,-1,2,32,5,1,-2,-1
1501935703969889,-2,0,-9,-93,-48,-10,-3,-1
1501935703969889,-2,1,-24,-48,0,2,1,2
1501935703970878,2,2,3,-29,0,4,-1,-2
1501935703970878,-2,-3,3,35,-9,-6,-3,-1
1501935703983907,-1,-5,-28,-31,2,0,-1,-4
1501935703983907,2,1,17,13,-5,1,0,-1
1501935703990879,-2,-5,-23,10,-11,-5,-3,-2
1501935703990879,-1,-2,-1,-74,-2,3,0,-4
1501935704006880,-1,2,28,56,9,-3,-1,2
1501935704006880,-2,-4,-7,-30,-9,-1,-1,-2
1501935704008880,-1,-2,3,80,7,-3,-2,-2
1501935704008880,-2,-1,6,-55,-3,0,-3,-2
1501935704029881,0,1,-2,-88,-6,1,3,0
1501935704029881,-4,-6,3,64,-4,-8,-3,-1
1501935704030879,-2,-2,-21,-18,1,0,-1,1
1501935704030879,-2,-4,-17,-9,-2,-4,-2,-2
1501935704042916,1,2,11,14,10,3,-2,-1
1501935704042916,-2,0,3,42,3,-4,-1,-2
1501935704051891,1,4,13,19,7,3,1,2
1501935704051891,-2,-3,3,-13,-15,-6,-1,-1
1501935704066891,-2,-1,-5,53,5,-1,-1,-1
1501935704066891,0,1,4,45,-2,-3,-2,-1
1501935704068882,0,-2,0,-39,-1,-3,-2,1
1501935704068882,-1,-1,-16,103,0,2,-1,0
1501935704089904,0,-1,-2,-50,-13,-1,1,0
1501935704089904,-1,-2,-6,-82,-9,1,-1,0
1501935704090888,-1,-1,1,-20,-5,-4,1,-1
1501935704090888,-1,0,9,28,5,-1,0,0
1501935704102926,2,-1,-14,23,4,0,-3,-2
1501935704102926,-1,-1,15,36,-3,-2,0,-1
1501935704111925,1,1,2,-24,3,1,-1,-2
1501935704111925,-3,-6,2,52,-1,-4,-2,-4
1501935704126930,1,4,23,13,13,0,-1,0
1501935704126930,-1,-4,-29,-20,7,0,-1,0
1501935704128886,-2,-4,-21,-51,-5,0,-1,-3
1501935704128886,1,2,-7,-45,5,2,-2,-1
1501935704149898,-3,-3,-1,91,6,-2,-1,-2
1501935704149898,-1,-1,-1,-45,1,0,-1,-2
1501935704150911,-1,-1,8,9,-16,-5,-3,-1
1501935704150911,1,3,4,8,-4,0,0,1
1501935704162928,-4,-10,-23,61,12,-5,-5,-5
1501935704162928,-2,1,8,-43,0,5,0,-2
1501935704171929,1,5,32,122,12,1,0,-1
1501935704171929,-3,-3,-2,2,-9,-7,-1,0
1501935704186931,0,0,-9,-20,-11,-1,0,1
1501935704186931,0,0,8,36,7,-3,-2,-1
1501935704188931,-2,-3,-3,-26,4,1,-1,-3
1501935704188931,0,4,12,-12,-18,-2,0,3
1501935704209906,-1,-1,-3,-58,-6,-2,0,-1
1501935704209906,0,4,6,22,-2,1,1,0
1501935704210892,-1,-2,-7,-25,-2,2,0,-1
1501935704210892,0,-1,-19,-102,-2,0,-1,-3
1501935704222911,-2,-1,7,38,2,-4,-2,0
1501935704222911,0,0,2,-62,-1,0,0,-1
1501935704231924,3,4,17,41,17,5,1,1
1501935704231924,-5,-9,-31,3,-4,-7,-2,-1
1501935704246940,0,2,1,-45,-11,3,1,0
1501935704246940,-1,0,2,82,7,-4,-1,-1
1501935704248893,-2,-1,-4,-17,13,-1,-2,-1
1501935704248893,2,1,4,-3,8,5,1,-3
1501935704269928,-1,0,4,18,-11,-1,0,1
1501935704269928,-3,-5,-13,18,9,2,-1,1
1501935704270902,-3,-2,-7,11,-16,-4,-2,1
1501935704270902,0,0,6,92,23,2,1,-1
1501935704282961,0,-2,-19,-60,-10,-2,-1,1
1501935704282961,1,1,1,-36,2,-1,1,0
1501935704291939,-1,-4,-4,52,-9,-2,-2,-1
1501935704291939,0,0,3,-5,4,2,0,-1
1501935704306927,0,3,18,29,11,2,-1,-1
1501935704306927,-1,0,-1,-56,-7,-2,-1,1
1501935704308906,-2,-2,-10,26,-8,-2,-1,0
1501935704308906,-4,-8,8,-25,-9,-7,-6,-2
1501935704329928,-2,0,7,14,2,-2,0,-1
1501935704329928,0,2,0,-51,-15,1,-1,1
1501935704330926,-1,-4,-9,48,2,-3,0,-1
1501935704330926,-2,-4,-15,13,2,2,-2,-2
1501935704342958,-4,-4,-18,-56,0,-5,-2,-2
1501935704342958,-2,-2,9,69,3,0,-1,0
1501935704351905,-3,-5,-5,-22,-15,-4,-2,-2
1501935704351905,3,4,3,-20,-3,3,2,0
1501935704365940,-1,0,3,22,7,1,-2,0
1501935704365940,-1,-2,0,-28,4,0,-2,-4
1501935704374900,-4,-5,-15,-20,8,-5,-2,-1
1501935704374900,0,1,0,-3,5,0,0,-2
1501935704389913,2,1,11,74,5,4,0,-2
1501935704389913,0,1,1,-16,5,0,-1,-3
1501935704390913,-1,1,-4,-1,10,1,-1,-1
1501935704390913,-3,-3,0,-41,-21,-8,0,0
1501935704402970,-1,0,-7,-14,0,1,1,-1
1501935704402970,1,0,-5,-69,-14,2,1,1
1501935704411941,-1,-1,16,35,15,0,-4,-4
1501935704411941,1,1,-10,23,-2,-6,0,0
1501935704426968,-2,-1,5,33,-5,-4,-3,-2
1501935704426968,-2,-3,14,-13,16,-1,-1,-2
1501935704428943,1,1,9,63,-9,1,-1,-3
1501935704428943,0,-2,-29,-76,-7,0,-2,0
1501935704449933,-2,-4,8,-8,-9,-7,-3,0
1501935704449933,0,-1,-1,21,2,-1,-2,-3
1501935704450909,-1,3,15,-20,0,0,0,1
1501935704450909,0,-1,2,33,-5,-3,-3,-3
1501935704471946,-3,-3,-2,-1,15,1,-4,-2
1501935704471946,0,1,0,39,1,4,2,2
1501935704473939,-2,-2,-22,-19,7,-2,1,-1
1501935704473939,4,6,12,-25,-31,2,1,3
1501935704486973,-1,1,15,38,14,-5,-1,-1
1501935704486973,-4,-9,-13,14,-13,-7,-2,-4
1501935704488908,-1,-1,-3,-37,5,1,-3,-3
1501935704488908,1,0,1,25,17,5,0,-1
1501935704509918,0,-2,-10,-63,-26,-1,0,-1
1501935704509918,1,4,15,124,10,-2,-2,1
1501935704510906,2,2,0,-98,-22,0,2,2
1501935704510906,-5,-7,-19,7,0,-2,-1,-2
1501935704531952,1,1,6,19,-5,3,1,5
1501935704531952,-1,-2,-9,84,-2,-1,-1,-6
1501935704533910,1,3,10,-79,-11,-1,0,0
1501935704533910,-1,2,8,26,8,1,0,-1
1501935704546972,-1,-1,-4,-15,-4,-1,1,0
1501935704546972,-1,-3,-9,-30,-5,1,-3,-2
1501935704548945,0,0,3,16,9,1,0,0
1501935704548945,2,0,-3,-2,18,3,0,-1
1501935704569922,-5,-8,-8,-19,-7,-9,-4,-4
1501935704569922,1,2,0,-25,-9,0,-1,1
1501935704570917,-3,-5,-4,38,-12,-7,-3,-3
1501935704570917,0,3,9,31,22,3,-2,-1
1501935704591977,3,3,-4,-24,-2,1,0,0
1501935704591977,-4,-2,10,50,-6,-9,-4,-1
1501935704593947,0,-3,-9,3,15,5,1,0
1501935704593947,-4,-5,-15,21,-21,-7,-4,-2
1501935704605959,1,1,0,-42,4,4,2,-1
1501935704605959,-3,-6,-22,-57,-13,-2,0,-2
1501935704612955,1,3,10,25,11,3,1,-1
1501935704612955,-1,-2,11,35,-3,-3,-2,-1
1501935704629940,1,3,3,20,2,3,-1,-1
1501935704629940,0,-1,-14,-53,-10,-2,-1,0
1501935704630946,1,4,17,-50,-3,1,-1,0
1501935704630946,-3,-4,-6,-16,4,0,-1,-3
1501935704651959,0,0,2,57,3,2,-4,-1
1501935704651959,-2,1,-37,-101,-6,-2,0,2
1501935704653916,-3,-2,8,75,-5,-3,-1,0
1501935704653916,0,-1,6,-1,1,-5,-2,1
1501935704665961,0,0,2,25,13,0,-3,-3
1501935704665961,0,1,11,71,16,2,1,0
1501935704672916,-2,-3,-9,-1,-8,-2,-3,0
1501935704672916,-1,-1,1,-20,10,4,0,-2
1501935704689943,1,3,9,-82,-11,1,2,1
1501935704689943,-1,-1,18,7,29,0,-2,-3
1501935704690926,-2,-3,-10,8,-17,-7,-2,-2
1501935704690926,3,4,8,25,10,5,1,1
1501935704711961,-2,-5,7,51,6,-2,0,-1
1501935704711961,2,2,-3,-61,-3,3,0,0
1501935704713921,0,-2,7,-16,-4,-3,-2,-1
1501935704713921,-1,-2,4,24,-6,-2,0,0
1501935704725962,-3,-1,-7,25,9,1,0,-3
1501935704725962,-1,2,16,38,-9,-3,-2,1
1501935704732962,-3,-4,-13,-34,-5,-4,-4,-4
1501935704732962,0,-1,-12,29,2,1,-1,-1
1501935704749932,-1,4,4,-41,-22,-2,0,2
1501935704749932,-1,-2,4,36,-1,-1,-3,-1
1501935704750930,0,-3,-22,-93,-2,2,0,-1
1501935704750930,-2,1,-4,2,2,0,-1,-1
1501935704771973,-2,-3,14,63,14,-3,-2,-3
1501935704771973,-1,0,-4,35,-4,-4,-2,1
1501935704773932,0,0,-8,-57,-7,2,2,1
1501935704773932,-3,-3,-7,-30,-12,-8,-3,0
1501935704785965,-4,-7,11,43,12,-3,-2,-2
1501935704785965,0,2,4,-5,-5,2,0,1
1501935704792964,0,2,24,95,22,2,-1,-3
1501935704792964,-1,-5,-13,-32,-9,-5,0,-1
1501935704809953,-2,-1,-32,-98,-24,-4,-2,-1
1501935704809953,-1,-2,7,4,3,-1,-3,-2
1501935704810924,2,6,24,70,8,0,1,-1
1501935704810924,-4,-5,-32,-65,-10,0,0,-3
1501935704831967,-3,-5,15,59,9,-4,-4,-4
1501935704831967,1,-1,-14,-22,-14,-8,-1,-1
1501935704833961,1,1,-1,-39,0,3,0,-1
1501935704833961,1,2,22,-9,8,-2,1,1
1501935704845967,0,-3,-9,5,13,2,-1,-1
1501935704845967,-1,-2,9,-13,-10,-2,-1,-2
1501935704852971,-1,-1,-27,12,3,7,0,0
1501935704852971,-3,-4,-18,-32,-13,-6,-3,-5
1501935704869939,-1,0,-1,-8,-7,-8,-1,1
1501935704869939,-1,1,10,79,18,6,0,-1
1501935704870938,-2,-2,-6,-12,-5,-5,-2,1
1501935704870938,-1,0,16,87,-3,4,2,1
1501935704891993,1,0,-2,-26,-27,-2,1,1
1501935704891993,-1,1,23,44,11,3,-1,-2
1501935704893929,-3,-4,-14,-12,-3,-5,0,0
1501935704893929,0,3,8,-67,-13,-1,-1,2
1501935704905974,2,3,3,15,4,3,0,-2
1501935704905974,-3,-6,-6,-66,-17,-3,-1,-1
1501935704912977,1,-1,11,19,-4,-5,-2,-2
1501935704912977,-2,-4,1,-14,-5,-2,-3,-2
1501935704928992,0,0,9,56,4,5,2,0
1501935704928992,1,-1,-10,-35,5,1,1,0
1501935704930940,-3,-3,2,34,0,-4,-3,-2
1501935704930940,-1,-1,-12,-16,6,-2,-1,-1
1501935704951974,-2,-4,1,1,1,-2,-4,-1
1501935704951974,0,-3,-14,39,6,-1,0,0
1501935704953942,-1,-1,3,-28,-16,-4,-2,-3
1501935704953942,0,3,3,12,6,1,-1,-1
1501935704965944,0,-3,-13,-53,-1,0,-2,-3
1501935704965944,1,4,-2,23,-21,-2,1,2
1501935704974937,-4,-8,-18,-14,-4,-4,-4,-1
1501935704974937,-3,0,24,102,9,2,0,-1
1501935704989008,2,5,-10,-105,-10,-3,2,1
1501935704989008,-6,-6,-21,16,2,-5,-3,-4
1501935704990944,-1,-1,-2,-13,-5,1,0,0
1501935704990944,1,3,18,35,8,-2,-1,-3
1501935705011956,-2,-3,-13,40,-9,-2,1,2
1501935705011956,1,0,13,10,14,1,0,0
1501935705013971,-4,-4,-14,-68,-20,-3,-2,0
1501935705013971,0,2,15,27,3,2,0,1
1501935705025974,-1,-4,-19,-63,-11,-3,-2,-1
1501935705025974,1,-1,2,50,6,2,1,2
1501935705034938,-2,-6,-34,28,5,0,-1,-2
1501935705034938,0,1,0,-100,-15,-3,-1,-1
1501935705049955,-1,-2,-7,-99,-6,2,-3,-2
1501935705049955,-5,-7,-18,6,4,-5,-5,-3
1501935705050947,-2,1,24,10,-12,-1,1,-1
1501935705050947,1,-1,-1,32,2,-2,0,0
1501935705071981,0,0,-11,-3,10,4,-1,-2
1501935705071981,1,1,5,-42,-8,-1,1,0
1501935705073960,-4,-2,17,-11,5,-8,-2,-1
1501935705073960,-3,-4,-20,9,2,-2,-2,-3
1501935705085976,-1,1,9,98,7,2,1,0
1501935705085976,2,3,-12,-97,-14,-4,-1,0
1501935705094942,1,-3,-1,62,6,-2,-2,0
1501935705094942,-2,-2,-2,-13,-4,-3,-1,0
1501935705108983,1,0,2,-36,-8,-6,-1,0
1501935705108983,0,2,14,21,2,2,0,0
1501935705110975,3,5,3,-60,4,7,3,2
1501935705110975,-2,-1,12,20,-3,-3,-2,-2
1501935705132013,-1,-1,3,55,6,-1,1,0
1501935705132013,1,3,-1,-67,-9,0,1,-2
1501935705133943,-1,-2,-23,19,-28,-2,-1,0
1501935705133943,-3,-6,-9,5,11,1,-2,-2
1501935705145995,-1,-3,-2,44,11,2,-1,-2
1501935705145995,-1,0,13,12,-14,-5,-1,-1
1501935705154945,0,-1,-10,6,12,1,-1,-1
1501935705154945,2,0,2,28,3,3,2,0
1501935705168961,-1,0,6,9,-14,0,-2,-1
1501935705168961,-3,-5,-10,30,-9,-5,-1,-1
1501935705170945,0,-1,0,-4,11,-1,-2,-2
1501935705170945,-1,-1,-5,9,-3,-4,-2,0
1501935705192012,4,3,31,72,13,3,1,-3
1501935705192012,-5,-6,-7,10,4,4,0,-2
1501935705193949,0,3,14,-5,-14,-4,1,1
1501935705193949,-3,-4,-18,-22,-5,-1,1,0
1501935705205958,-2,-4,0,63,14,-2,-3,-2
1501935705205958,-1,-1,-2,-8,-13,-1,-2,-2
1501935705214948,2,6,27,8,19,2,1,0
1501935705214948,-2,-4,-16,30,4,-2,-2,-2
1501935705228988,-2,0,-3,-43,-14,-4,-1,-1
1501935705228988,1,-2,-17,-46,8,-1,0,3
1501935705230949,-6,-1,-6,-66,-3,-1,-3,-13
1501935705230949,1,4,23,-33,-4,-2,0,-2
1501935705251992,-5,-7,-26,12,0,-3,-1,0
1501935705251992,-1,-2,-23,-82,-32,-5,-3,-1
1501935705253950,-1,-2,2,31,3,0,-1,3
1501935705253950,0,0,2,-30,-3,3,0,0
1501935705265965,1,1,3,3,0,0,0,-2
1501935705265965,-2,-5,-11,-1,5,-2,-3,-3
1501935705274951,2,-1,1,46,-5,-4,0,2
1501935705274951,-2,2,-4,-30,-15,-9,-2,-3
1501935705289000,-2,-2,0,34,5,8,-1,-1
1501935705289000,0,1,-2,-54,-17,-1,1,0
1501935705290952,-2,1,10,0,1,0,-1,-1
1501935705290952,-4,-4,-1,-46,3,-3,-3,-2
1501935705312016,1,2,4,-22,4,-4,-1,0
1501935705312016,2,4,15,53,10,3,0,0
1501935705313955,0,0,-3,-44,5,4,0,-1
1501935705313955,-2,0,10,4,-10,-7,-3,2
1501935705325975,0,-2,-9,-19,2,-3,-2,-2
1501935705325975,-3,1,21,49,2,0,-2,-2
1501935705334956,3,0,3,48,18,6,2,-1
1501935705334956,-1,0,-15,-3,-9,3,1,0
1501935705349956,-2,-5,-13,-56,-17,-12,-4,-1
1501935705349956,0,-2,16,43,21,4,0,0
1501935705350974,-2,-3,-4,34,17,1,1,0
1501935705350974,-2,-4,-1,24,-4,-4,-4,-1
1501935705371965,-1,0,9,-16,-5,-2,-1,0
1501935705371965,-2,-2,-12,-80,-1,-1,-1,-1
1501935705373957,-2,-4,-11,6,-2,-3,-1,-1
1501935705373957,0,-2,3,24,12,0,-1,-2
1501935705394981,2,1,-2,-32,-5,4,2,0
1501935705394981,1,1,7,90,26,2,-1,-1
1501935705395959,-1,-3,-2,4,-6,0,-1,-2
1501935705395959,1,1,-6,-38,-10,3,2,0
1501935705409018,-2,-1,1,66,3,-3,-1,0
1501935705409018,-1,1,8,-19,2,0,-1,-1
1501935705410969,-1,-2,-6,-53,1,-2,-3,-1
1501935705410969,-1,-4,-17,-46,-13,-5,-1,-1
1501935705431968,0,0,-2,57,18,3,0,0
1501935705431968,-2,1,3,11,-19,-3,1,1
1501935705433962,0,-4,-6,-2,-9,-5,-1,-1
1501935705433962,0,2,6,-4,11,6,1,-1
1501935705453999,-3,-2,-5,17,-1,-2,-5,-2
1501935705453999,-2,-3,-2,-30,-26,-9,0,-3
1501935705455971,-3,-3,-1,24,8,0,1,1
1501935705455971,1,3,12,33,0,5,-1,-2
1501935705469005,-5,-10,-38,-45,-13,-5,1,0
1501935705469005,1,2,14,-21,0,-6,-6,-2
1501935705470994,-1,-1,5,-2,-16,-6,-1,-2
1501935705470994,-1,-4,-22,56,7,0,1,-1
1501935705492007,-2,1,6,-56,-7,3,-2,-3
1501935705492007,-2,-3,-15,-52,-12,0,0,-1
1501935705493964,-2,-2,11,5,-5,-3,-1,-1
1501935705493964,2,4,15,39,14,-3,-2,0
1501935705513999,-2,-2,-4,-23,-16,-7,-1,-2
1501935705513999,-2,-6,-16,2,4,2,3,-1
1501935705515964,3,8,19,121,13,7,0,0
1501935705515964,-1,-1,2,72,7,0,-1,0
1501935705529990,2,1,8,8,3,0,0,-1
1501935705529990,-1,-2,9,44,8,-4,-2,-1
1501935705530966,-1,-4,-43,-77,8,-1,-3,-1
1501935705530966,-1,1,13,4,-8,-1,1,0
1501935705552032,0,-1,0,14,4,6,2,-1
1501935705552032,0,-3,-22,-53,-10,-3,-2,1
1501935705553968,-4,-7,0,27,-11,-4,-4,-4
1501935705553968,-3,-3,-11,-33,-2,-5,-2,-4
1501935705573985,2,3,10,-34,-2,1,0,-1
1501935705573985,0,0,11,65,9,1,-1,-2
1501935705575979,0,2,6,22,11,0,1,1
1501935705575979,-3,-3,3,-37,-26,-8,-1,0
1501935705589031,-3,2,28,46,-7,-1,-1,0
1501935705589031,-2,-5,-24,39,4,-2,0,-4
1501935705595993,0,-1,1,11,-5,-2,-3,0
1501935705595993,1,2,15,15,17,7,3,-1
1501935705612021,1,1,1,-67,5,-1,-1,0
1501935705612021,-1,-3,19,60,5,-3,-3,-1
1501935705613977,-2,-1,-15,8,1,-1,-1,0
1501935705613977,0,1,9,14,13,4,-1,-1
1501935705634011,-2,-1,-4,32,-10,0,0,-1
1501935705634011,-1,0,0,-58,-24,1,1,0
1501935705635972,0,0,15,-55,-12,-4,-1,0
1501935705635972,1,0,4,22,2,-4,-3,0
1501935705649038,-2,-3,-13,24,7,-2,2,1
1501935705649038,-3,-3,8,24,7,-2,-4,-3
1501935705655983,3,1,-7,-24,-5,4,-1,-2
1501935705655983,-1,0,20,-38,7,3,0,0
1501935705672036,-2,-7,-22,-60,-28,-10,-2,0
1501935705672036,-2,-5,-26,-44,11,2,0,-2
1501935705673975,1,3,1,-48,-4,2,0,-1
1501935705673975,-6,-10,-9,-6,-4,-8,-6,-3
1501935705694043,2,2,9,8,9,5,0,0
1501935705694043,0,4,11,32,9,3,0,0
1501935705695975,-1,-2,-26,-18,-14,-4,1,-1
1501935705695975,-2,-3,-14,0,-9,1,2,-1
1501935705709021,-1,2,10,60,8,-1,0,0
1501935705709021,-2,-1,-9,-63,-29,-7,-1,4
1501935705715990,0,-1,5,36,15,2,0,0
1501935705715990,-2,0,7,-9,-21,-3,-2,2
1501935705732048,-1,-1,-12,-53,-2,-3,-2,-1
1501935705732048,3,4,10,7,20,6,0,-1
1501935705733976,-4,-7,-13,58,2,-6,-3,-2
1501935705733976,0,-1,-2,29,9,-2,0,-2
1501935705755013,2,5,11,83,-11,5,1,0
1501935705755013,-2,-3,0,68,3,-8,-4,-4
1501935705756011,-3,-1,10,6,-7,-5,-2,-1
1501935705756011,0,-2,-17,-62,-1,2,-2,-1
1501935705769046,-1,-2,-4,-19,4,0,0,0
1501935705769046,0,-1,2,6,-3,0,-2,-3
1501935705775990,-3,-6,-4,71,6,0,0,0
1501935705775990,1,1,-3,5,-4,-2,1,1
1501935705792048,-3,-5,-9,-78,7,-2,-4,-4
1501935705792048,-2,1,-6,17,-14,-2,1,2
1501935705793980,1,0,5,-64,-8,0,-2,0
1501935705793980,-1,4,3,-11,-5,-2,0,-1
1501935705814025,-4,-7,-18,69,19,-3,-4,-3
1501935705814025,-4,-3,1,-67,-6,4,0,-1
1501935705815982,0,4,14,-1,10,-1,0,1
1501935705815982,2,0,4,11,5,5,1,0
1501935705828983,-2,-6,-26,-58,-25,-10,-3,-2
1501935705828983,-1,0,15,72,15,1,-1,1
1501935705835993,-4,-4,-9,-42,-25,-5,-2,-2
1501935705835993,-1,0,-8,-10,-5,-2,0,1
1501935705852047,0,-1,0,-31,13,5,-1,-1
1501935705852047,-6,-6,3,89,-3,-12,-3,-3
1501935705853984,1,1,8,-13,8,3,0,-1
1501935705853984,0,-7,-41,63,3,2,0,-2
1501935705882052,-2,1,18,-91,-25,-12,-7,-2
1501935705882052,1,-1,-9,16,-2,7,4,0
1501935705883990,-2,-2,-10,1,-1,-2,-2,-1
1501935705883990,-2,-2,3,17,-2,-2,-2,-1
1501935705888034,0,0,3,25,13,6,2,1
1501935705888034,1,-2,-6,1,3,0,-4,-2
1501935705897000,1,1,0,-78,-28,-6,0,1
1501935705897000,0,-1,2,-3,8,4,-2,-2
1501935705912054,-2,-1,2,31,-5,-5,0,1
1501935705912054,-1,0,-2,-59,0,0,-1,-3
1501935705913996,1,0,26,85,22,7,2,0
1501935705913996,-4,-2,-7,1,-20,-9,-6,-2
1501935705934053,-1,-3,-10,-19,-7,-2,-1,-2
1501935705934053,2,5,9,-41,-24,0,0,2
1501935705935990,-1,-2,-23,24,5,-3,-3,-4
1501935705935990,-3,-1,30,35,3,1,0,-1
1501935705948031,0,0,3,13,-12,3,1,2
1501935705948031,1,2,-13,-62,4,-2,-1,0
1501935705956998,1,3,15,20,5,2,0,-1
1501935705956998,0,-2,-25,3,-16,-7,-1,0
1501935705972058,-1,-1,-17,-53,4,1,0,-2
1501935705972058,-1,-2,6,11,7,1,1,-1
1501935705973992,1,1,-15,19,-3,0,-1,-2
1501935705973992,-4,-8,-23,-39,-31,-12,-1,1
1501935705995013,0,-2,10,27,10,-1,1,-1
1501935705995013,-1,-1,-1,-15,5,-1,-1,0
1501935705996002,-1,-1,-1,-19,3,2,0,0
1501935705996002,1,0,8,-15,14,7,0,-3
1501935706008037,3,5,1,-40,4,1,1,-1
1501935706008037,-4,-5,4,26,1,-5,-4,-2
1501935706016993,-1,-2,1,-19,-2,-2,-2,0
1501935706016993,0,4,12,27,12,3,2,-2
1501935706032037,0,5,3,13,13,4,0,1
1501935706032037,-1,2,-11,-77,-46,-7,-1,0
1501935706034009,-4,-5,-11,-29,-2,-1,-1,-2
1501935706034009,-2,0,0,-26,7,3,-1,1
1501935706054037,-4,-3,-13,-17,1,-3,-1,0
1501935706054037,0,2,-5,-47,3,5,-1,-2
1501935706055996,-3,-4,9,50,-6,-9,-3,0
1501935706055996,1,3,9,53,6,1,0,1
1501935706068038,0,-2,7,9,2,1,-1,-1
1501935706068038,-1,-4,-7,-43,-20,-3,-2,-2
1501935706077012,-1,3,-1,-30,-4,0,2,-2
1501935706077012,3,2,9,7,12,1,-1,-3
1501935706092073,0,3,23,95,4,-5,-1,1
1501935706092073,-2,-1,-19,119,25,9,-1,-2
1501935706093999,-4,-5,-7,-86,-28,-8,-3,-1
1501935706093999,-2,-2,3,31,-2,-4,-2,-2
1501935706114061,0,-2,-3,-6,-9,1,-1,-3
1501935706114061,2,3,5,6,6,3,-1,-1
1501935706116011,-1,-2,-8,0,11,-3,-3,-1
1501935706116011,1,0,6,-70,-32,-2,1,0
1501935706128041,-3,-8,-25,-14,-14,-4,-2,-2
1501935706128041,0,0,7,-62,12,0,1,-2
1501935706137028,0,2,-8,5,0,2,-1,0
1501935706137028,-3,-4,-12,19,3,-7,-5,-3
1501935706152074,0,-2,6,-44,-19,-2,-1,0
1501935706152074,-3,-1,0,67,0,-2,-1,0
1501935706154002,0,0,3,-37,-7,2,0,-1
1501935706154002,0,1,-6,-79,-4,-2,2,1
1501935706174040,-3,-3,3,60,9,4,-1,-3
1501935706174040,2,3,17,27,0,-2,0,0
1501935706176012,-3,-4,-31,-48,-18,-2,-2,-1
1501935706176012,-1,-4,-10,29,16,1,-3,-2
1501935706188050,1,2,7,63,9,-1,-1,-1
1501935706188050,-1,-1,-8,-49,-4,-2,0,0
1501935706197040,1,4,14,59,4,0,0,-4
1501935706197040,-3,2,7,-15,1,4,1,-1
1501935706212065,-5,-3,-6,12,9,-6,-2,-1
1501935706212065,-2,-4,-16,13,-12,-4,-2,-2
1501935706214006,3,3,3,5,14,5,2,1
1501935706214006,-2,-2,10,8,5,-4,-2,0
1501935706234073,1,2,12,3,0,-3,0,-2
1501935706234073,-3,-2,10,-3,5,-2,-1,-1
1501935706236006,-2,-1,11,31,8,-1,-1,-2
1501935706236006,-2,0,-15,2,12,1,-1,-2
1501935706248049,1,2,2,-14,-6,6,1,1
1501935706248049,-1,1,16,88,17,-2,-1,0
1501935706257029,-1,1,11,17,7,7,1,0
1501935706257029,-1,-2,-1,-87,-25,-4,-1,-1
1501935706272070,-2,-1,-1,-5,-1,-2,-3,-4
1501935706272070,-4,-7,-28,29,6,-1,-2,-1
1501935706273021,-3,-1,21,50,-4,-4,-4,-3
1501935706273021,0,1,3,7,8,5,1,1
1501935706294054,-2,-4,-9,32,2,-4,0,-1
1501935706294054,-2,-3,-10,-51,-8,-2,-3,-1
1501935706296009,2,1,-8,49,9,2,-1,0
1501935706296009,0,-2,-2,11,11,-1,0,-1
1501935706317057,2,3,-1,-28,-11,1,-1,0
1501935706317057,1,2,22,67,4,-1,0,1
1501935706318011,-5,-7,-13,-35,-4,-3,-2,-4
1501935706318011,1,4,27,24,-3,-1,0,3
1501935706332050,-3,-3,-2,91,24,1,-2,-2
1501935706332050,0,2,-18,-57,-28,-5,-1,-1
1501935706334011,0,-1,-6,-25,2,4,1,0
1501935706334011,3,2,11,-28,-8,3,1,0
1501935706354055,-3,-4,-21,-91,-2,-3,-2,-2
1501935706354055,-2,0,12,-5,-2,1,1,0
1501935706355013,-2,-2,-8,-15,-8,-7,-3,-1
1501935706355013,-1,5,17,47,14,4,1,-3
1501935706376055,-2,-8,-26,2,-12,-6,-3,-2
1501935706376055,-1,0,0,31,10,0,-1,-1
1501935706377056,-3,-1,8,-35,-24,-6,1,1
1501935706377056,0,-1,-7,11,13,1,-2,-2
1501935706391058,-2,0,6,-31,-7,3,-1,1
1501935706391058,-1,-4,3,28,2,0,-1,-4
1501935706392042,0,1,2,-67,-5,-1,0,0
1501935706392042,-3,-3,-17,-22,-9,-3,-3,-3
1501935706414073,1,3,7,24,3,0,1,-1
1501935706414073,0,2,17,-8,0,1,2,1
1501935706415017,1,1,-9,51,14,-2,-2,1
1501935706415017,-3,-5,-1,23,-9,-4,-4,-2
1501935706436065,-1,0,-5,-54,-10,-1,0,0
1501935706436065,0,2,24,105,28,6,0,-2
1501935706437035,-2,-6,-28,-85,-24,-6,-2,-2
1501935706437035,-2,-2,-8,2,-9,-3,0,1
1501935706451058,-2,0,7,27,-4,-2,0,-2
1501935706451058,-1,-2,-16,-48,-4,-5,-2,-3
1501935706452058,0,-1,7,43,12,1,-1,2
1501935706452058,-1,-3,-12,-11,-2,0,0,0
1501935706474058,1,0,2,-40,1,2,-1,0
1501935706474058,-1,-3,-18,-49,-2,-3,-2,0
1501935706474058,-2,-1,6,25,4,1,0,0
1501935706474058,0,-1,1,-2,-8,0,1,-2
1501935706496061,0,3,10,52,15,2,0,0
1501935706496061,1,0,-7,-56,-13,-2,0,0
1501935706497030,-1,2,-9,97,3,1,-2,-3
1501935706497030,-1,-2,-6,-16,7,-1,0,0
1501935706511064,-2,-5,-9,-5,-9,0,-2,-4
1501935706511064,-1,0,2,-21,18,0,-3,0
1501935706512054,0,0,-11,-47,-24,3,1,-1
1501935706512054,1,6,27,30,5,-3,1,1
1501935706534072,-5,-10,-30,-29,-10,-6,-5,-4
1501935706534072,1,2,13,96,-4,2,1,1
1501935706534072,-1,-2,9,10,8,-3,1,-1
1501935706534072,0,2,-6,-31,2,2,1,-1
1501935706556087,0,4,25,-26,-23,-9,-1,1
1501935706556087,-3,-6,-9,-39,11,-1,-3,-3
1501935706557047,0,0,23,12,3,-2,-1,0
1501935706557047,-4,-13,-44,46,-7,-4,-5,-4
1501935706571084,1,0,1,-13,1,1,0,-3
1501935706571084,-1,-1,-2,-8,1,0,2,-1
1501935706572060,3,3,16,14,4,2,0,-1
1501935706572060,-3,-5,-19,74,12,-2,0,-3
1501935706594035,0,1,7,-20,-11,-2,-1,1
1501935706594035,-2,-2,-8,-2,-15,-3,-1,-1
1501935706595028,1,-2,-9,27,21,3,0,-2
1501935706595028,2,6,37,-39,1,2,1,1
1501935706616071,-1,-1,-6,-19,2,-1,-1,0
1501935706616071,-2,-3,-16,-8,-7,-5,-3,-2
1501935706617039,-1,0,10,74,4,-3,0,-1
1501935706617039,-2,-2,-8,-44,-12,0,-2,-3
1501935706631092,-1,-1,-11,-75,-2,-3,1,0
1501935706631092,0,-3,-10,-36,-7,2,0,-2
1501935706632028,-3,-1,-10,-7,4,-3,-1,-2
1501935706632028,2,0,0,65,19,3,-1,-1
1501935706654031,-5,-3,5,-50,-38,-11,-3,1
1501935706654031,0,-2,-15,4,-7,-4,-2,-1
1501935706654031,-1,-4,-26,-47,5,-3,-2,-1
1501935706654031,-2,-4,-5,28,-6,2,-1,-3
1501935706676076,4,5,17,60,1,2,1,1
1501935706676076,-2,-4,7,28,5,2,-3,-1
1501935706677042,0,0,15,85,16,4,-2,0
1501935706677042,0,4,0,-110,-36,-7,-1,1
1501935706691070,-4,-4,3,86,6,1,-1,-2
1501935706691070,0,3,9,-70,2,5,3,-1
1501935706692060,-4,0,15,6,-8,-4,-2,-1
1501935706692060,-2,-5,-17,-56,-7,-4,-3,-2
1501935706714102,1,1,-12,98,20,5,0,0
1501935706714102,-1,2,-3,-52,-25,-3,-1,0
1501935706714102,-3,2,14,14,-7,-5,-2,0
1501935706714102,-2,-1,-5,-57,-10,-2,-1,-1
1501935706736074,1,2,24,34,13,1,0,-1
1501935706736074,-2,-4,2,61,10,-3,-2,0
1501935706737036,0,1,2,4,-1,5,2,0
1501935706737036,-2,-2,-9,-64,-6,-7,-2,0
1501935706751052,-2,-3,-6,67,-1,-3,-2,-2
1501935706751052,4,2,15,53,10,8,2,-1
1501935706759080,-2,-4,-11,-50,-17,-3,-3,-3
1501935706759080,-1,-4,17,-26,-2,-3,-1,-1
1501935706774077,1,1,-11,-2,24,7,-2,-3
1501935706774077,-1,1,11,2,-42,-10,-3,0
1501935706774077,-2,-3,-13,2,-10,-5,-1,-2
1501935706774077,1,2,2,62,18,7,0,-1
1501935706796109,2,6,12,-105,13,3,2,0
1501935706796109,-6,-6,-38,-47,-10,-7,-4,1
1501935706797040,0,0,-1,-17,0,0,-3,-3
1501935706797040,-3,-4,-6,41,-3,-4,-2,-3
1501935706811068,2,2,15,-4,-2,2,0,0
1501935706811068,1,1,26,43,23,3,0,0
1501935706819085,-1,-4,-13,-23,-12,-4,-3,-2
1501935706819085,-1,0,-6,-39,-16,-4,0,0
1501935706834091,-2,-2,0,-1,-3,2,-1,-1
1501935706834091,-3,2,5,-30,4,-1,-1,-2
1501935706834091,2,1,-15,55,9,4,0,0
1501935706834091,-4,-4,30,86,20,-7,-4,-4
1501935706856084,1,0,1,-50,-5,2,1,0
1501935706856084,0,1,-6,2,5,-1,2,0
1501935706857043,-1,-1,6,-40,-8,-2,-1,-1
1501935706857043,-1,0,-1,87,13,2,-1,-1
1501935706871063,-3,-3,-19,-118,-26,-6,-3,1
1501935706871063,-2,-4,-10,49,-12,-10,-2,-2
1501935706879043,1,0,2,60,16,6,1,0
1501935706879043,0,-1,-10,-15,4,3,-1,-2
1501935706894116,-1,-2,-9,29,-6,-4,-2,-3
1501935706894116,1,0,14,-22,3,4,1,0
1501935706894116,-1,3,13,-9,5,-1,0,-1
1501935706894116,0,-5,-19,-65,2,2,-1,0
1501935706916088,-2,0,7,57,10,-1,0,-1
1501935706916088,0,-1,-5,-32,8,0,0,0
1501935706917083,-4,-6,-12,38,-4,-6,-3,-1
1501935706917083,2,3,-2,-49,8,4,1,0
1501935706931066,1,2,16,73,7,0,-1,-1
1501935706931066,-5,-5,5,97,7,-2,-2,-1
1501935706939057,-2,1,-4,-43,-8,-1,0,-1
1501935706939057,0,1,6,-14,7,3,0,1
1501935706954114,-1,-2,-6,24,-4,0,1,2
1501935706954114,0,-2,-10,-47,-2,-1,-3,-2
1501935706954114,0,0,7,1,-13,-2,-1,1
1501935706954114,-2,-3,12,47,0,-4,1,-2
1501935706976091,-1,-4,-25,-45,0,3,-1,-2
1501935706976091,0,-7,-16,37,3,-4,-1,-2
1501935706977086,-1,-1,-3,-17,-1,0,-2,-1
1501935706977086,0,1,-4,-13,-8,-2,-3,-2
1501935706991058,-3,-3,-1,0,2,-2,-2,-1
1501935706991058,0,1,-5,-42,-2,-1,-1,-1
1501935706999103,-5,-7,-2,-22,0,-6,-4,-2
1501935706999103,1,1,2,75,10,2,1,-1
1501935707014104,-1,0,1,-39,-33,-2,0,0
1501935707014104,3,5,26,103,34,7,-1,0
1501935707014104,-2,-4,-10,-13,-24,-5,-1,0
1501935707014104,-3,-5,-22,18,-1,-1,-2,0
1501935707036097,-2,-3,-1,13,8,-1,0,-3
1501935707036097,0,4,22,-51,-11,-2,1,0
1501935707037055,1,-5,-40,-65,-10,0,0,0
1501935707037055,-3,-2,14,7,-4,-2,-1,0
1501935707050069,-4,-3,-8,16,-12,-7,-3,-2
1501935707050069,-2,-1,-5,-25,-2,0,-4,-3
1501935707059106,0,1,11,0,6,2,1,1
1501935707059106,0,3,17,51,-8,-1,-2,-1
1501935707074077,-4,-9,-39,-54,-6,-3,-3,-2
1501935707074077,-3,-4,-24,-52,-7,-3,-2,-3
1501935707074077,-1,-1,6,0,-2,1,-1,0
1501935707074077,-1,0,-1,-23,2,-2,-2,-3
1501935707096100,1,2,13,18,5,0,0,0
1501935707096100,1,2,-7,-20,-1,2,2,0
1501935707097057,-5,-5,11,89,13,-6,-7,-5
1501935707097057,-1,4,1,-64,-32,-4,2,3
1501935707111066,0,-1,-10,-39,1,-4,-3,-3
1501935707111066,-3,-1,2,22,3,2,0,-1
1501935707119134,0,1,-8,-27,6,1,1,-1
1501935707119134,-1,0,9,93,12,2,-2,-2
1501935707134106,-2,-2,13,0,-2,-4,0,-1
1501935707134106,-2,-3,-3,0,0,-1,-1,-1
1501935707134106,-1,2,6,-17,-2,1,0,1
1501935707134106,3,2,-7,-49,5,2,0,0
1501935707156102,0,0,0,-14,-2,-2,-2,-1
1501935707156102,-1,-3,-3,4,1,-1,-1,-1
1501935707157060,-1,1,9,-2,2,0,0,-2
1501935707157060,-2,-1,-15,-54,-7,-1,2,0
1501935707170101,0,0,7,57,10,1,-1,1
1501935707170101,-2,-1,5,-19,-6,-3,-3,-2
1501935707179138,-3,-1,3,8,-2,-2,0,-1
1501935707179138,-2,-3,-5,-13,-6,-2,-2,-1
1501935707194100,-1,1,0,7,3,3,-1,-2
1501935707194100,2,1,1,-1,-3,-2,0,1
1501935707194100,0,0,25,32,0,-3,0,-1
1501935707194100,-1,-3,-15,-59,-7,-5,-3,-2
1501935707216110,-1,0,2,-26,1,2,1,0
1501935707216110,-2,0,-6,-45,-5,-3,-5,-1
1501935707217075,-2,1,9,6,2,1,1,-1
1501935707217075,0,-1,-9,2,10,1,-1,-1
1501935707231062,0,2,7,-1,2,-1,-1,1
1501935707231062,-2,-2,-5,6,-15,-5,-1,-1
1501935707239108,-2,-2,-3,-75,13,0,-3,-3
1501935707239108,0,3,-1,-69,-20,2,1,1
1501935707254099,-4,-4,3,99,1,-5,-1,-2
1501935707254099,-3,-5,-13,-10,2,-2,-1,-3
1501935707254099,2,2,-12,22,-4,-1,0,0
1501935707254099,-2,-3,1,36,9,2,1,-1
1501935707276108,1,1,4,34,16,5,0,-1
1501935707276108,-4,-5,-5,-53,-24,-6,-3,-3
1501935707277077,0,-1,-7,27,0,-3,-1,0
1501935707277077,-1,1,10,-18,13,3,-2,-1
1501935707299110,0,-1,-19,-10,-14,-7,-1,-1
1501935707299110,1,0,11,58,12,7,0,-2
1501935707300066,-2,-4,-32,10,1,-2,-3,-4
1501935707300066,-2,-6,-13,14,-5,-7,-4,-3
1501935707314118,0,0,9,44,1,-2,-1,-2
1501935707314118,0,2,0,27,11,5,0,0
1501935707314118,-1,-1,-3,-36,-14,-6,-1,-1
1501935707314118,-1,0,0,30,-8,-4,-1,-2
1501935707336109,-3,-4,-9,-19,2,-1,-2,-2
1501935707336109,2,1,10,41,12,1,0,1
1501935707337083,-2,-3,-32,-109,-43,-4,-1,1
1501935707337083,-1,-2,-10,30,0,-5,-3,1
1501935707359113,-3,-4,9,34,-7,-8,-2,-2
1501935707359113,1,2,-6,-32,5,0,0,0
1501935707360070,-1,-1,-1,-24,9,5,1,-2
1501935707360070,-3,-1,16,79,5,-1,0,-2
1501935707374085,1,3,-1,12,11,3,0,0
1501935707374085,-1,1,-2,-23,-43,-10,-1,1
1501935707374085,-2,-4,3,-48,4,-2,-3,-1
1501935707374085,1,0,0,-22,-6,1,1,0
1501935707396115,0,-1,2,25,8,3,-1,-1
1501935707396115,-2,0,4,55,12,3,1,-2
1501935707397073,-1,-2,-6,-37,-12,-2,-2,0
1501935707397073,-2,-3,-5,33,-3,-3,-2,-2
1501935707427117,0,1,4,17,-3,-1,0,0
1501935707427117,-1,-4,-12,-27,10,0,0,-2
1501935707428075,1,3,9,50,-15,1,-1,0
1501935707428075,1,1,13,46,20,0,-1,-2
1501935707434122,-1,-1,4,-128,-16,-3,-1,-2
1501935707434122,-1,-6,-11,31,6,-4,-3,-4
1501935707434122,2,4,8,-22,18,4,3,0
1501935707434122,0,-1,4,2,-3,-1,-2,-2
1501935707456120,0,0,-13,-66,-4,4,0,-1
1501935707456120,0,0,7,-48,-1,4,1,1
1501935707457077,0,1,14,127,32,1,-2,-3
1501935707457077,-6,-4,-4,-58,-43,-16,-4,1
1501935707479118,0,1,-5,-11,-3,-2,0,0
1501935707479118,2,3,2,8,12,6,0,-1
1501935707480076,-1,-2,-4,-6,-5,-6,-1,-1
1501935707480076,-1,1,2,-7,9,3,-2,-2
1501935707494077,-1,-2,6,8,0,0,-2,-2
1501935707494077,-1,-2,-4,1,-7,-7,-2,-1
1501935707494077,1,0,6,12,-3,2,0,-2
1501935707494077,2,3,-3,15,17,10,3,0
1501935707516124,-5,-7,1,-72,-29,-9,-2,1
1501935707516124,1,0,-14,89,7,0,-1,0
1501935707517080,-4,-8,-27,-96,-19,-7,-5,-3
1501935707517080,-2,-3,-8,27,-6,-3,1,1
1501935707539148,2,2,2,24,8,4,1,-3
1501935707539148,-1,0,4,-15,-5,-6,-2,1
1501935707540080,0,0,5,19,2,3,2,0
1501935707540080,0,-2,-2,-4,3,3,0,-3
1501935707554149,0,-2,-9,24,3,-1,-1,-2
1501935707554149,-1,-3,-6,-42,-16,-1,0,1
1501935707554149,-2,1,21,122,20,-1,-2,-1
1501935707554149,3,1,-8,-80,-7,2,0,0
1501935707576124,-2,-2,-3,16,-6,-3,-3,0
1501935707576124,-3,-3,-2,-3,-18,-5,-3,-2
1501935707577088,1,0,1,2,7,0,1,-1
1501935707577088,1,-1,-3,5,3,-1,-3,-3
1501935707599128,0,0,1,12,3,-4,-1,-1
1501935707599128,2,1,3,5,0,2,-1,1
1501935707600092,-1,-2,-2,-21,-3,-1,3,2
1501935707600092,-4,-2,0,30,-4,-3,-4,-8
1501935707614102,1,1,-7,-9,0,1,0,-2
1501935707614102,-4,-4,18,69,11,-3,-1,-2
1501935707614102,1,2,2,11,2,1,2,0
1501935707614102,0,0,-10,-89,-8,0,-1,2
1501935707636127,-3,-3,8,43,20,-1,-2,-4
1501935707636127,-1,-1,-5,-7,-16,0,0,-3
1501935707637099,-2,0,-2,-20,-8,-2,-3,-1
1501935707637099,0,-1,-3,14,3,0,-1,-2
