timestamp,emg1,emg2,emg3,emg4,emg5,emg6,emg7,emg8
1501936790688645,5,11,58,81,-12,0,0,0
1501936790688645,6,10,35,51,22,9,10,4
1501936790689657,1,2,-23,91,-12,-6,-2,-7
1501936790689657,0,7,37,87,100,16,-3,-4
1501936790690661,11,11,-2,-125,-44,16,1,13
1501936790690661,-13,-8,64,97,0,-14,0,-10
1501936790692662,7,11,-52,-75,-11,8,7,7
1501936790692662,-7,-20,-54,-18,-37,-13,-7,-2
1501936790693660,-4,2,2,0,55,3,-2,-5
1501936790693660,2,-2,-40,-47,31,3,-12,-1
1501936790706685,4,12,45,5,-16,1,7,6
1501936790706685,-2,2,30,-6,-20,-3,1,-3
1501936790714666,-4,-6,-28,26,-11,-5,-3,-5
1501936790714666,2,3,-7,-89,-5,-3,3,1
1501936790721650,3,1,40,-11,21,9,-3,-2
1501936790721650,-2,-4,-46,-94,-38,6,7,3
1501936790736649,-2,4,-10,2,-24,-18,0,-3
1501936790736649,-4,-9,-31,-11,-49,-11,-6,1
1501936790751696,-2,-10,-10,67,19,-4,-3,-3
1501936790751696,5,9,38,79,21,11,3,2
1501936790761685,-6,-5,-11,-65,-30,-10,-8,-6
1501936790761685,-1,-4,43,-26,2,-5,-5,-3
1501936790800652,-1,8,9,-112,-84,-14,-1,0
1501936790800652,-9,-17,-37,-12,-18,-18,-4,-6
1501936790800652,2,-4,-3,-15,-45,-16,-6,0
1501936790800652,-8,-10,-25,-33,-7,1,2,-2
1501936790803692,-2,0,5,69,11,6,-4,-3
1501936790803692,-1,-2,-24,-16,-44,-3,1,-2
1501936790804685,-2,-7,-26,53,2,0,-2,-1
1501936790804685,5,9,50,55,53,14,2,1
1501936790812649,2,5,28,12,-20,-7,0,-1
1501936790812649,-1,-1,6,-63,16,3,2,1
1501936790818671,7,14,20,10,45,18,3,2
1501936790818671,1,4,-20,-128,-36,-18,-4,1
1501936790827651,7,14,49,-19,64,23,9,3
1501936790827651,2,2,-9,-32,-9,0,0,0
1501936790840717,17,48,109,38,74,45,21,18
1501936790840717,-22,-37,-38,63,-73,-57,-33,-24
1501936790849652,0,0,59,20,1,-10,-2,0
1501936790849652,9,6,13,-25,24,14,3,5
1501936790872728,-8,-7,25,-65,-36,-17,-7,-9
1501936790872728,2,10,-29,-19,13,3,2,9
1501936790873654,-4,-17,-60,93,-23,16,3,-2
1501936790873654,-2,-4,-51,-16,-48,-11,-4,-3
1501936790886668,-10,-29,-94,-20,-5,-11,-3,-4
1501936790886668,6,8,27,-62,17,17,4,3
1501936790893695,-3,-11,-55,-107,-16,-10,-2,-3
1501936790893695,3,10,36,61,61,19,1,5
1501936790909694,-5,-12,-6,-73,-73,-20,-3,-2
1501936790909694,-6,-15,-37,26,-15,-7,-5,-6
1501936790911691,1,5,9,10,8,6,0,0
1501936790911691,-7,-11,7,115,14,-11,-6,-5
1501936790932660,-2,-2,22,-36,20,-2,-5,1
1501936790932660,3,7,38,123,35,8,3,-5
1501936790933660,5,14,43,57,27,13,7,6
1501936790933660,-8,-9,-31,-63,-6,-9,-8,-9
1501936790946672,-14,-21,-1,62,-52,-35,-17,-14
1501936790946672,13,5,13,10,46,29,11,13
1501936790953699,-3,1,7,-65,22,-8,-6,-8
1501936790953699,2,-1,-13,103,62,-1,2,3
1501936790969658,5,9,-2,-6,-41,19,6,3
1501936790969658,11,15,5,-28,-13,9,5,5
1501936790971661,-15,-23,-65,-41,54,1,-5,-10
1501936790971661,-7,-6,14,-6,-35,-10,-6,-5
1501936790992725,0,1,6,-65,29,3,2,0
1501936790992725,-3,-3,-28,75,35,3,6,0
1501936790993660,-3,-1,-9,-47,-43,-26,-10,-4
1501936790993660,0,9,34,25,-26,8,2,-1
1501936791006732,0,-6,-59,-63,0,7,0,-3
1501936791006732,3,14,74,3,21,7,6,5
1501936791013731,4,-1,-38,23,18,10,2,8
1501936791013731,-1,1,29,-27,-18,-11,-4,-6
1501936791029699,1,-7,-34,52,6,-7,-5,-3
1501936791029699,-3,9,42,6,-3,4,2,0
1501936791031675,-7,-9,17,-58,-20,-2,-1,0
1501936791031675,10,4,-10,-54,-37,21,8,9
1501936791052730,-2,-1,13,-38,4,-16,-1,1
1501936791052730,-9,-16,-34,-55,-25,-13,-7,-7
1501936791053663,-3,-7,-55,123,11,-4,-7,-6
1501936791053663,-7,3,11,-26,-4,-1,4,0
1501936791066732,0,-1,-13,-37,-3,2,-1,-3
1501936791066732,-1,-2,0,-38,-23,-7,-4,-1
1501936791073705,1,2,-5,-27,-10,0,2,-1
1501936791073705,8,12,9,96,59,15,3,6
1501936791089675,-14,-13,4,99,-63,-27,-8,-7
1501936791089675,-6,-9,-34,-78,-82,-7,-4,-5
1501936791091664,4,11,51,127,30,4,5,3
1501936791091664,2,3,27,-43,20,0,-1,-3
1501936791111733,1,2,5,63,34,9,0,4
1501936791111733,2,2,-7,-59,21,10,3,2
1501936791119683,-1,-2,30,-70,-3,-4,-3,-4
1501936791119683,-4,-3,-3,33,-11,-13,-3,-3
1501936791125737,0,1,15,61,22,12,3,1
1501936791125737,1,-4,-35,-68,-13,-5,-2,1
1501936791134702,11,8,16,43,-2,9,0,5
1501936791134702,-7,-5,-8,7,20,-6,-4,-9
1501936791149668,7,9,-6,53,-49,6,7,2
1501936791149668,0,3,30,92,24,-5,-8,-1
1501936791151669,-2,-6,-19,-62,-26,-8,-2,-2
1501936791151669,0,-2,-22,20,5,-1,-2,0
1501936791172741,10,20,76,43,57,15,5,4
1501936791172741,-8,-9,-6,101,-3,-11,-5,-10
1501936791173670,2,-1,-13,46,0,3,2,2
1501936791173670,-5,3,54,11,3,-8,-5,-1
1501936791185735,0,3,20,-14,19,3,-3,-2
1501936791185735,2,-2,-18,58,20,-2,0,-2
1501936791194671,-11,-5,4,-108,-56,-13,-4,-11
1501936791194671,8,6,24,44,9,17,2,7
1501936791209712,-5,-7,-6,-27,-10,-17,-9,-8
1501936791209712,2,-4,5,56,12,3,1,2
1501936791211674,-13,-10,-46,-100,-14,-21,-7,-7
1501936791211674,-1,4,26,-2,14,19,3,-2
1501936791232694,-3,-8,-51,-50,4,-1,-2,0
1501936791232694,2,0,5,-57,-4,4,3,3
1501936791233682,3,-1,-6,20,-3,8,0,3
1501936791233682,9,13,10,28,0,2,5,5
1501936791245740,-9,-11,-14,70,-10,-10,-6,-5
1501936791245740,-3,1,-3,70,-14,-10,-2,-2
1501936791262683,-1,-7,-16,48,-6,0,4,6
1501936791262683,-2,-4,-13,-44,-21,-9,-8,-8
1501936791269722,4,6,35,37,53,17,5,-2
1501936791269722,3,7,15,26,40,11,5,6
1501936791271675,-5,-6,-9,-24,-16,-5,-3,-1
1501936791271675,-2,-15,-42,46,0,-10,-5,-2
1501936791292743,-1,-5,-34,-34,-1,-2,0,-5
1501936791292743,-8,0,16,-29,18,1,-4,-12
1501936791293676,13,15,81,96,22,6,4,10
1501936791293676,-19,-30,-83,-13,-11,-27,-13,-6
1501936791305747,-6,-4,-20,-93,-40,-17,-4,-2
1501936791305747,-3,-3,-17,50,0,8,-3,-6
1501936791322679,1,-2,-27,55,1,2,-3,-5
1501936791322679,0,2,17,-61,-15,-5,3,1
1501936791329719,5,4,0,51,7,-5,-2,6
1501936791329719,-5,-6,-14,29,-12,-7,-4,-2
1501936791331679,-11,-21,-54,15,29,-8,-6,-7
1501936791331679,6,9,21,-64,-31,6,5,2
1501936791352754,-5,-5,-25,-88,-19,-4,-3,-2
1501936791352754,3,5,16,-97,-21,-2,-1,0
1501936791353694,2,4,-1,-11,15,2,-1,-1
1501936791353694,-2,2,44,73,14,-3,7,1
1501936791365743,-6,-16,-81,60,25,7,-4,-4
1501936791365743,3,9,8,-80,-65,-11,2,5
1501936791374697,2,5,10,-74,-28,-2,5,-8
1501936791374697,5,5,40,46,18,-1,-8,8
1501936791397712,3,5,40,-66,18,5,2,2
1501936791397712,3,-2,-29,-2,12,15,2,4
1501936791398706,-12,-7,17,-86,-51,-12,-6,-8
1501936791398706,6,6,4,9,-1,7,7,8
1501936791412755,2,8,37,47,-21,4,1,-1
1501936791412755,-6,-11,-43,-105,-11,-16,-6,-7
1501936791413685,4,2,-5,103,51,16,1,8
1501936791413685,-6,-7,-29,-105,-27,-7,-1,-11
1501936791425724,4,6,18,56,36,10,2,3
1501936791425724,-5,-9,10,-56,-25,-11,-3,0
1501936791434705,1,8,31,-12,23,-1,-4,-2
1501936791434705,-4,-10,-44,-37,13,4,-2,-8
1501936791449723,2,3,5,10,1,0,2,2
1501936791449723,-1,-1,6,-33,0,-4,-1,2
1501936791451685,-4,-7,-12,59,25,-1,-2,-8
1501936791451685,8,8,5,45,-20,7,0,5
1501936791472728,-11,-9,-4,42,13,-7,-3,-10
1501936791472728,9,6,16,-4,4,11,4,10
1501936791473703,-1,-1,10,-2,-14,-14,-4,-5
1501936791473703,-1,7,33,13,31,5,3,-2
1501936791485720,-3,-10,-33,-11,-25,5,-1,0
1501936791485720,-5,-5,-26,-29,1,1,0,-4
1501936791494688,-4,1,8,64,-22,-4,1,4
1501936791494688,-5,-13,-24,-10,-32,-7,-2,-2
1501936791509694,-1,6,39,5,-8,-8,0,-1
1501936791509694,-3,-5,-17,10,24,-1,-5,-12
1501936791511689,-2,-3,8,-85,-36,-8,-5,-1
1501936791511689,-5,2,-25,-28,-5,-2,-2,2
1501936791532694,6,-3,2,27,23,3,1,-6
1501936791532694,-1,-5,-15,113,-12,-9,-4,4
1501936791533689,4,18,45,79,12,9,5,4
1501936791533689,5,-7,-25,55,15,-15,-9,-1
1501936791545735,-8,-2,-7,-80,-11,-5,-4,-5
1501936791545735,1,-2,16,78,6,2,-1,-1
1501936791554720,-1,2,-6,4,9,1,-1,2
1501936791554720,4,0,34,123,24,6,6,7
1501936791569692,-2,-2,-22,-52,-7,-13,-5,-11
1501936791569692,0,7,8,-23,19,26,6,1
1501936791571693,-12,-23,-31,54,-9,-24,-10,-8
1501936791571693,-8,-8,-30,-39,-16,-9,-3,-7
1501936791592729,3,1,-7,20,7,6,5,13
1501936791592729,-12,-1,36,36,1,-8,-5,-4
1501936791593695,9,2,-21,-41,35,9,-2,1
1501936791593695,3,7,3,51,8,11,1,-4
1501936791614734,-5,1,37,45,-11,-8,-3,3
1501936791614734,3,3,19,44,27,-1,0,-4
1501936791616696,-1,-5,5,1,-13,7,3,4
1501936791616696,-9,-3,6,81,3,-12,-7,-9
1501936791629759,2,5,4,-1,-12,4,2,-6
1501936791629759,-2,-8,-27,-47,-5,-3,0,2
1501936791631695,4,1,-18,23,43,3,0,0
1501936791631695,-3,4,26,-27,-20,-2,0,2
1501936791652768,9,2,15,76,26,19,6,7
1501936791652768,-7,-13,11,104,-13,-27,-8,-2
1501936791653704,0,-7,-49,-91,-43,-7,-2,7
1501936791653704,-8,-14,-52,6,-11,-6,-3,-12
1501936791674740,1,6,2,-62,-13,6,1,5
1501936791674740,-3,-4,-16,-24,-10,-2,3,-10
1501936791676697,1,-3,-13,-9,-5,2,-3,0
1501936791676697,0,1,1,16,7,4,1,4
1501936791689766,-9,-8,-23,-14,-16,-8,-3,-3
1501936791689766,1,6,7,-29,2,1,-1,2
1501936791691698,1,4,12,62,0,5,3,1
1501936791691698,1,2,37,-74,3,1,0,-3
1501936791712773,-8,-7,-36,-78,-37,-13,-8,-6
1501936791712773,4,-1,-2,-38,-14,-1,-1,1
1501936791713700,8,8,22,57,21,11,2,11
1501936791713700,0,11,50,69,30,8,9,-10
1501936791734734,-2,-7,-1,0,12,-7,-7,3
1501936791734734,-2,-6,-38,37,-16,-4,2,-4
1501936791736711,-5,-2,-4,-8,0,-9,-5,-6
1501936791736711,1,-3,-3,-41,-18,8,1,2
1501936791748740,6,5,42,80,61,9,0,1
1501936791748740,-4,-6,-41,-38,-22,-6,3,0
1501936791755743,-3,1,8,-16,11,-1,-4,-8
1501936791755743,4,3,16,65,9,-3,-2,6
1501936791770716,-10,-13,-55,-54,-14,-8,-4,-12
1501936791770716,0,0,1,79,39,2,-3,4
1501936791779725,-1,-2,-3,-113,-52,-5,1,3
1501936791779725,-3,-3,-14,-40,3,1,2,-7
1501936791794770,-1,2,8,12,10,2,1,-5
1501936791794770,11,14,63,3,17,2,2,16
1501936791796737,-6,-11,-30,28,-11,-4,-1,-11
1501936791796737,4,2,-25,-44,10,7,-2,9
1501936791817758,0,3,33,13,12,4,1,-2
1501936791817758,3,5,5,-56,-42,-3,0,4
1501936791818709,-6,-2,15,35,11,-3,-2,-7
1501936791818709,0,-5,-19,-6,-1,1,-3,1
1501936791830772,10,4,5,20,13,6,1,2
1501936791830772,-3,-1,0,-55,6,0,-5,-3
1501936791839741,8,16,42,66,85,25,12,6
1501936791839741,-14,-15,-20,-124,-68,-35,-18,-10
1501936791854748,-6,-6,-27,22,-20,-4,3,-2
1501936791854748,-2,0,-7,6,6,-1,-3,-9
1501936791856708,3,0,5,20,4,1,2,2
1501936791856708,2,5,16,-50,14,10,2,5
1501936791877754,-6,-5,-2,54,-19,-9,-6,1
1501936791877754,-3,-3,7,58,8,0,-2,-4
1501936791878710,-9,-2,5,-25,-48,-6,-1,1
1501936791878710,8,-2,-6,-91,-45,-1,-1,-4
1501936791890709,-7,-4,-12,19,-2,-9,-3,-4
1501936791890709,0,3,7,69,-2,2,0,1
1501936791899712,6,-5,-16,59,-11,-12,-5,-7
1501936791899712,-8,2,-22,45,10,-2,0,6
1501936791914757,-6,-4,13,-97,-1,14,2,-1
1501936791914757,4,9,48,89,-15,0,1,19
1501936791916722,9,-2,-14,52,22,10,1,11
1501936791916722,-6,-3,-28,-18,-32,-14,-7,-16
1501936791937781,-1,-8,-26,59,15,-11,-3,-6
1501936791937781,7,7,14,-112,15,10,4,-11
1501936791938720,-10,-7,13,1,-19,-9,4,39
1501936791938720,1,11,65,127,51,15,1,6
1501936791950750,-16,3,-31,-34,-10,-11,-6,-6
1501936791950750,-8,-13,-25,-4,-6,-5,-6,-7
1501936791959730,3,9,12,-49,-10,3,2,-11
1501936791959730,-3,-10,-33,58,7,-3,-3,5
1501936791974779,9,8,28,60,10,8,0,-18
1501936791974779,-6,-7,-45,-46,27,2,-2,28
1501936791976747,-6,-1,6,62,-22,-10,-4,-20
1501936791976747,13,0,-7,-68,0,1,5,19
1501936791997751,-7,0,-5,-76,-30,-7,-1,-7
1501936791997751,-22,-11,-19,-43,-1,-4,-8,-26
1501936791998728,6,8,30,-13,8,6,-1,11
1501936791998728,-14,-11,-32,-34,-17,-11,2,-27
1501936792010721,6,5,11,-5,6,1,0,17
1501936792010721,15,-4,11,10,-47,-5,-2,9
1501936792019730,5,-7,-38,-108,-6,2,-1,-2
1501936792019730,-7,-2,1,51,4,-1,-2,29
1501936792034718,14,4,10,22,3,6,2,0
1501936792034718,-28,-9,-24,-16,-22,-14,-6,-27
1501936792036718,2,-2,0,15,2,1,-3,-11
1501936792036718,20,0,5,67,17,5,1,6
1501936792057753,-1,-1,-9,-85,-2,3,3,7
1501936792057753,4,2,10,97,50,9,3,9
1501936792058721,-11,-5,4,-49,-52,-12,-4,-10
1501936792058721,-3,0,3,36,14,2,-2,-11
1501936792079762,5,4,21,52,12,1,2,19
1501936792079762,-11,0,27,-28,0,-3,-3,-40
1501936792081720,3,4,7,48,21,3,0,7
1501936792081720,9,0,10,9,-9,1,-2,4
1501936792094778,-9,-4,18,66,-24,-4,1,-15
1501936792094778,7,1,-10,1,-2,6,5,8
1501936792096723,3,-1,-10,32,9,-2,-2,-2
1501936792096723,-14,-2,-13,-24,-4,-3,-3,-11
1501936792117744,7,0,-7,93,81,7,2,8
1501936792117744,-13,-9,-53,-79,-65,-15,-1,4
1501936792118723,-4,-5,3,-34,11,-1,-8,-24
1501936792118723,0,5,29,22,-1,1,2,0
1501936792139766,-4,-11,-40,-94,-34,-5,-4,-2
1501936792139766,10,4,29,116,27,4,4,-4
1501936792141725,-1,4,27,21,1,1,1,17
1501936792141725,1,-5,-31,-79,-10,0,-4,-15
1501936792153730,-9,6,40,26,-4,3,-1,0
1501936792153730,12,6,-1,39,7,7,4,12
1501936792162725,3,-7,10,19,46,1,3,31
1501936792162725,-2,12,50,-87,-29,-4,3,-10
1501936792177740,4,-7,-20,6,11,-3,-6,12
1501936792177740,3,7,28,-15,14,7,1,0
1501936792178727,-11,10,36,89,4,-1,1,-39
1501936792178727,-20,-22,-71,60,5,-13,-7,-10
1501936792199767,19,2,8,-17,1,3,0,14
1501936792199767,-16,-2,-5,18,2,1,-4,-21
1501936792201727,-1,-2,-17,-50,-4,0,1,-1
1501936792201727,5,-1,6,12,4,2,2,11
1501936792214758,-9,-6,-18,-115,-43,-9,-7,-13
1501936792214758,19,-2,-13,-77,6,-2,-3,12
1501936792216728,-35,-4,-21,-56,-44,-6,1,-28
1501936792216728,13,3,43,59,3,-3,-6,24
1501936792237739,-8,-12,-58,-109,-18,-6,-1,9
1501936792237739,9,1,13,20,7,3,2,-2
1501936792238728,5,1,0,-38,8,2,-3,5
1501936792238728,-1,-3,-23,-9,2,3,4,-4
1501936792259772,-5,4,14,72,3,5,5,-9
1501936792259772,4,-7,8,104,2,-7,-5,25
1501936792261730,1,-10,-16,-20,-41,-7,-5,-1
1501936792261730,-5,6,10,-46,8,3,0,-18
1501936792273735,4,-9,-10,27,-14,-8,-3,3
1501936792273735,-3,-1,-26,-106,-24,-8,1,-7
1501936792280771,-2,6,31,54,39,14,4,14
1501936792280771,-4,-5,-19,5,-8,-3,0,-3
1501936792297746,-1,7,17,-57,-31,0,-1,-6
1501936792297746,-2,-2,19,88,9,-2,3,0
1501936792298733,4,-1,29,8,0,-2,-6,27
1501936792298733,-6,-5,-30,33,22,5,2,0
1501936792319804,-5,-1,-13,-82,-38,-11,-4,-2
1501936792319804,0,7,41,-8,-9,-7,-6,2
1501936792321734,30,0,-10,-19,2,2,11,21
1501936792321734,-22,-4,-13,-62,-31,-5,-3,-9
1501936792333778,-1,-10,-26,39,4,-1,-2,1
1501936792333778,0,1,7,58,30,9,0,1
1501936792340799,-10,-6,-35,-64,-51,-10,-2,-26
1501936792340799,31,6,34,8,18,1,-2,21
1501936792357753,-23,4,29,-85,3,2,-4,-39
1501936792357753,3,-6,-48,-71,-16,-4,-1,4
1501936792358737,-12,-8,-32,34,16,-4,-7,-26
1501936792358737,3,1,16,-2,-14,1,4,-4
1501936792379803,-1,-4,-13,5,-24,-2,-9,8
1501936792379803,-2,-2,7,-76,-1,-1,-5,-4
1501936792381738,-2,1,-15,-79,-7,1,1,-6
1501936792381738,-9,1,13,71,24,0,1,7
1501936792394767,12,8,46,39,12,6,3,7
1501936792394767,-10,-9,-43,-40,-29,-13,-7,-11
1501936792400738,-2,-4,-28,-38,-21,-6,0,3
1501936792400738,14,10,2,11,20,16,8,22
1501936792417749,-9,0,34,127,48,-4,-5,-55
1501936792417749,8,3,11,16,-5,-2,0,0
1501936792418738,1,-1,-7,61,19,2,-3,6
1501936792418738,-12,-3,-4,11,-3,1,-2,-21
1501936792439749,5,-1,-28,10,8,2,4,15
1501936792439749,2,5,34,34,13,3,2,10
1501936792441740,15,-3,-28,-92,-25,-5,-6,-1
1501936792441740,-4,-4,13,37,18,-5,-6,3
1501936792453812,4,6,17,95,32,7,7,13
1501936792453812,-2,10,4,57,-3,14,5,-8
1501936792460752,-6,-7,27,21,-23,-16,-4,-2
1501936792460752,-9,-4,-10,-18,-31,-9,-3,-16
1501936792477759,11,0,-16,-128,-19,-3,-3,41
1501936792477759,1,6,-30,-92,11,8,3,-41
1501936792478743,-5,1,22,88,21,8,-1,-2
1501936792478743,-1,-7,-21,-64,-27,-13,-6,-3
1501936792499804,1,7,15,38,12,3,4,6
1501936792499804,19,-7,5,-4,3,-4,-6,27
1501936792505782,14,-1,-16,-45,8,0,1,1
1501936792505782,-38,-4,-10,-53,-4,-5,-6,-19
1501936792513813,5,1,11,10,-5,-3,-2,-25
1501936792513813,-13,-2,7,62,20,6,1,-5
1501936792520744,-3,-3,-10,-78,-32,-3,0,-12
1501936792520744,18,5,14,32,4,6,7,60
1501936792537755,-18,-8,-53,-7,-11,-6,-5,-61
1501936792537755,-9,-4,-7,-27,-13,-19,-8,-12
1501936792538746,1,1,-1,84,28,18,4,14
1501936792538746,13,2,20,-15,-15,3,4,16
1501936792559814,32,-6,-16,-104,-21,-15,3,47
1501936792559814,-37,-5,-20,-24,-10,-9,-6,-56
1501936792561746,13,2,7,-11,-3,0,-2,28
1501936792561746,-9,3,22,8,15,4,2,-23
1501936792573814,10,-10,-46,2,-10,2,-4,29
1501936792573814,-2,-3,-7,-8,17,-6,-3,5
1501936792582779,-5,5,15,69,21,6,8,10
1501936792582779,8,4,14,4,4,-3,-5,-45
1501936792597762,4,-2,16,-5,1,-6,-7,-41
1501936792597762,-7,-4,-5,-74,-16,9,5,28
1501936792598749,0,0,-4,39,32,2,-5,-8
1501936792598749,2,-1,-6,7,-15,-3,-1,8
1501936792619807,-7,0,36,86,8,-1,3,24
1501936792619807,8,-4,-2,10,-6,-2,-2,14
1501936792621770,5,2,-4,-46,9,-2,-1,-6
1501936792621770,-5,-10,-34,-47,-1,-6,-8,4
1501936792633814,-11,6,44,105,14,6,1,1
1501936792633814,13,-3,-9,73,-7,1,3,8
1501936792642764,-27,-10,-23,-31,-21,-7,-6,-45
1501936792642764,-7,-10,-1,116,25,-11,-7,-6
1501936792657771,-3,-3,-22,-18,12,13,-2,11
1501936792657771,1,11,39,-101,-18,8,11,33
1501936792658753,-25,-11,-41,-49,-37,-17,-9,-56
1501936792658753,9,0,-12,-57,-9,1,-1,3
1501936792679795,1,2,-16,16,6,-5,-1,-9
1501936792679795,2,-3,-8,25,4,-5,-3,-4
1501936792681755,3,2,4,50,32,7,3,29
1501936792681755,-1,3,-1,-61,-34,-1,5,3
1501936792693795,-3,5,44,72,28,4,-5,-7
1501936792693795,-7,-6,-19,83,2,2,-3,5
1501936792702756,10,6,22,52,-8,-5,2,8
1501936792702756,-18,-14,-58,-21,-40,-13,-8,-4
1501936792717775,6,3,18,-5,1,3,3,17
1501936792717775,14,2,17,24,10,0,-1,-28
1501936792718758,-5,5,26,70,30,5,-1,-18
1501936792718758,5,1,35,47,17,4,1,-4
1501936792739801,-9,-10,-17,-35,-70,-15,-5,3
1501936792739801,2,-2,-9,-79,-23,-9,-1,11
1501936792741758,6,3,5,-18,-2,7,-2,12
1501936792741758,26,4,5,-119,9,4,3,19
1501936792753809,-25,-3,-11,-25,12,2,6,-45
1501936792753809,7,5,49,20,28,-3,-4,6
1501936792762759,3,-8,-56,59,6,3,1,25
1501936792762759,-24,-8,-10,87,11,-14,-11,-46
1501936792784828,-1,-2,-4,6,-13,0,-2,-4
1501936792784828,0,2,-7,18,-18,3,1,0
1501936792786796,0,-7,-1,-104,-33,-14,-5,18
1501936792786796,-4,0,2,24,9,4,3,4
1501936792799827,16,0,-12,-44,-2,-2,2,23
1501936792799827,-16,1,4,56,13,1,-1,-14
1501936792801761,4,0,13,-73,-12,0,2,2
1501936792801761,-5,-5,-22,39,-18,-14,-4,-8
1501936792813806,-6,0,39,-16,-7,10,-3,5
1501936792813806,36,0,-46,53,24,8,6,52
1501936792822762,-1,2,25,-28,-12,1,3,20
1501936792822762,-4,1,-5,-82,3,2,1,-33
1501936792837779,-9,0,-9,34,8,-4,-6,-13
1501936792837779,-5,-1,10,2,8,1,-2,-4
1501936792838764,-1,2,8,-4,-19,-8,-2,-1
1501936792838764,-2,-1,-9,36,18,13,2,5
1501936792859803,-4,2,14,58,-12,-5,0,-2
1501936792859803,-12,-5,12,-68,0,0,-1,-4
1501936792861773,-2,-2,1,54,17,-8,-4,-2
1501936792861773,-1,0,8,2,-14,3,-1,-10
1501936792873805,-4,-2,-26,-127,20,3,0,14
1501936792873805,-1,-2,1,64,0,-8,-2,-2
1501936792882769,-9,-4,-6,-84,-4,-3,-1,-17
1501936792882769,3,3,4,14,-3,1,-1,21
1501936792897775,0,-3,-25,29,9,-6,1,-1
1501936792897775,-3,-7,-14,5,-5,-1,-7,-5
1501936792898766,-5,3,9,25,10,13,8,-15
1501936792898766,7,-4,-21,20,-21,-4,-1,11
1501936792919811,-5,-1,13,28,29,-6,-3,-10
1501936792919811,7,0,16,19,-18,-4,-1,11
1501936792921798,-38,-15,-41,-16,-13,-10,-12,-51
1501936792921798,8,-1,2,-28,-3,5,0,12
1501936792933816,5,6,28,78,-8,6,6,10
1501936792933816,-1,1,-4,-114,-25,-5,-4,-11
1501936792942768,-4,-6,-20,46,3,-2,-2,6
1501936792942768,4,3,14,11,4,-2,-1,-3
1501936792957780,0,8,27,-17,11,7,0,-12
1501936792957780,-6,-5,6,10,-5,-5,-2,-5
1501936792958768,18,2,18,86,-1,0,0,12
1501936792958768,-7,9,36,18,8,3,2,3
1501936792979828,0,-8,-1,37,-6,-9,-2,-12
1501936792979828,-11,4,-6,17,7,1,-1,-19
1501936792981772,16,-1,-5,-58,23,-2,0,6
1501936792981772,-16,-6,22,109,10,1,-4,-23
1501936792993813,5,5,14,44,5,7,4,9
1501936792993813,-8,-4,-36,-24,-2,0,1,-18
1501936793002771,8,3,8,4,-6,-3,-6,-5
1501936793002771,-1,0,4,-36,1,1,1,3
1501936793017784,-12,-12,-42,-93,-9,-10,-8,-6
1501936793017784,-3,-2,-4,105,47,6,0,9
1501936793018782,-1,0,8,45,-15,-8,-2,-4
1501936793018782,12,6,2,-37,-1,1,1,10
1501936793039787,-15,-13,-70,-41,-32,-5,-7,-13
1501936793039787,0,1,25,20,12,0,6,5
1501936793041783,18,4,-4,-15,11,5,6,10
1501936793041783,-15,0,14,-30,9,4,-5,15
1501936793062785,-2,-6,-10,37,-15,-14,-3,5
1501936793062785,-9,0,5,-53,-4,3,-3,-28
1501936793063775,5,-1,2,-69,-28,-1,2,10
1501936793063775,7,2,-13,75,8,8,2,-11
1501936793077775,2,-2,27,-34,12,4,3,5
1501936793077775,-2,-4,-25,-24,-30,-14,-6,1
1501936793078781,-10,0,14,-33,0,8,1,-12
1501936793078781,3,-2,-16,-54,0,-3,0,7
1501936793099810,-8,-4,-23,46,1,-5,-3,6
1501936793099810,6,4,19,83,8,2,-2,-10
1501936793101787,-9,-2,-7,9,-11,-4,-3,4
1501936793101787,-1,-3,-7,-66,-37,-6,-3,-6
1501936793122802,-1,-5,-21,-41,9,-2,-4,-3
1501936793122802,1,3,7,-22,-21,-4,3,17
1501936793123801,0,1,-4,26,8,3,-3,1
1501936793123801,3,-2,-3,9,12,3,4,-2
1501936793137798,-13,-1,5,88,5,4,-6,-20
1501936793137798,21,5,27,41,13,0,-1,13
1501936793138781,-24,-6,-19,0,-2,0,0,27
1501936793138781,-4,-4,-14,-12,-1,-5,-1,-24
1501936793159821,8,2,6,69,16,4,6,4
1501936793159821,-4,-5,-9,-9,2,0,-2,-3
1501936793161781,0,4,38,53,-6,-14,-2,-2
1501936793161781,3,-1,4,7,-1,10,2,18
1501936793182783,5,-3,-21,-15,-15,-4,-5,-11
1501936793182783,-7,-3,3,31,13,5,3,0
1501936793183793,10,-11,-32,-104,-18,-6,-4,7
1501936793183793,-9,2,7,45,-27,-12,-3,-13
1501936793196838,7,3,-6,-31,3,-1,2,27
1501936793196838,20,1,11,-39,-18,1,1,10
1501936793203834,-11,-4,6,-5,15,0,-4,5
1501936793203834,2,-14,-62,-105,-6,-7,1,-3
1501936793219854,3,5,13,-81,-24,2,-2,8
1501936793219854,-8,0,-7,-13,15,7,1,-10
1501936793221783,9,8,14,93,41,5,0,-7
1501936793221783,12,-3,-15,-29,-3,4,0,20
1501936793242803,8,2,19,33,19,2,4,5
1501936793242803,-12,-2,-1,-54,-16,-4,-2,-10
1501936793243785,5,1,2,78,14,4,-1,-5
1501936793243785,-2,-5,-17,-38,-7,-10,-5,-1
1501936793256849,-9,2,15,-6,-5,-10,-1,-27
1501936793256849,-10,-3,-7,48,-6,12,-3,5
1501936793263828,-10,0,29,-29,4,4,2,-10
1501936793263828,4,1,-8,109,17,-4,0,35
1501936793279827,-12,1,-5,-110,-67,-7,-3,2
1501936793279827,-17,-6,-5,31,-11,-14,-5,-30
1501936793281795,6,-1,-10,53,13,4,6,15
1501936793281795,-3,-5,-14,-30,-51,-5,-9,-1
1501936793302805,7,2,19,-15,22,3,6,5
1501936793302805,-4,0,-8,-61,-7,-2,-5,-23
1501936793303825,8,0,0,-3,-3,-5,-2,14
1501936793303825,-15,0,3,25,17,8,2,-36
1501936793316795,17,3,14,19,31,9,4,34
1501936793316795,-23,-4,-4,-107,-50,-9,-2,-27
1501936793323866,19,1,6,37,11,2,-4,28
1501936793323866,-9,3,30,3,9,1,0,-20
1501936793339853,-2,-8,-27,4,-4,-4,-7,-16
1501936793339853,14,2,18,66,18,-14,1,35
1501936793341791,-8,-3,-23,-16,-4,19,0,-22
1501936793341791,4,0,13,-59,-13,-5,-1,5
1501936793362824,12,1,18,-9,-16,2,2,17
1501936793362824,-6,-2,-6,24,6,-2,-6,-19
1501936793363804,-6,0,4,-30,-18,-10,-6,-18
1501936793363804,1,-3,-8,-68,11,0,-3,-12
1501936793376860,-1,-3,-34,21,37,9,3,-4
1501936793376860,-1,-11,-41,-101,-40,-14,-1,-6
1501936793383839,-22,2,19,12,-7,0,0,-38
1501936793383839,9,-1,10,56,19,2,-1,23
1501936793399794,-7,-2,-15,50,7,0,-1,-6
1501936793399794,-1,2,5,-3,8,1,2,4
1501936793401797,-1,1,-13,7,-1,-2,0,-8
1501936793401797,3,0,8,33,24,-6,0,18
1501936793422811,5,-1,-8,-87,-77,-5,0,-8
1501936793422811,-9,6,20,1,21,6,4,34
1501936793423797,-6,3,28,96,23,1,-2,-20
1501936793423797,-1,-5,-43,-59,-32,-16,7,4
1501936793436837,-5,-6,-1,0,14,8,-10,-16
1501936793436837,12,0,8,24,10,9,6,24
1501936793443841,-1,0,0,-44,-12,-3,-1,0
1501936793443841,-10,-5,-18,7,11,1,-3,-11
1501936793460852,-8,2,1,34,20,-1,1,-4
1501936793460852,14,-4,-6,-67,-16,-7,-6,8
1501936793461799,-19,1,5,19,-15,-2,-1,-26
1501936793461799,2,-1,2,-41,-4,1,-2,-1
1501936793481844,1,5,6,63,13,3,2,15
1501936793481844,-9,-4,-12,38,-1,-7,-7,1
1501936793483798,10,1,2,-18,23,6,3,17
1501936793483798,-9,-2,-4,-35,-39,-1,-3,-30
1501936793496831,3,1,18,4,-2,-2,2,0
1501936793496831,-1,-3,-33,13,2,4,5,-4
1501936793503835,-3,-4,-14,-9,0,-4,-5,5
1501936793503835,3,0,-13,33,36,9,1,6
1501936793519817,-3,0,17,0,7,0,2,-1
1501936793519817,8,-3,3,17,4,-5,-9,-2
1501936793521800,-1,-3,-28,-80,-16,-16,-2,3
1501936793521800,-7,2,25,26,9,19,4,-11
1501936793542818,6,1,3,-35,7,-2,1,2
1501936793542818,-10,1,8,12,7,1,-1,-6
1501936793543810,4,-4,5,42,-5,-6,-4,10
1501936793543810,-8,6,33,89,20,-2,-4,-2
1501936793555845,-2,-10,-35,42,12,-8,-3,-1
1501936793555845,0,1,-21,-8,-13,2,1,-11
1501936793564801,0,0,7,-37,-2,-2,-3,1
1501936793564801,2,0,10,16,-8,-5,0,4
1501936793579849,3,9,30,98,22,7,1,12
1501936793579849,-10,-15,-24,10,-6,-13,-2,-18
1501936793581803,13,0,-5,-35,-17,-2,-1,54
1501936793581803,2,2,3,1,7,1,3,-2
1501936793602813,-7,3,46,58,-3,-5,-4,-9
1501936793602813,1,-6,-26,-17,38,7,2,-2
1501936793603835,-11,-4,-26,-60,-55,-7,-5,-22
1501936793603835,7,6,19,20,-11,-7,1,6
1501936793615854,-13,-7,-16,28,-4,3,-2,-7
1501936793615854,-4,2,10,73,13,-6,-2,-8
1501936793624805,9,-4,-8,-31,11,19,5,25
1501936793624805,-11,-5,3,56,-8,-11,-8,-16
1501936793639846,13,-1,-14,-71,-13,1,0,-1
1501936793639846,-10,-4,-7,-79,-3,-7,-4,-6
1501936793645869,13,-1,-16,2,2,0,0,10
1501936793645869,-11,4,35,67,42,16,9,-8
1501936793662824,-1,-6,-41,-87,-51,-12,-9,-4
1501936793662824,8,2,0,-13,-1,7,-1,12
1501936793663841,2,2,7,-17,-3,-5,-2,-18
1501936793663841,15,-1,1,9,6,3,0,17
1501936793675878,-29,-4,2,-34,3,-7,-4,-17
1501936793675878,6,3,9,3,-8,7,2,7
1501936793684808,0,-1,0,-5,0,-1,0,-1
1501936793684808,-3,-5,-14,5,-2,-12,-6,6
1501936793699850,6,5,32,-42,2,3,5,12
1501936793699850,-5,-3,-23,-6,-18,3,0,-8
1501936793701811,3,0,13,50,15,-4,-1,11
1501936793701811,-1,-4,-22,-63,-13,0,-2,8
1501936793721848,1,2,10,-7,0,-21,-6,-6
1501936793721848,-1,7,33,-6,1,21,1,-3
1501936793723811,-9,-6,-34,7,16,6,2,-19
1501936793723811,-13,-2,-3,10,16,2,-2,-8
1501936793735879,2,-2,-11,13,-25,-7,-2,4
1501936793735879,-3,6,11,88,11,0,-6,-18
1501936793744811,-3,-7,-10,8,-21,-12,-4,-5
1501936793744811,-15,-2,8,-1,-14,3,2,-34
1501936793759874,4,-1,-12,-62,5,5,0,6
1501936793759874,-1,2,17,19,4,-6,4,10
1501936793761847,-3,0,8,-14,-12,4,-6,-16
1501936793761847,1,-6,-26,43,10,-7,-4,1
1501936793782815,0,-1,-7,-1,-17,2,2,1
1501936793782815,0,1,-3,-20,-9,-3,-2,-7
1501936793783815,-6,-3,-1,38,15,-4,-2,3
1501936793783815,7,4,12,13,-3,-3,-2,4
1501936793795855,-11,-8,-29,-50,-11,0,-2,-11
1501936793795855,10,-2,3,3,9,0,-1,15
1501936793804818,2,6,19,54,14,1,2,-3
1501936793804818,14,-8,-13,-60,-41,-1,-8,11
1501936793819862,-9,-2,2,88,19,-3,0,8
1501936793819862,2,3,21,19,10,-2,-3,-11
1501936793821817,-11,-1,-2,-5,-13,1,6,-11
1501936793821817,5,0,-10,20,3,-1,0,1
1501936793842839,8,-5,-12,-43,1,-6,-2,1
1501936793842839,-8,-2,-7,-4,-17,0,-5,7
1501936793843825,-1,-2,6,-42,23,2,0,-9
1501936793843825,0,-1,-12,-22,-21,-5,0,13
1501936793855880,-8,-6,-10,57,5,-1,-4,-13
1501936793855880,2,0,-2,-57,1,-2,0,5
1501936793864819,-1,-1,1,25,5,0,-1,-15
1501936793864819,-3,1,14,24,4,1,1,-4
1501936793879860,6,7,19,-19,8,2,1,4
1501936793879860,12,-4,-1,62,-2,-5,-3,8
1501936793881821,-8,-2,-6,-18,-24,-9,-2,9
1501936793881821,3,-1,-7,-22,5,-2,-3,1
1501936793901864,7,1,2,50,-7,5,4,5
1501936793901864,-1,0,8,48,7,1,-3,-10
1501936793903821,0,1,6,-78,-20,0,7,-5
1501936793903821,-15,1,3,-56,0,-6,-4,26
1501936793915821,-3,-1,5,20,5,0,-3,-22
1501936793915821,-2,-8,-18,67,18,-6,2,8
1501936793924823,6,3,0,40,8,-1,-2,-10
1501936793924823,-7,-2,-16,-22,8,6,4,-18
1501936793939863,5,7,4,-32,-20,0,0,16
1501936793939863,-7,-4,12,-12,-17,-11,-3,-3
1501936793941823,2,1,11,115,28,5,-1,0
1501936793941823,3,-2,-14,-51,-20,-8,-3,-1
1501936793961888,6,3,13,-53,4,8,0,2
1501936793961888,-5,3,-4,-32,-11,3,5,2
1501936793963857,6,-3,-11,3,5,-2,-1,-19
1501936793963857,2,-1,4,7,6,-1,-7,-8
1501936793984864,-5,-4,0,28,4,-7,-1,-5
1501936793984864,0,3,2,10,-7,6,1,-4
1501936793986860,-3,-3,0,-35,-10,-4,-3,7
1501936793986860,6,4,18,28,4,-11,0,4
1501936793999865,2,2,4,5,17,18,5,-8
1501936793999865,-6,1,15,-49,14,-7,-5,1
1501936794001839,-12,-6,-43,-82,-36,-10,-6,-3
1501936794001839,5,0,12,17,-3,-2,6,-2
1501936794022866,-3,-3,-4,14,5,2,-3,-9
1501936794022866,3,5,7,54,32,8,1,-2
1501936794023828,-2,-2,-1,9,-3,1,-1,4
1501936794023828,-2,-1,9,-4,-8,-4,-4,0
1501936794044870,0,2,-6,-14,8,-4,3,10
1501936794044870,-1,-5,-12,-69,-40,-6,-1,-16
1501936794046850,-11,-5,-4,-7,-2,-7,-6,-17
1501936794046850,-8,-3,-3,90,6,3,2,-2
1501936794059878,-2,-3,-20,-29,-4,-2,-6,3
1501936794059878,0,-1,-1,34,-4,-3,-2,-3
1501936794061830,4,3,17,-39,0,3,3,24
1501936794061830,-7,-4,-13,-5,-6,-1,-3,-33
1501936794081871,-9,-9,-18,28,1,-3,1,-9
1501936794081871,-7,-7,-23,-22,-14,-24,-6,-5
1501936794083864,3,1,3,79,22,25,2,5
1501936794083864,10,4,23,21,16,12,6,26
1501936794104875,-7,-6,-5,-52,-26,-12,-5,-16
1501936794104875,5,3,21,11,12,7,0,6
1501936794106833,-1,-6,-22,-46,-21,-10,1,1
1501936794106833,-2,-1,0,10,-4,-3,0,0
1501936794119875,-8,1,26,37,6,-1,-2,-4
1501936794119875,8,8,29,68,34,8,3,3
1501936794121837,-7,-3,-3,75,3,-6,-6,-10
1501936794121837,2,-2,-13,-42,0,5,0,3
1501936794142855,-2,-3,-10,84,0,-6,-2,4
1501936794142855,13,9,29,-55,-18,4,4,5
1501936794143847,-10,-5,-9,-17,-1,-1,0,0
1501936794143847,3,-1,-7,-20,-8,-5,-4,-5
1501936794164903,-1,-1,7,20,3,-4,0,2
1501936794164903,-2,-1,-11,-21,2,-4,-5,-7
1501936794166836,0,1,-5,-9,-1,-4,2,2
1501936794166836,4,2,1,-28,-13,13,2,3
1501936794178880,0,0,2,-10,7,1,-1,2
1501936794178880,5,-9,-30,-47,-8,-6,-1,7
1501936794185877,-12,0,-1,-120,-35,-8,-2,-18
1501936794185877,-4,-5,6,19,4,-5,-2,-2
1501936794201879,1,3,-11,-67,-4,4,-1,-5
1501936794201879,6,-4,-13,-7,-1,2,3,22
1501936794203848,3,8,27,84,30,5,-2,-13
1501936794203848,-5,-2,-47,-52,7,-5,0,-2
1501936794224912,0,-5,-12,-23,17,0,-4,7
1501936794224912,-11,1,1,-37,-23,1,2,-14
1501936794226839,5,-2,4,56,3,-1,-1,10
1501936794226839,1,6,18,85,8,3,5,2
1501936794238908,-2,2,21,20,3,-3,-8,-13
1501936794238908,1,-5,-23,14,10,0,-2,7
1501936794245901,-2,0,1,20,17,6,3,1
1501936794245901,5,1,6,-56,-22,-4,-1,-8
1501936794262864,9,-4,-16,69,-5,-9,1,34
1501936794262864,-7,-6,-4,-6,-5,7,-4,-11
1501936794263852,-5,1,9,22,-27,-4,-1,-8
1501936794263852,-2,1,3,-1,6,-5,-2,-6
1501936794284885,0,-3,-24,-86,-20,-4,2,6
1501936794284885,-3,2,3,11,-6,5,0,0
1501936794286842,10,-2,-5,-15,10,-3,2,7
1501936794286842,11,-3,-3,8,6,2,-3,23
1501936794298882,-8,5,19,0,-7,-2,1,-15
1501936794298882,-4,1,7,79,24,2,0,-7
1501936794305886,5,4,-26,15,2,4,-1,3
1501936794305886,2,-3,27,45,-26,-13,-3,5
1501936794322862,0,0,2,-30,11,1,-1,-6
1501936794322862,0,0,0,81,15,6,0,10
1501936794323855,5,3,11,-91,-14,1,-1,8
1501936794323855,-7,-7,-21,3,6,-1,-4,-10
1501936794344886,-2,-6,-13,37,-8,-3,-1,-1
1501936794344886,-7,-2,8,17,-8,-6,-1,-3
1501936794346845,-5,2,15,-25,8,-3,-3,-15
1501936794346845,1,1,14,-12,-20,-13,-3,3
1501936794358912,-3,0,13,66,12,18,-4,-7
1501936794358912,-17,-6,-33,22,-8,-4,-5,-17
1501936794365854,7,-3,-3,5,0,-3,0,15
1501936794365854,-10,-3,-10,-35,12,1,-2,-2
1501936794381889,-2,-1,11,92,9,-4,-2,-3
1501936794381889,3,-1,-1,-10,-6,-5,-2,-1
1501936794383847,-1,-4,-12,10,5,0,-3,-1
1501936794383847,-4,-4,-18,3,20,4,-4,-7
1501936794404916,3,-3,3,-29,-7,1,7,12
1501936794404916,-3,-2,-5,-44,-15,-6,-1,2
1501936794406851,0,-2,12,65,11,-1,-2,-11
1501936794406851,3,-4,-34,-76,8,-7,-1,8
1501936794418891,-7,-2,-7,-56,-16,2,-2,-14
1501936794418891,10,0,4,-37,-4,-5,1,13
1501936794425893,-6,-1,-1,-49,-1,-1,-7,-1
1501936794425893,6,0,7,92,12,4,1,21
1501936794441894,-2,-4,-12,-58,-27,-7,-2,-6
1501936794441894,3,4,25,-38,1,4,2,4
1501936794443884,-6,-5,-25,8,-5,-16,-5,-4
1501936794443884,-3,2,22,18,6,20,5,-2
1501936794464919,1,-1,-30,-28,1,-5,-3,-3
1501936794464919,1,0,1,-16,3,1,2,2
1501936794466853,4,4,19,33,-1,-1,4,13
1501936794466853,-9,-5,-31,-3,-1,-8,-8,-28
1501936794478985,1,-1,2,-80,-58,-4,3,17
1501936794478985,1,1,-11,-55,-9,-2,0,-23
1501936794487035,-9,-7,6,55,4,-2,-6,-6
1501936794487035,-4,-1,-5,9,2,0,4,-3
1501936794502009,7,5,18,78,19,6,1,6
1501936794502009,-4,-2,0,19,-2,-5,-4,0
1501936794503999,1,-2,-11,-68,-9,1,1,-1
1501936794503999,-2,2,3,-31,-11,1,1,-3
1501936794525032,1,1,20,57,21,-8,-3,-5
1501936794525032,-6,-6,-12,21,-3,10,-2,-8
1501936794526007,-2,3,7,-34,4,0,9,10
1501936794526007,-3,-5,-18,-20,-13,-8,-10,-3
1501936794538004,-1,1,-5,-1,14,4,3,2
1501936794538004,-5,1,-13,0,-10,-7,-3,-17
1501936794547036,-5,-8,13,-74,-13,-2,-2,-5
1501936794547036,-3,0,-8,-10,-12,0,1,-2
1501936794562014,3,2,15,35,13,-3,-1,4
1501936794562014,0,-5,-21,-34,15,0,-1,8
1501936794563975,3,3,-5,34,3,7,-1,-6
1501936794563975,-9,2,47,-38,-1,-2,-4,-17
1501936794584022,3,-6,-27,61,-5,-5,0,1
1501936794584022,-3,3,14,14,9,-2,0,-4
1501936794592006,9,-2,-14,37,26,8,1,10
1501936794592006,-10,-1,7,1,-3,-4,-3,3
1501936794598037,-5,0,4,8,9,2,-2,-19
1501936794598037,1,-2,5,-29,-10,-7,-2,2
1501936794607043,-4,0,2,-7,-4,5,3,-4
1501936794607043,5,1,-6,-28,-5,-5,2,-3
1501936794622017,-3,-6,-13,-20,8,2,-7,-4
1501936794622017,1,2,-18,-90,-22,-6,6,4
1501936794623978,-5,-8,9,65,10,-5,-7,-8
1501936794623978,7,6,17,41,7,8,7,5
1501936794644014,-3,-2,8,4,5,-8,-3,1
1501936794644014,-7,-1,14,21,0,0,-5,-11
1501936794652045,5,-4,-40,56,4,5,0,3
1501936794652045,-6,-6,-31,-56,-25,-10,-4,0
1501936794658037,-1,3,1,1,-5,4,3,4
1501936794658037,0,-8,-8,34,-6,-10,-6,11
1501936794667025,5,10,33,-9,5,10,5,-5
1501936794667025,3,-4,-14,71,10,3,-1,0
1501936794682023,-3,2,4,-97,-22,-15,-6,-5
1501936794682023,5,1,30,83,31,22,3,10
1501936794683980,-1,-2,-34,-76,-36,-14,-1,3
1501936794683980,4,1,13,71,13,2,-3,-8
1501936794705018,-5,-4,-12,5,-3,-1,2,2
1501936794705018,0,3,12,-15,-11,0,0,3
1501936794706016,-3,1,11,4,-1,-6,0,3
1501936794706016,3,-3,-23,-10,6,3,-6,0
1501936794717986,-1,-1,1,53,1,-3,1,0
1501936794717986,-6,-6,-5,-48,-12,-8,-4,-16
1501936794727027,1,0,4,-17,7,3,0,5
1501936794727027,-3,-1,-12,-81,-34,-4,6,1
1501936794741982,4,4,28,3,30,7,-1,3
1501936794741982,-5,-5,-26,-18,-10,-3,0,-1
1501936794743984,-1,2,11,14,-1,-3,-3,-10
1501936794743984,0,-4,14,91,24,2,-4,5
1501936794765012,4,8,31,87,38,19,4,-15
1501936794765012,1,0,12,-39,-19,-18,-7,1
1501936794765984,-6,-2,15,32,-14,-6,-4,0
1501936794765984,-2,-6,-40,5,-1,-9,0,-2
1501936794778055,0,1,2,-5,-4,18,8,0
1501936794778055,-2,-1,-3,18,10,3,3,-7
1501936794787048,2,0,6,21,3,-5,-3,-2
1501936794787048,-2,1,26,-57,-18,-8,-5,-1
1501936794802027,0,-4,-6,-2,-12,2,1,-1
1501936794802027,2,2,7,109,21,2,-2,-3
1501936794804006,-4,-7,-42,-106,-34,-2,-3,4
1501936794804006,-5,1,7,14,-12,-5,0,-12
1501936794824990,6,-3,-9,-38,-4,-6,-3,2
1501936794824990,-12,-1,-21,-15,-11,3,3,1
1501936794825987,1,4,27,42,17,-2,-4,-2
1501936794825987,-2,-3,-17,-55,-1,2,3,3
1501936794838047,-2,-6,-25,24,-17,-10,-4,4
1501936794838047,1,-1,7,33,18,7,1,-5
1501936794846997,-2,-2,-14,-75,4,1,-2,-4
1501936794846997,-1,0,12,64,26,-7,-2,4
1501936794862032,1,3,-3,-102,-17,8,0,4
1501936794862032,4,0,-20,-37,-6,1,1,2
1501936794863990,-2,-3,6,58,3,-3,-2,0
1501936794863990,-4,-1,12,-3,5,-1,-4,-4
1501936794885036,-2,4,16,56,19,3,0,-4
1501936794885036,-3,-10,-11,72,-28,-15,-5,3
1501936794885993,-1,-4,-11,-73,-6,2,0,-3
1501936794885993,4,2,6,8,2,2,5,8
1501936794898028,1,-3,4,3,31,1,-3,0
1501936794898028,-11,3,6,-29,-31,-2,-2,-11
1501936794906999,-1,2,9,46,0,-3,0,0
1501936794906999,-1,0,-1,-17,-16,-3,-1,-3
1501936794921055,1,-2,7,29,-2,1,1,12
1501936794921055,0,-2,20,25,19,2,1,-9
1501936794929994,-4,-4,-21,-14,-9,-9,-3,-5
1501936794929994,11,11,39,32,18,8,0,3
1501936794945036,-7,-12,-46,-1,-27,-12,-3,-3
1501936794945036,5,3,8,-28,16,3,-2,6
1501936794945995,-5,1,6,56,-7,-10,-2,-6
1501936794945995,1,-1,1,-70,-7,14,5,-3
1501936794967036,-6,0,-2,5,10,-3,-2,-9
1501936794967036,4,0,-2,-38,-16,1,1,6
1501936794969017,-2,-5,-17,39,3,-6,-5,-7
1501936794969017,0,-5,-26,-41,-14,-8,-4,5
1501936794982061,-2,-1,1,-24,-14,1,-2,-1
1501936794982061,2,2,-3,-11,17,0,0,7
1501936794988004,6,10,31,77,7,12,4,3
1501936794988004,-5,-4,-4,79,-16,-6,-1,-1
1501936795005063,-5,2,13,13,-4,-6,-3,-8
1501936795005063,-1,-1,-18,-42,-15,-4,-4,2
1501936795006034,1,-3,-6,-61,-7,-1,2,2
1501936795006034,2,0,8,31,7,-9,-4,1
1501936795027046,-4,-2,-11,-86,-7,6,-1,-9
1501936795027046,7,4,18,29,2,-3,-5,9
1501936795028998,-1,-2,-14,-7,0,16,4,8
1501936795028998,-3,0,5,3,-2,-2,2,-3
1501936795042039,2,-2,6,-24,9,-11,-6,-3
1501936795042039,0,-1,-11,-37,-7,-2,1,3
1501936795044012,-5,0,-3,-19,0,-1,-3,-6
1501936795044012,-3,-3,-3,-25,-3,0,-5,-2
1501936795065068,4,3,12,31,2,5,4,-1
1501936795065068,-5,-6,-13,61,4,-2,0,-5
1501936795066002,-2,-1,0,-72,-26,-8,-1,-2
1501936795066002,6,3,8,62,25,8,1,7
1501936795087045,-6,-3,-13,-31,-31,-20,-5,1
1501936795087045,0,-6,-16,12,14,5,-1,1
1501936795089002,-6,0,9,0,5,4,3,0
1501936795089002,-1,0,9,-10,4,-1,-2,0
1501936795102017,-1,-3,-22,9,-17,5,-3,-7
1501936795102017,-3,0,21,68,17,-1,0,-3
1501936795108064,2,0,4,-14,-2,2,-1,0
1501936795108064,-3,-8,-39,-33,-1,0,-3,-4
1501936795125065,-3,-1,5,-53,-9,-7,0,1
1501936795125065,3,3,9,35,4,2,0,0
1501936795126005,-1,-6,-13,45,20,-1,-5,-7
1501936795126005,-1,3,10,-4,-16,-1,3,-3
1501936795147020,0,-2,-2,-19,7,2,-4,1
1501936795147020,-2,2,27,58,10,-1,1,-4
1501936795149006,0,-3,-16,45,3,-1,2,12
1501936795149006,-4,-3,-19,-25,4,-4,-4,-10
1501936795161074,-7,-4,-11,-7,-9,1,-1,-6
1501936795161074,2,3,3,-1,-6,2,-3,0
1501936795169048,2,1,6,-3,0,-3,-2,3
1501936795169048,-1,0,6,4,8,0,0,1
1501936795184068,0,0,5,52,-13,-18,-2,-1
1501936795184068,-1,-1,-11,-65,-17,21,4,-2
1501936795185042,0,-3,18,78,20,-5,-3,0
1501936795185042,-7,-1,-8,1,-4,-3,-2,-9
1501936795207079,3,-4,-16,-73,-20,-2,-2,2
1501936795207079,-1,-2,6,-4,1,-10,-4,-2
1501936795208042,-1,1,-7,-62,-6,4,3,1
1501936795208042,-1,-1,-16,96,5,1,-2,-1
1501936795221049,-2,0,8,-23,-18,-3,-1,0
1501936795221049,0,-4,-18,-26,-14,-5,1,4
1501936795229074,-3,0,8,2,-12,-4,-3,-11
1501936795229074,0,1,6,-13,2,5,3,3
1501936795244074,2,2,6,89,21,4,1,6
1501936795244074,-7,-7,-18,-66,-10,-9,-4,-14
1501936795245046,2,1,8,0,7,-10,-4,0
1501936795245046,1,-1,4,-19,-1,15,2,4
1501936795267026,3,2,5,7,7,-3,3,2
1501936795267026,2,1,5,48,14,10,2,-1
1501936795267026,1,0,-1,18,10,0,-1,0
1501936795267026,-3,-3,-4,-74,-25,-15,-6,-4
1501936795281053,-1,1,5,6,4,0,-1,2
1501936795281053,-2,1,4,15,1,-7,-1,0
1501936795289078,-3,-3,-9,-18,-10,3,1,-2
1501936795289078,1,-1,-6,-18,4,1,-1,3
1501936795304080,0,-3,-4,-24,7,2,-2,-3
1501936795304080,-1,0,-3,-36,-14,-9,-2,1
1501936795305049,-1,0,1,5,1,-1,-3,-2
1501936795305049,1,1,9,7,3,6,3,1
1501936795327032,-1,0,0,24,11,4,1,1
1501936795327032,-2,-1,0,-15,-13,-3,-4,-4
1501936795327032,-1,-3,-15,-21,-5,-3,-2,-2
1501936795327032,0,-2,3,13,-4,-14,-5,-1
1501936795341080,-1,-1,-1,2,0,11,1,-2
1501936795341080,-1,-1,0,-17,6,3,-2,2
1501936795349073,-2,0,2,0,-1,-2,0,-1
1501936795349073,-4,-2,-2,-9,-10,-6,-3,-1
1501936795364055,-1,-2,1,9,2,-10,-6,-2
1501936795364055,0,1,0,-1,8,9,3,-1
1501936795365018,1,-3,-3,0,-1,4,1,1
1501936795365018,-1,-1,1,1,1,0,-2,-2
1501936795387034,0,0,-2,-3,-2,-3,0,1
1501936795387034,-1,-1,-5,11,0,-5,-2,-1
1501936795387034,-2,-1,-4,-15,-5,0,-1,-2
1501936795387034,0,-1,-1,5,14,-3,-2,-1
1501936795401094,-2,-1,3,5,-14,4,0,-3
1501936795401094,-3,-1,-1,-5,-2,-7,-3,-1
1501936795409086,-1,1,2,4,3,-3,-2,-2
1501936795409086,0,0,1,1,3,3,0,0
