timestamp,emg1,emg2,emg3,emg4,emg5,emg6,emg7,emg8
1501936722063125,-4,-9,-31,-27,2,-14,-7,-5
1501936722063125,-11,-9,-47,24,20,-12,-19,-9
1501936722065147,0,1,-36,-89,-93,-5,15,24
1501936722065147,6,4,13,97,48,4,-5,-12
1501936722065147,-13,-4,10,61,48,2,6,10
1501936722065147,16,25,29,-72,4,20,14,13
1501936722066085,-7,-11,47,-10,17,-7,-10,-5
1501936722066085,11,12,3,-68,27,5,3,6
1501936722068151,-2,0,52,46,31,-4,-19,-10
1501936722068151,8,0,21,3,-15,1,5,14
1501936722077105,-19,-9,-29,108,38,-4,-9,-38
1501936722077105,17,7,-17,-111,-82,13,17,23
1501936722091089,5,-3,-3,41,-33,-10,-2,-2
1501936722091089,-22,-7,-21,-48,18,15,-7,-12
1501936722097108,20,4,8,-27,-14,-10,-2,12
1501936722097108,-10,-13,-44,26,-62,-12,-3,-19
1501936722106096,2,3,-2,-84,6,-2,-7,1
1501936722106096,-7,-9,-5,-35,-11,-1,2,-2
1501936722128144,0,-1,-2,86,59,16,14,15
1501936722128144,-15,-10,-11,-54,-17,-23,-34,-19
1501936722129099,18,7,26,-26,-19,5,35,21
1501936722129099,3,14,48,43,-42,-7,-1,-4
1501936722175099,-1,-6,20,-65,-31,-5,-8,-4
1501936722175099,4,11,40,75,22,10,12,2
1501936722176091,-3,-4,-30,72,3,2,-1,2
1501936722176091,-8,-24,-84,115,-29,-19,-24,-19
1501936722177090,-6,5,20,-36,-36,-5,8,13
1501936722177090,6,-8,10,52,-13,-5,-1,2
1501936722179094,-1,7,33,81,51,8,1,-3
1501936722179094,-6,-9,-38,-72,-62,-11,-3,-5
1501936722187098,-1,-4,-17,63,-25,-9,-4,0
1501936722187098,-5,-5,-46,-43,26,9,2,-5
1501936722196094,8,12,26,-3,-5,11,-6,-8
1501936722196094,-3,-10,-4,-55,-34,-26,7,21
1501936722202139,9,-17,-30,79,26,-2,-2,-12
1501936722202139,17,17,18,-97,-34,8,4,9
1501936722225160,-21,-13,-1,-42,49,3,3,5
1501936722225160,-2,4,41,-125,-60,-4,-4,-17
1501936722226106,-3,4,-7,-109,-7,-5,0,-4
1501936722226106,7,-7,1,3,17,-4,-7,19
1501936722248131,9,0,-10,2,-11,1,-5,-4
1501936722248131,-3,10,14,21,79,22,6,4
1501936722249097,-10,-5,57,107,72,2,0,3
1501936722249097,-9,-4,-3,-55,-62,-18,-12,-9
1501936722262142,5,-3,-4,-31,-22,-15,-7,8
1501936722262142,4,-6,-41,21,24,10,8,-13
1501936722263143,22,30,75,97,120,48,12,8
1501936722263143,-10,-2,16,127,11,-27,-8,-6
1501936722285140,2,-10,-11,80,-4,-13,-7,-7
1501936722285140,-8,7,26,26,28,8,-2,-1
1501936722286102,9,3,-33,101,58,15,-2,6
1501936722286102,-25,-31,-103,-99,-31,-7,-13,-18
1501936722308140,1,8,10,-32,-50,-8,34,16
1501936722308140,11,17,44,-14,28,8,-4,-4
1501936722309102,-15,-4,-24,11,-18,-8,12,11
1501936722309102,-2,2,-9,-43,22,13,-12,-35
1501936722322141,-5,-9,-13,-100,-10,-20,-11,-6
1501936722322141,-2,-3,11,-11,41,6,-3,-13
1501936722323102,1,-3,-3,-14,-43,-10,-3,21
1501936722323102,5,7,12,-82,-38,0,-1,-7
1501936722345172,-11,0,45,109,34,12,-6,2
1501936722345172,6,-2,-11,70,-20,-16,1,2
1501936722346103,6,1,-41,-58,-6,-4,-13,-14
1501936722346103,-15,0,26,85,30,17,13,22
1501936722368137,2,9,20,-23,49,5,2,-4
1501936722368137,-5,-9,-8,-15,-51,-15,-21,1
1501936722369107,17,8,14,-54,-2,11,9,-7
1501936722369107,20,-2,-19,-81,41,3,12,13
1501936722382140,-7,-6,-5,-79,-71,-18,-22,-20
1501936722382140,-5,1,3,74,15,8,2,-1
1501936722383144,-6,-5,-28,-59,-33,0,12,11
1501936722383144,15,27,61,127,70,29,6,6
1501936722405179,-5,-1,-24,-128,-106,-16,0,-5
1501936722405179,11,7,47,35,61,16,5,4
1501936722406107,0,-19,-51,-43,-66,-30,-25,-4
1501936722406107,-14,11,33,3,28,12,15,-7
1501936722428120,-5,-26,-57,44,57,-8,3,1
1501936722428120,-15,-3,-13,-46,-25,-6,7,7
1501936722429107,24,6,6,-25,36,10,-9,-4
1501936722429107,-25,-4,-4,-84,-45,-7,-10,0
1501936722442150,7,4,31,127,60,3,-7,-18
1501936722442150,-4,-2,4,-53,-59,-9,-1,2
1501936722443119,-15,-1,25,46,-93,-8,1,-11
1501936722443119,17,-2,9,114,11,-5,-11,-11
1501936722465151,-5,-1,-22,38,2,7,21,16
1501936722465151,11,11,62,80,73,25,0,3
1501936722466109,-1,15,41,-46,28,-11,-5,2
1501936722466109,-12,-13,3,-85,-57,-13,-4,3
1501936722488178,10,21,64,-124,-28,20,7,-4
1501936722488178,2,-12,-40,-4,-31,-20,-12,1
1501936722489146,-6,-5,7,72,78,9,11,6
1501936722489146,-13,-6,0,-11,-69,-21,-14,-6
1501936722503136,9,-8,-86,-17,7,6,-1,9
1501936722503136,21,17,45,48,61,9,15,19
1501936722503136,-30,-12,-2,36,-81,-18,-16,-21
1501936722503136,17,3,-17,55,19,-1,2,16
1501936722525177,-17,-3,-23,-23,-26,1,-4,-7
1501936722525177,8,6,16,33,-16,1,4,2
1501936722526127,-12,-11,-32,-94,-39,-8,-4,-7
1501936722526127,-3,2,28,80,26,-1,1,-4
1501936722548156,2,-3,4,29,17,3,1,10
1501936722548156,-2,-2,-9,67,19,-3,-5,1
1501936722549114,-1,-9,-32,55,24,8,2,-3
1501936722549114,0,-3,-29,24,6,0,-3,-6
1501936722562157,8,11,50,60,47,7,-4,0
1501936722562157,-12,-14,-32,-24,-46,-18,0,-2
1501936722570161,-2,3,12,39,34,9,3,-3
1501936722570161,-2,6,5,-49,-26,-7,5,-4
1501936722585181,-3,-3,-2,60,31,3,-6,0
1501936722585181,-7,-11,-43,-53,-22,-2,-1,-9
1501936722586117,-4,3,31,-66,-19,-13,-9,-5
1501936722586117,-3,-11,-37,-83,-13,-8,4,-6
1501936722608158,15,4,-4,-48,-7,-3,-2,1
1501936722608158,-10,-12,-37,27,15,-1,1,5
1501936722609118,9,-2,-17,-68,-38,-10,-4,8
1501936722609118,-12,-3,13,-12,13,-4,-5,-7
1501936722622181,-6,-4,1,52,-45,-6,-2,-2
1501936722622181,7,10,16,-85,-17,5,-6,-4
1501936722630182,-1,0,21,114,63,15,11,0
1501936722630182,2,-6,-32,-37,0,-10,-1,10
1501936722645185,2,-10,-22,-66,8,-5,-13,-17
1501936722645185,-9,3,-2,32,3,4,5,6
1501936722646120,6,5,14,-6,20,2,2,-16
1501936722646120,9,3,17,-36,-3,3,-13,2
1501936722669164,-26,-8,-5,63,24,-3,16,-8
1501936722669164,-6,1,40,-6,-7,-8,-5,-11
1501936722670121,-5,-7,-31,-20,-15,-7,0,2
1501936722670121,5,4,19,84,35,18,5,-2
1501936722682163,7,-1,-19,-56,-25,-15,-9,6
1501936722682163,-5,-11,-67,-82,2,-3,-2,-6
1501936722690184,-10,4,3,-25,-4,2,4,-17
1501936722690184,7,-3,24,-26,25,2,-4,6
1501936722705165,-8,-11,-52,-47,-15,-7,0,2
1501936722705165,18,7,17,-30,0,5,-3,-7
1501936722706127,-20,-6,-25,-84,-2,-2,1,-5
1501936722706127,-4,-6,-16,-28,-21,-4,0,-6
1501936722728165,9,3,31,64,9,-1,-7,8
1501936722728165,-9,-3,21,75,7,-7,0,-16
1501936722729124,6,7,3,-47,-5,8,6,11
1501936722729124,5,2,-17,41,8,1,4,12
1501936722742167,-3,1,24,38,19,6,5,-2
1501936722742167,-2,2,22,-4,11,-6,-9,6
1501936722750190,1,4,29,99,3,-6,-4,6
1501936722750190,-22,-15,-59,-47,-18,-8,0,-26
1501936722765169,1,1,1,-65,-33,-3,-7,1
1501936722765169,-3,1,15,30,20,8,3,0
1501936722766126,1,2,-1,-51,-14,-1,-6,-27
1501936722766126,1,7,38,65,7,5,2,8
1501936722788176,22,5,-12,22,23,-1,-3,4
1501936722788176,-12,4,9,8,-17,8,13,7
1501936722789128,-5,-3,-4,43,9,-4,1,-7
1501936722789128,-2,-2,-20,17,24,-5,-13,-6
1501936722802168,23,0,-3,9,6,4,1,-7
1501936722802168,-17,0,-9,-38,-49,-9,-4,-12
1501936722810193,7,1,-15,-50,1,-4,-2,14
1501936722810193,-8,-8,18,84,28,-6,1,-9
1501936722825170,1,3,13,5,-35,1,1,24
1501936722825170,20,-4,-14,8,19,3,-5,6
1501936722826130,2,-3,-17,25,19,7,0,-13
1501936722826130,-18,8,20,-56,13,8,5,-21
1501936722848141,-13,-2,-4,-64,-6,-4,-16,-16
1501936722848141,14,2,-5,6,-30,0,13,4
1501936722849142,-15,-3,-21,-43,-27,-5,-7,17
1501936722849142,23,3,-16,-35,11,1,5,18
1501936722862142,-8,-1,-13,-68,11,5,3,-3
1501936722862142,-5,-4,4,-2,-8,-7,-9,-2
1501936722870130,8,3,25,-27,-2,2,-3,5
1501936722870130,-3,-2,-22,-85,-35,-3,-1,0
1501936722885139,-3,-3,5,127,42,6,2,1
1501936722885139,-8,4,19,-50,-7,-3,4,7
1501936722886133,-17,-20,-48,-36,-28,-13,-13,-20
1501936722886133,12,2,38,115,7,-1,2,13
1501936722908181,-5,0,25,17,6,1,-1,-8
1501936722908181,1,-5,-14,14,9,-5,-2,4
1501936722909135,5,-3,1,-11,-2,8,2,4
1501936722909135,2,6,1,32,27,9,-1,0
1501936722922175,16,12,47,31,-56,13,0,9
1501936722922175,-13,-15,-21,-85,-34,-22,-3,2
1501936722930199,-6,0,5,11,5,0,8,-28
1501936722930199,-4,5,36,-20,-10,-1,-3,-2
1501936722945178,-2,-10,-60,-58,-14,-6,-3,-3
1501936722945178,1,2,6,20,34,10,-6,-11
1501936722946147,13,-1,-2,12,22,-4,-2,19
1501936722946147,-4,1,3,-54,-40,-9,-3,3
1501936722968179,-7,0,13,20,14,2,2,-16
1501936722968179,3,7,17,-53,13,10,-1,0
1501936722969137,-3,-3,-6,81,16,-7,-4,14
1501936722969137,2,5,-13,-101,-7,0,-11,-17
1501936722991155,-3,-5,22,-39,-47,-18,19,12
1501936722991155,9,-3,-51,-6,5,5,6,10
1501936722991155,19,5,18,39,-1,4,-1,36
1501936722991155,-15,-2,-4,85,30,1,-8,-33
1501936723005156,-6,5,27,18,28,0,-5,-6
1501936723005156,0,-8,13,68,-26,-3,2,4
1501936723006163,6,4,23,7,-16,-6,-4,-10
1501936723006163,-13,-8,-5,22,-11,-6,3,6
1501936723029160,-7,2,7,56,31,9,-1,-2
1501936723029160,-2,-4,-14,-20,22,10,5,13
1501936723029160,-2,3,-6,-43,-24,-3,-15,-25
1501936723029160,1,-9,-10,86,0,-3,6,11
1501936723050210,-10,-4,-44,-112,-31,-6,0,-4
1501936723050210,5,2,0,31,29,2,-7,-8
1501936723057203,2,-2,3,11,-16,-3,0,1
1501936723057203,2,0,-11,-12,-4,0,-1,7
1501936723065186,1,2,2,23,4,3,1,-2
1501936723065186,6,3,12,14,0,-1,-4,2
1501936723066147,-13,-6,28,117,3,-4,0,-8
1501936723066147,10,2,8,6,37,7,8,10
1501936723088187,9,-1,-17,15,-48,-7,-4,8
1501936723088187,-11,-3,0,-96,-30,-12,-8,-42
1501936723089144,-1,2,13,47,16,6,8,2
1501936723089144,4,0,-17,45,15,3,-1,1
1501936723111162,-10,-10,-8,-122,-63,-18,-1,-5
1501936723111162,3,10,19,30,3,5,-4,5
1501936723111162,6,-3,-6,-49,8,3,-2,19
1501936723111162,2,1,29,-8,-26,-4,5,2
1501936723125188,-9,-5,-44,-5,18,1,-13,-19
1501936723125188,6,-4,3,80,12,0,3,12
1501936723126147,-4,2,-3,-31,5,-3,1,8
1501936723126147,5,-3,10,-77,-49,-5,-8,-9
1501936723147190,-21,4,12,50,14,10,5,-8
1501936723147190,-3,-7,7,69,6,-9,-8,-3
1501936723156148,-1,-3,-8,-7,10,0,-1,-3
1501936723156148,-12,-2,-8,41,10,0,-3,1
1501936723171166,6,5,7,-15,-2,4,1,10
1501936723171166,-11,-3,-20,-61,-5,-2,0,-11
1501936723172151,-8,1,24,69,16,1,1,-5
1501936723172151,8,-5,-26,54,5,-4,-4,-3
1501936723193221,5,-2,9,83,0,-2,1,14
1501936723193221,-10,-2,-3,107,46,6,-4,11
1501936723195183,1,8,-3,-103,-28,4,7,-28
1501936723195183,5,-4,-8,39,21,1,-8,20
1501936723207217,-10,2,12,-15,32,-2,-4,-20
1501936723207217,3,-2,-11,7,-26,-5,-8,-6
1501936723216164,17,-3,-15,-56,-13,-7,9,15
1501936723216164,-13,-6,-32,-41,-13,9,1,4
1501936723231164,22,-1,8,33,48,6,-9,10
1501936723231164,-2,4,-8,-4,-6,2,14,14
1501936723232165,-9,-6,15,114,3,-8,-12,-5
1501936723232165,8,6,27,36,-4,-3,3,3
1501936723253181,-17,-11,-15,-63,-17,-6,-1,4
1501936723253181,-3,1,2,-56,-15,-2,-9,-4
1501936723255188,2,6,-20,-22,21,12,-2,5
1501936723255188,-10,-17,-33,80,-10,-22,-3,-9
1501936723267226,13,7,22,96,7,11,-2,-2
1501936723267226,-10,-4,-7,-102,-5,-3,0,-36
1501936723276154,-1,1,-11,6,-20,-3,-4,8
1501936723276154,18,5,-2,-98,-13,0,0,7
1501936723291172,-4,-5,-26,-65,-2,-1,-2,-2
1501936723291172,2,2,4,54,35,5,6,6
1501936723292158,-6,-4,-10,-33,27,-1,1,-9
1501936723292158,-3,1,14,-24,-32,-3,-9,-25
1501936723313205,3,-1,-3,1,-4,-4,3,8
1501936723313205,3,-3,-11,-32,3,-1,-2,2
1501936723315158,-6,2,15,66,31,10,2,4
1501936723315158,-3,1,21,-15,5,-4,-5,-4
1501936723327198,-3,4,14,-27,9,0,6,1
1501936723327198,-3,-6,6,109,61,0,-12,-5
1501936723336160,2,-2,-17,-108,-50,-15,-4,11
1501936723336160,8,1,17,48,7,7,16,31
1501936723351159,-10,-10,-24,-111,-27,-10,-12,-28
1501936723351159,2,-3,-21,97,10,12,2,-8
1501936723352160,-1,-3,1,-14,24,0,-6,5
1501936723352160,22,-8,-14,-103,-75,-19,-11,4
1501936723373201,-7,5,32,110,32,6,9,-7
1501936723373201,-12,1,1,-22,-33,-4,-7,4
1501936723375162,-10,-7,-15,-23,-10,0,6,-11
1501936723375162,-2,3,0,-13,33,8,4,-3
1501936723387171,6,2,15,-10,-14,-1,-1,5
1501936723387171,-2,-1,-32,-65,-11,4,1,-9
1501936723396163,9,-5,-1,-12,-35,-2,-5,22
1501936723396163,-9,-2,3,-37,27,1,7,1
1501936723411161,3,-3,5,72,-27,-9,-11,-6
1501936723411161,8,5,17,-70,-22,-2,2,-4
1501936723412165,1,1,2,94,25,3,2,-5
1501936723412165,-9,-2,-6,58,10,4,0,-5
1501936723433204,-9,-2,0,-75,-36,-9,-9,1
1501936723433204,11,2,8,-48,4,1,2,14
1501936723435166,-4,3,33,69,30,5,5,-8
1501936723435166,-11,-2,-22,-75,-36,-8,1,-4
1501936723447166,4,4,12,-27,15,6,-1,12
1501936723447166,11,-3,-19,0,-10,-4,1,17
1501936723456168,-2,-1,-7,-21,-21,-6,-11,-15
1501936723456168,-11,-5,-9,-30,-58,-4,-7,-6
1501936723470220,-21,-9,-37,-85,6,-4,11,-4
1501936723470220,-5,6,33,70,-18,-2,2,11
1501936723478166,-4,-4,-11,-42,-10,-8,-3,3
1501936723478166,-5,-2,3,-76,14,-1,-8,-20
1501936723493176,7,-1,4,8,-21,-3,-4,4
1501936723493176,-1,3,38,33,5,-1,-2,0
1501936723495199,-5,-11,-45,2,11,-2,6,-6
1501936723495199,2,6,14,31,47,13,-2,-2
1501936723516179,2,-1,4,99,16,-4,-3,-2
1501936723516179,1,2,28,38,4,-5,-5,-28
1501936723517176,5,-1,-21,14,-12,-2,8,11
1501936723517176,-11,-8,-10,51,25,-2,-5,-3
1501936723531180,2,1,4,35,-22,-2,1,-7
1501936723531180,1,-2,-16,-34,-20,-5,-8,14
1501936723532177,2,1,16,58,-10,-2,-5,-10
1501936723532177,5,6,1,22,46,16,15,10
1501936723553170,0,-3,-7,-34,5,-2,-7,-7
1501936723553170,2,3,11,16,-22,-5,2,17
1501936723555172,-2,-2,1,-6,24,4,0,1
1501936723555172,-1,1,-18,10,1,-2,-3,-32
1501936723576181,0,3,15,11,18,7,3,4
1501936723576181,3,-6,-2,-19,15,-4,-7,6
1501936723577175,-8,-1,7,49,15,-3,0,-23
1501936723577175,4,8,60,37,-17,0,4,10
1501936723590234,-3,-8,-52,14,-10,-6,-8,-4
1501936723590234,-4,-3,-5,-47,-11,1,10,-13
1501936723597218,-3,-5,-28,-90,-20,-2,-8,0
1501936723597218,0,-4,-16,-62,-23,-7,4,13
1501936723613244,0,-2,14,81,26,2,-7,-18
1501936723613244,2,3,4,12,0,2,5,10
1501936723615173,-2,7,29,-44,-2,6,-2,-8
1501936723615173,9,-2,9,14,-24,-4,-6,14
1501936723636185,0,-2,-3,-6,-13,-5,0,7
1501936723636185,-4,-2,-14,50,-5,1,0,-1
1501936723637174,0,-1,-7,6,-15,1,1,7
1501936723637174,-9,-3,-5,99,8,-6,-3,-17
1501936723650189,-5,-11,-54,-25,10,1,2,1
1501936723650189,6,2,20,68,10,2,5,23
1501936723657217,-10,-5,-3,-21,-43,-12,-10,-17
1501936723657217,1,0,-19,-114,-11,3,-2,5
1501936723673244,4,7,41,102,58,7,2,0
1501936723673244,-13,-20,-79,-58,-33,-10,-5,-13
1501936723675176,1,4,-9,28,22,5,-8,1
1501936723675176,-6,-4,8,48,0,-2,7,-11
1501936723696178,18,11,68,19,6,-2,-2,10
1501936723696178,-20,-7,-36,-25,24,-2,-5,-15
1501936723697185,7,6,37,-53,-16,9,4,-1
1501936723697185,-24,-13,-38,-13,-35,-16,-13,-22
1501936723710235,6,-3,-18,-90,-13,-5,0,2
1501936723710235,-5,-1,15,-12,23,2,-1,-4
1501936723717180,0,1,9,7,-3,0,1,3
1501936723717180,10,-13,-68,-13,16,-1,3,21
1501936723733221,-3,-1,4,42,1,-1,0,9
1501936723733221,-4,-2,7,-91,-44,-9,-8,-17
1501936723735180,5,8,35,22,16,2,7,8
1501936723735180,0,0,-7,-9,26,2,-1,-6
1501936723756190,-4,-2,-6,-25,-11,0,-1,4
1501936723756190,10,0,-24,-6,-15,2,-2,12
1501936723757182,-10,-11,-32,-65,-31,-7,0,-17
1501936723757182,-3,4,1,-12,-13,-2,-4,1
1501936723770222,1,-6,-9,46,8,1,4,7
1501936723770222,-5,6,33,-24,12,0,0,-8
1501936723777197,14,0,10,32,-1,-1,3,16
1501936723777197,-4,1,8,-36,-16,-8,-9,-6
1501936723793227,-4,-6,-34,-58,-13,-1,-2,-12
1501936723793227,-6,-3,-10,54,26,3,3,-12
1501936723795184,2,0,-12,-35,-4,-4,-3,16
1501936723795184,-2,-7,-8,43,29,1,-1,15
1501936723815227,-2,-4,-39,-101,-37,-9,10,2
1501936723815227,13,1,27,-35,-30,-3,-11,-2
1501936723817217,-7,0,4,20,28,-2,4,-12
1501936723817217,3,8,40,-13,-19,5,1,12
1501936723830247,-10,-18,-63,-6,-20,-15,-5,-4
1501936723830247,4,-3,0,67,40,8,1,7
1501936723837258,3,2,4,-87,-15,0,5,0
1501936723837258,-8,2,30,55,14,-2,-10,-24
1501936723853228,-5,9,44,18,20,6,3,-18
1501936723853228,-10,-2,-20,-78,-62,-10,2,-14
1501936723855187,-4,-3,2,83,0,2,-8,-5
1501936723855187,0,-7,-27,-36,0,-1,-2,-5
1501936723876202,6,4,15,-69,0,1,-4,-3
1501936723876202,-7,-2,13,127,32,0,5,6
1501936723877196,-2,-8,-59,-69,-16,-17,-4,1
1501936723877196,10,3,12,37,-8,2,4,6
1501936723890228,8,1,-13,55,9,2,-3,5
1501936723890228,-7,1,0,-26,-19,1,4,2
1501936723897233,1,4,28,90,42,12,4,11
1501936723897233,3,-1,-10,-5,-26,-7,-6,-2
1501936723913253,-3,9,46,65,-8,-2,4,0
1501936723913253,0,-4,-27,47,21,6,-4,5
1501936723915190,-2,-3,9,26,-25,-4,-5,-17
1501936723915190,7,9,17,-17,17,6,9,6
1501936723936191,-3,2,20,34,1,4,-2,-3
1501936723936191,10,7,30,44,10,-5,-6,0
1501936723937201,-24,-17,-32,90,25,-3,1,-9
1501936723937201,-6,-3,-9,-66,10,-4,-4,-7
1501936723950257,13,4,-6,-40,-46,-1,6,15
1501936723950257,-12,-2,6,-24,23,-3,-2,-12
1501936723964192,2,-1,8,-15,-11,-10,-10,5
1501936723964192,6,1,14,127,32,7,3,1
1501936723973260,-19,-9,-3,6,5,0,-2,6
1501936723973260,8,-2,-8,-82,-27,-6,-5,-5
1501936723975193,6,4,17,37,9,4,-2,-2
1501936723975193,-10,-9,-38,-32,15,-3,-6,-8
1501936723996206,21,5,15,-30,-22,1,4,5
1501936723996206,-3,4,7,-74,-8,5,-1,-13
1501936723997203,-1,-7,-25,-16,-2,-6,-6,18
1501936723997203,-3,-7,1,-9,-21,-5,6,2
1501936724009342,-8,-9,-36,6,25,0,-12,-13
1501936724009342,9,3,9,13,-4,5,6,8
1501936724018276,12,3,8,-94,-36,-5,2,1
1501936724018276,-24,0,1,25,14,-1,-13,-25
1501936724033291,3,1,21,43,10,6,3,6
1501936724033291,-4,-3,6,13,7,-5,-2,-3
1501936724035277,6,6,-20,21,2,-1,-2,6
1501936724035277,1,1,21,8,-8,6,5,15
1501936724055278,-8,-4,-8,-15,8,0,-2,-8
1501936724055278,-4,-7,-26,-63,-12,-6,-6,-18
1501936724057278,-3,0,20,92,27,1,-3,1
1501936724057278,1,0,-9,-24,-23,-1,4,3
1501936724069318,17,6,3,79,34,7,6,16
1501936724069318,-32,-10,-21,20,-60,-14,-9,-11
1501936724078278,-20,2,2,8,7,1,-3,-20
1501936724078278,7,-4,3,-31,-45,-6,-1,1
1501936724093321,-12,-2,-1,12,19,-4,-7,-13
1501936724093321,17,7,12,-5,11,7,10,21
1501936724095282,-9,-12,-27,-94,-41,-3,-3,-6
1501936724095282,-3,-1,-12,15,24,1,3,-3
1501936724115321,4,-2,7,-5,-21,-13,-5,12
1501936724115321,0,-4,-2,18,20,-7,-8,2
1501936724117281,2,0,15,-52,-31,1,2,-1
1501936724117281,10,6,8,28,11,4,6,11
1501936724129325,-4,-7,-22,39,17,5,-7,-5
1501936724129325,10,7,27,5,28,5,-1,-2
1501936724138317,-3,-5,9,-12,-22,-1,5,-16
1501936724138317,-19,-11,-27,-27,2,-4,-2,-10
1501936724153347,-6,8,19,-27,-12,-3,-4,-2
1501936724153347,5,-4,-24,51,6,5,9,10
1501936724155287,2,0,7,-8,35,-4,-14,25
1501936724155287,-10,0,9,-63,-41,-10,2,-20
1501936724175324,6,-6,-7,59,9,1,-1,-6
1501936724175324,-14,-7,-28,55,42,4,3,-9
1501936724177286,18,2,0,52,-21,6,2,13
1501936724177286,-3,6,28,-34,-27,-2,-2,-3
1501936724189323,-11,-11,-42,-109,-26,-10,-6,-6
1501936724189323,-1,0,-17,-88,-16,-5,-1,1
1501936724198321,2,3,-2,15,15,10,1,-13
1501936724198321,5,0,31,113,18,1,-2,8
1501936724213353,-1,11,37,-5,22,10,12,-23
1501936724213353,11,-5,-1,73,17,-1,-1,24
1501936724215287,-12,-5,-7,10,-2,-15,-10,-22
1501936724215287,10,-1,-26,-1,12,5,-10,1
1501936724235329,1,3,18,-54,7,4,6,7
1501936724235329,4,4,1,25,3,6,4,1
1501936724237288,-2,-6,3,-6,12,-4,-6,4
1501936724237288,5,-1,-15,-22,-43,-10,-1,18
1501936724249358,-7,-1,-34,51,-15,0,4,4
1501936724249358,8,-2,16,91,-9,-3,0,-13
1501936724258317,-1,5,18,67,26,4,1,6
1501936724258317,5,8,28,110,-8,3,-2,-11
1501936724273333,-18,-11,-10,29,-15,-12,-6,-7
1501936724273333,4,3,5,-60,16,0,-12,-19
1501936724275291,33,12,16,16,-7,8,20,25
1501936724275291,-39,-2,6,-61,28,2,-5,-16
1501936724295336,-17,0,10,54,18,-1,2,2
1501936724295336,12,2,13,-52,-15,-9,-5,15
1501936724297292,2,-3,-8,5,3,7,-1,-7
1501936724297292,11,0,-10,-26,-1,1,4,10
1501936724309336,2,-1,0,-17,-2,-3,-1,-5
1501936724309336,-16,-1,6,-33,-21,-2,-1,-11
1501936724318300,-2,-5,-21,-42,-31,-11,-3,26
1501936724318300,5,1,-15,-15,34,11,4,-5
1501936724333337,15,-4,10,-42,-58,-7,-11,-10
1501936724333337,-15,2,7,10,-2,-4,3,-28
1501936724339303,-4,-6,-36,-50,-3,-1,2,-5
1501936724339303,14,-1,4,61,27,3,0,4
1501936724355363,9,6,16,-47,5,3,0,5
1501936724355363,-9,-17,-64,-63,-10,-4,-2,9
1501936724357295,-7,4,11,-24,-1,-3,-5,-13
1501936724357295,-3,-4,-12,-49,-13,-10,4,-7
1501936724369336,-4,-1,-11,-59,7,5,-5,-2
1501936724369336,3,3,13,0,-8,3,10,25
1501936724378298,-13,-1,7,32,20,-1,-7,-30
1501936724378298,7,-7,-14,25,28,1,-2,6
1501936724393329,-5,2,18,-28,-12,0,-1,11
1501936724393329,-13,4,16,50,8,2,2,0
1501936724395297,10,1,3,-20,-10,-8,-1,7
1501936724395297,-2,-3,4,-13,-7,-3,-9,-1
1501936724415302,-3,-5,-7,51,16,4,8,3
1501936724415302,2,1,-9,-2,6,0,-4,-4
1501936724417299,1,1,31,91,16,-2,-3,2
1501936724417299,-26,-7,-22,-33,-43,-7,8,-2
1501936724437300,12,-6,-17,-8,-4,-4,-12,-31
1501936724437300,-4,2,21,-20,-3,-1,1,7
1501936724446299,-6,-7,-18,46,8,0,0,-5
1501936724446299,7,1,8,-16,-14,1,-1,6
1501936724453358,-7,-1,-21,-25,-3,-2,-2,-5
1501936724453358,1,-6,-2,33,8,-5,-1,3
1501936724455310,-8,2,3,-81,-6,7,-5,-44
1501936724455310,-4,-9,-24,11,18,0,0,9
1501936724475315,2,5,55,33,13,-1,0,-7
1501936724475315,7,0,-17,54,8,4,4,10
1501936724477301,-6,-2,2,73,0,-3,1,8
1501936724477301,8,4,9,101,8,0,4,16
1501936724498335,16,8,30,-26,-15,4,-4,7
1501936724498335,-17,-15,-43,-26,-11,-10,-6,-11
1501936724500304,7,0,-4,-45,14,5,4,15
1501936724500304,1,8,26,-26,-12,-3,3,-16
1501936724513375,-3,-7,-21,24,24,-4,-3,13
1501936724513375,5,2,12,21,-13,1,-1,13
1501936724515304,-9,-2,-14,-24,-1,-3,-2,-18
1501936724515304,10,0,15,15,8,-3,-4,-8
1501936724535317,-11,-9,-35,-81,5,1,3,6
1501936724535317,12,2,2,17,-21,1,0,-5
1501936724537305,0,-4,-14,5,16,-4,2,17
1501936724537305,5,-3,-4,-68,-17,-6,-6,-3
1501936724558350,-8,0,-8,46,11,-2,1,-6
1501936724558350,3,8,43,-23,-5,1,2,7
1501936724560315,-4,-6,0,55,-19,-8,-5,7
1501936724560315,-7,-5,-4,1,-5,-5,-3,-11
1501936724572370,-7,-1,-27,-63,-11,1,3,1
1501936724572370,-7,-3,-3,3,-16,-3,-5,-10
1501936724579312,-2,4,13,1,-15,0,2,-4
1501936724579312,3,-2,4,55,8,-5,-5,2
1501936724595368,-3,-1,-6,31,-19,-1,4,14
1501936724595368,8,12,24,4,22,9,1,-12
1501936724597343,8,-4,-11,-39,-25,-3,1,12
1501936724597343,-7,-4,-10,37,12,-4,-9,-8
1501936724618377,19,1,-8,40,27,1,2,42
1501936724618377,-20,-5,31,-54,-48,-7,1,-30
1501936724620309,2,2,-9,44,11,6,1,-11
1501936724620309,1,4,20,20,13,5,3,4
1501936724632372,-6,3,18,8,-24,-5,-3,-11
1501936724632372,19,2,3,-29,22,-4,-2,30
1501936724639375,-8,-7,-13,-3,8,-2,-2,-4
1501936724639375,-7,-2,-16,-31,-4,6,-2,-9
1501936724655352,7,5,28,104,7,3,2,7
1501936724655352,-9,-9,-26,-35,-23,-15,-11,-9
1501936724657312,-10,1,24,31,9,4,0,-29
1501936724657312,-5,-12,-67,-57,-15,-6,-4,7
1501936724678351,-3,-1,0,-30,12,8,4,-5
1501936724678351,6,2,4,-35,15,0,-1,6
1501936724680320,-5,-3,-10,-70,-11,-4,0,14
1501936724680320,11,5,15,61,37,6,-1,-4
1501936724692371,-28,-7,-8,-50,-34,-9,-7,-74
1501936724692371,10,0,-16,8,20,-2,1,-5
1501936724699357,12,-3,7,51,5,4,-7,11
1501936724699357,-19,4,19,69,20,1,4,-1
1501936724715359,14,11,9,-8,-10,3,3,16
1501936724715359,-8,-6,-2,107,18,4,-3,-7
1501936724717325,4,6,30,-66,35,1,1,5
1501936724717325,-4,-5,1,-53,-72,-15,-10,-10
1501936724738327,-6,-5,-11,50,10,-2,3,2
1501936724738327,11,-3,-29,-51,-32,1,0,9
1501936724740318,-2,1,2,68,21,4,2,-7
1501936724740318,3,3,37,75,17,5,2,3
1501936724752358,-19,-20,-41,-53,-37,-21,-13,-18
1501936724752358,11,6,15,43,25,7,4,34
1501936724759359,-9,-14,-74,-99,-22,-13,-1,1
1501936724759359,2,2,1,-53,-31,3,-1,1
1501936724775358,3,4,3,78,-1,-3,2,7
1501936724775358,-14,-8,-20,8,11,0,-4,-16
1501936724777318,-6,-2,4,8,10,0,1,0
1501936724777318,11,1,-14,-28,0,2,4,33
1501936724798357,18,5,33,81,21,6,-1,2
1501936724798357,20,9,20,-34,-13,2,1,16
1501936724799321,-9,-8,-49,-58,-29,-9,-3,-14
1501936724799321,-3,-5,-19,77,15,0,5,1
1501936724812360,8,2,19,-79,-31,1,-12,-12
1501936724812360,-14,-1,-5,15,28,5,6,-7
1501936724819337,5,4,44,47,-16,0,-1,-2
1501936724819337,-2,-3,-12,-37,-14,-9,-4,-10
1501936724835324,-5,-4,-16,-41,-2,-6,4,17
1501936724835324,-6,-4,-2,-25,3,7,-2,-18
1501936724837323,1,1,-3,-30,28,4,-2,6
1501936724837323,1,1,-10,12,-37,0,2,-4
1501936724858365,-6,-4,9,57,23,-5,-1,-3
1501936724858365,0,2,6,26,9,-5,-4,-1
1501936724859323,4,-1,3,14,-7,1,3,1
1501936724859323,10,3,10,-38,14,3,-3,4
1501936724872365,-4,0,6,32,26,6,-1,-8
1501936724872365,-8,-6,-8,28,-31,-11,-3,-4
1501936724879361,-4,-1,-3,44,18,-3,3,3
1501936724879361,8,2,-2,-55,-18,-2,-6,9
1501936724895368,-3,-7,-17,-30,7,4,0,15
1501936724895368,-6,-3,-18,-69,-11,-1,1,-1
1501936724897335,3,5,24,69,6,2,-3,-6
1501936724897335,6,-2,10,-4,0,-8,2,0
1501936724918391,-4,-4,-31,-34,11,7,0,1
1501936724918391,1,0,9,80,4,2,-2,-6
1501936724920329,-1,-1,2,-6,-23,-6,-2,1
1501936724920329,13,-2,-13,-11,10,-1,-3,17
1501936724932345,-4,4,18,27,0,-1,1,4
1501936724932345,-6,0,2,-1,-34,-2,1,-6
1501936724941327,6,3,-10,-85,-28,2,-2,0
1501936724941327,-10,-1,14,-1,21,-1,-1,-9
1501936724955370,3,2,9,11,-7,-2,0,5
1501936724955370,-5,-3,-8,4,7,-3,-2,-6
1501936724957362,1,4,5,-5,8,4,3,2
1501936724957362,-8,-1,15,-15,-28,-4,-2,-8
1501936724978369,-7,-2,-3,8,10,-3,2,4
1501936724978369,8,3,16,52,-17,10,-2,1
1501936724979330,-4,-3,-33,-53,-38,-10,-1,8
1501936724979330,-10,-8,-29,0,17,1,-3,-11
1501936724992334,3,-4,-8,41,-18,-11,-3,-3
1501936724992334,-4,1,2,-16,12,0,2,5
1501936725001332,4,-1,23,99,15,9,1,7
1501936725001332,-1,1,-2,88,12,4,-5,-6
1501936725015363,-5,-8,-16,-77,-23,-12,-1,-7
1501936725015363,-5,-7,-13,-44,-14,-8,-4,0
1501936725017331,-6,-2,10,63,16,4,-1,-9
1501936725017331,-7,-1,-11,-17,-4,-2,-1,-11
1501936725038391,7,-2,-4,34,7,-3,-1,17
1501936725038391,5,4,-1,-20,17,2,-2,-9
1501936725040332,-5,-3,1,6,-6,-3,-3,-6
1501936725040332,9,4,17,-2,7,2,7,32
1501936725052345,-17,-5,-21,-34,-4,0,-7,-36
1501936725052345,10,-4,6,-4,-23,-7,-1,10
1501936725061334,-3,3,15,56,8,-3,-3,-9
1501936725061334,2,-3,-12,-56,7,-2,-1,-3
1501936725075400,2,7,31,85,16,8,2,1
1501936725075400,-14,-7,-35,-62,-2,-2,-6,-9
1501936725077370,-3,-9,-21,-59,-29,-4,-5,-9
1501936725077370,8,3,11,-17,-18,-10,-1,-9
1501936725098336,-2,2,2,-52,-11,2,1,-4
1501936725098336,15,5,14,49,33,8,2,3
1501936725099337,-5,1,19,21,-3,-4,-1,3
1501936725099337,-8,-5,-3,-3,-5,-1,-3,-13
1501936725112347,6,0,-6,-4,5,-4,-2,4
1501936725112347,-3,-4,-8,-23,-6,3,-1,4
1501936725120413,-2,-1,3,-11,28,0,-5,-4
1501936725120413,4,-3,-3,-3,-21,-4,2,4
1501936725135406,5,6,1,-38,12,7,-1,-17
1501936725135406,-15,-5,-4,41,7,-11,-7,-5
1501936725137337,0,-1,-8,-18,-35,-7,0,0
1501936725137337,1,-3,-5,21,14,8,2,20
1501936725158402,-4,-3,-9,-50,-5,0,1,-1
1501936725158402,6,4,29,14,3,-3,-3,5
1501936725159344,-3,-6,-18,18,6,0,-3,-25
1501936725159344,-8,-2,-30,-20,3,2,2,-7
1501936725172351,-1,3,16,28,2,2,1,10
1501936725172351,0,1,2,-22,22,-2,-5,-9
1501936725181341,-7,-4,3,10,1,-1,0,-10
1501936725181341,-6,1,13,-3,9,0,0,-5
1501936725195414,0,-3,-2,1,-8,-2,-2,-3
1501936725195414,4,-1,-3,24,10,-1,2,7
1501936725197358,6,5,4,-54,10,5,2,10
1501936725197358,-12,-4,6,14,0,-6,-2,-7
1501936725218384,-5,-5,-13,30,-2,-2,-3,5
1501936725218384,3,9,25,11,0,1,7,-4
1501936725219352,0,2,24,54,18,4,2,4
1501936725219352,-3,-5,-18,43,-35,-11,-6,-12
1501936725232366,-10,1,3,-14,-1,-3,-1,-10
1501936725232366,0,-3,2,63,3,6,-2,2
1501936725241344,4,1,4,-34,-21,-3,-3,12
1501936725241344,-8,-2,7,2,11,2,-1,-36
1501936725255384,0,3,13,14,-4,-4,-4,-5
1501936725255384,7,-2,-4,-2,-9,-2,-2,2
1501936725257344,-7,-5,-29,-26,22,-2,0,3
1501936725257344,0,4,25,28,11,5,1,7
1501936725278412,7,-6,-40,-52,-25,-5,-3,8
1501936725278412,1,-1,-1,-9,7,8,3,-3
1501936725279348,-7,-6,4,-39,-35,-15,-8,-11
1501936725279348,-6,-2,-24,-44,-2,-2,2,-1
1501936725292376,-1,-1,12,-14,6,2,-1,-15
1501936725292376,-6,2,16,28,9,1,1,18
1501936725301346,6,2,-5,62,14,-2,2,7
1501936725301346,6,6,47,91,-17,5,-9,-5
1501936725315414,-1,0,-4,-30,0,0,11,12
1501936725315414,-7,-1,-16,-29,-17,-4,-5,-16
1501936725317347,1,-1,1,-77,-12,1,0,-7
1501936725317347,6,5,30,41,13,-4,-1,6
1501936725338390,-4,-4,-9,3,3,0,-4,3
1501936725338390,0,-2,0,-20,-14,-6,-3,0
1501936725339349,3,5,2,32,19,2,4,8
1501936725339349,-11,-5,-16,37,1,0,-4,-12
1501936725352351,15,-3,-23,79,-1,-1,-3,17
1501936725352351,-14,-4,-9,-20,-10,-10,-2,-15
1501936725360416,-2,-6,-19,-26,-2,2,-3,-14
1501936725360416,2,3,-2,-45,10,3,3,15
1501936725375391,-6,-1,-4,-41,-8,0,-4,-13
1501936725375391,4,-9,-15,21,20,-6,-3,3
1501936725377351,-1,2,10,19,5,-5,1,10
1501936725377351,5,-2,-9,-43,5,8,-2,7
1501936725398392,4,0,6,-11,-5,-2,1,18
1501936725398392,-1,1,-3,23,0,3,1,-8
1501936725399352,-2,-2,11,103,32,4,-2,6
1501936725399352,-10,-6,-51,-128,-34,-13,2,-8
1501936725420422,5,6,17,26,8,5,-3,5
1501936725420422,-7,-3,8,37,9,-4,0,-1
1501936725422356,-4,-2,-16,37,-20,1,-4,6
1501936725422356,-2,0,5,-10,-10,0,6,-10
1501936725435400,4,-2,-9,-39,1,-1,-1,3
1501936725435400,-9,1,7,42,4,-3,1,-4
1501936725437357,-4,-4,-5,-81,-24,-1,-7,-14
1501936725437357,10,3,7,31,23,3,7,11
1501936725458384,4,6,21,-64,-14,-2,0,-2
1501936725458384,-2,-6,-6,34,-5,-2,-2,-4
1501936725460358,10,0,7,-13,5,0,3,10
1501936725460358,-3,0,4,5,5,7,-3,20
1501936725480422,-6,0,9,11,15,3,-1,-10
1501936725480422,-2,-1,-12,-76,-15,-1,-2,-8
1501936725482359,5,-3,-20,-32,-1,0,1,7
1501936725482359,-1,3,21,64,16,1,-1,-3
1501936725495399,-11,-9,-14,24,-18,-6,-1,-9
1501936725495399,9,-1,-11,-11,0,0,5,17
1501936725502377,-7,-4,-5,-24,-25,-5,-8,-10
1501936725502377,4,3,6,8,11,1,0,8
1501936725518400,-9,-5,-5,2,-13,-2,-3,-13
1501936725518400,0,-1,4,-2,-4,-7,-2,6
1501936725519371,-2,-7,-13,22,3,-5,-5,-11
1501936725519371,2,-3,-2,72,13,3,2,-4
1501936725540403,-1,4,13,24,12,-1,-2,4
1501936725540403,0,3,7,-43,-17,6,4,0
1501936725542362,-1,-1,-11,-25,1,-1,2,0
1501936725542362,6,-3,-7,5,-1,-8,-5,18
1501936725555406,-5,-3,-10,7,-3,4,1,-6
1501936725555406,-1,0,-7,5,0,-3,-3,2
1501936725562380,-10,-3,-2,-14,-12,-3,-2,-20
1501936725562380,5,1,-12,-35,-2,-4,0,-1
1501936725578410,-10,-4,9,-10,-5,-5,1,-13
1501936725578410,3,-3,-8,35,-4,-2,-8,-4
1501936725579363,1,1,4,-11,-4,0,2,7
1501936725579363,-8,-1,12,96,37,-1,0,-15
1501936725600424,7,-1,-13,-64,-28,-6,-6,9
1501936725600424,1,3,-2,-20,-4,6,4,-1
1501936725602366,3,1,11,-16,5,3,6,-1
1501936725602366,-4,0,33,-24,-14,-8,-7,-3
1501936725615418,4,4,6,34,25,5,4,4
1501936725615418,-1,-3,-4,16,12,0,-4,-1
1501936725622385,4,6,9,-20,-5,1,5,4
1501936725622385,-5,-7,-23,-80,-18,-4,-8,-6
1501936725638405,-5,-3,11,-4,-11,-11,-3,-6
1501936725638405,1,1,-6,-65,7,6,1,0
1501936725639365,11,1,-7,30,4,0,-2,15
1501936725639365,-8,-3,11,71,10,-1,-2,-10
1501936725660408,-1,-1,-6,-2,0,-4,-1,4
1501936725660408,-2,3,11,-50,2,0,3,-1
1501936725662368,-4,-1,3,-45,-5,4,0,-4
1501936725662368,1,-6,-25,-38,-8,3,-1,-3
1501936725675411,-5,-3,-1,4,15,-1,-8,2
1501936725675411,-1,-2,22,102,-10,-6,7,2
1501936725682394,-5,-3,5,5,4,-1,-4,5
1501936725682394,-7,1,-1,-44,-10,-3,-1,-25
1501936725698439,5,0,4,35,12,4,0,0
1501936725698439,3,0,-16,-47,-14,-1,-3,1
1501936725699370,-6,-1,10,65,21,-2,-2,-6
1501936725699370,4,1,6,17,2,7,4,7
1501936725720384,-1,-2,-18,38,-1,0,1,2
1501936725720384,-15,-12,-50,6,-11,-13,-10,-20
1501936725722369,5,3,7,15,2,-1,1,9
1501936725722369,9,3,3,-11,-4,-3,-4,5
1501936725735423,0,1,13,22,-2,4,5,8
1501936725735423,-3,1,9,19,8,4,2,-4
1501936725742392,-1,-1,-10,5,-1,1,0,1
1501936725742392,-1,0,-5,-110,3,-2,-2,2
1501936725758431,-5,-3,7,70,4,-13,-4,-16
1501936725758431,5,-2,-16,-20,-4,-1,-5,12
1501936725759376,-3,-4,-9,-30,-12,-4,-3,-8
1501936725759376,2,6,24,51,9,5,-1,1
1501936725780412,1,-3,-20,-22,-3,-1,2,5
1501936725780412,14,1,13,23,10,0,-2,-1
1501936725782386,-11,-1,-7,-64,-29,-4,1,5
1501936725782386,-4,-5,-10,26,-6,-1,0,-6
1501936725795420,4,2,4,-20,2,0,-1,0
1501936725795420,-6,0,17,25,2,1,0,-8
1501936725801383,10,3,10,24,-6,5,-1,-2
1501936725801383,-5,-4,-7,59,-1,-1,0,-2
1501936725818444,-2,5,25,16,-13,-4,1,2
1501936725818444,-6,-4,-17,-54,17,5,-3,5
1501936725819376,-5,0,7,17,1,2,-3,-21
1501936725819376,0,2,-9,-59,-14,0,0,1
1501936725840450,-1,-5,-12,-20,-12,4,1,-2
1501936725840450,0,3,14,67,12,-3,3,-1
1501936725842377,-10,-7,-13,40,19,0,-2,-3
1501936725842377,4,-4,-3,23,-12,-2,-2,7
1501936725854447,-1,-1,-18,16,30,4,-3,-1
1501936725854447,2,6,6,-46,-16,6,7,-2
1501936725863378,-6,-7,-1,12,-2,-5,-1,-5
1501936725863378,9,1,1,-7,0,-3,-3,4
1501936725878437,-6,-1,-5,-13,-21,-7,-3,-4
1501936725878437,-1,2,2,25,3,8,0,3
1501936725879398,10,4,19,24,9,1,4,6
1501936725879398,-9,-6,-12,-33,8,-1,3,1
1501936725900421,0,0,4,-70,-23,1,-4,-8
1501936725900421,0,-2,-3,-12,-11,-7,-2,2
1501936725902379,-4,0,-7,-37,26,7,0,-8
1501936725902379,-2,-4,-3,22,14,-10,-5,-2
1501936725914413,4,-4,-39,-74,-11,5,-1,0
1501936725914413,-5,0,11,66,2,-1,-2,-11
1501936725929381,2,3,3,-42,-7,0,4,14
1501936725929381,-2,-3,10,74,-6,-5,-5,-5
1501936725938451,0,2,15,60,13,4,4,-6
1501936725938451,-1,-4,-14,3,29,-5,-4,-1
1501936725939420,6,6,9,7,-22,5,3,-3
1501936725939420,-11,-4,-11,9,-5,-5,-6,-14
1501936725960446,4,2,4,-12,6,-2,2,11
1501936725960446,-1,0,-5,-76,-10,0,-2,2
1501936725962383,-4,-11,-24,-9,10,-3,-4,13
1501936725962383,-2,6,1,-39,-17,1,2,-19
1501936725974432,-1,-3,-3,25,4,-2,-1,-9
1501936725974432,-1,-2,-4,-32,-11,-1,0,2
1501936725983390,-1,3,9,50,33,6,1,8
1501936725983390,-4,-5,-11,21,-8,-3,-1,5
1501936725998422,0,1,3,17,30,-1,-3,6
1501936725998422,-4,0,19,42,-6,3,-5,-5
1501936725999388,4,-3,2,112,-14,-14,-5,-5
1501936725999388,2,6,20,46,15,6,3,11
1501936726020455,-8,3,9,-4,-9,1,-2,-9
1501936726020455,2,-4,14,52,15,-4,0,4
1501936726022387,-7,-3,-6,-35,-20,0,-3,-10
1501936726022387,-2,0,-2,-123,-10,3,3,4
1501936726034386,2,1,15,-5,5,-4,-1,4
1501936726034386,-2,-1,-13,-23,-7,0,1,6
1501936726043422,-2,2,11,23,14,1,-4,-10
1501936726043422,1,-4,-27,-117,-16,-2,0,-1
1501936726058428,-4,-2,9,28,-6,-5,-4,-5
1501936726058428,-3,1,14,-37,-11,-3,1,-10
1501936726059425,6,-11,-49,-57,-30,-8,-3,21
1501936726059425,0,1,3,20,11,1,-1,0
1501936726080433,1,-3,-13,-19,20,6,2,1
1501936726080433,-6,-7,-21,-56,-65,-10,-4,-3
1501936726082391,-5,1,11,23,5,-5,0,-5
1501936726082391,5,0,-16,-63,-8,5,-2,0
1501936726094430,-2,-3,7,121,59,-3,2,3
1501936726094430,-5,-3,-10,-80,-71,-10,-7,-4
1501936726103391,4,4,13,2,-12,-6,-1,6
1501936726103391,-9,-9,-28,62,-3,-1,0,-26
1501936726118437,-1,0,-1,-42,-28,3,4,3
1501936726118437,1,2,-3,43,37,-2,-4,-7
1501936726119393,-2,0,7,28,0,5,0,0
1501936726119393,-5,-2,-3,-20,-7,-5,-1,-3
1501936726140461,2,-1,-7,18,18,2,-4,15
1501936726140461,3,2,7,-30,-13,1,1,-2
1501936726142394,-3,0,-15,-27,-5,-5,-2,-4
1501936726142394,3,3,11,74,37,9,2,6
1501936726154420,-8,1,6,-69,-55,-3,-6,-17
1501936726154420,1,-2,-2,10,9,-2,-2,5
1501936726163395,-6,0,-12,-24,-2,-2,-1,-11
1501936726163395,4,2,30,18,2,-2,1,4
1501936726177435,-5,-7,-37,-34,-12,-6,-2,0
1501936726177435,0,0,-5,-7,10,0,1,1
1501936726185415,1,-1,5,-10,5,5,1,3
1501936726185415,-4,-3,-5,-23,-5,-1,-2,0
1501936726200407,3,2,14,33,19,3,1,-1
1501936726200407,-2,-3,0,31,-13,-5,0,-1
1501936726202396,-1,2,3,-47,-4,-3,-3,-6
1501936726202396,-2,-2,-10,33,13,-2,-4,3
1501936726214399,0,-3,7,-14,-13,-4,-1,-1
1501936726214399,1,0,-18,-5,3,3,-1,-6
1501936726223398,-3,2,13,-13,1,3,1,-11
1501936726223398,-2,-3,-5,-1,-34,-2,-2,1
1501936726238439,1,2,3,84,33,3,-3,-5
1501936726238439,-2,-1,-8,81,3,-3,0,1
1501936726239401,2,1,9,19,-12,-1,1,0
1501936726239401,-4,-8,-27,0,-10,-8,-2,8
1501936726260467,0,-3,0,47,-2,0,-4,-12
1501936726260467,-1,3,17,46,43,8,5,-5
1501936726262402,7,0,8,10,-8,-4,-5,13
1501936726262402,-2,2,13,-1,6,-2,3,-6
1501936726274445,-4,-5,-23,-63,-25,-4,-2,-3
1501936726274445,0,1,3,90,44,8,2,1
1501936726283402,-2,-3,-17,-62,-35,-2,-1,-4
1501936726283402,-2,3,17,55,20,1,-1,-2
1501936726298447,1,-3,-11,27,-19,-7,1,4
1501936726298447,-2,-2,-11,-28,0,1,-2,-2
1501936726299415,-6,-5,-2,63,24,-4,0,-4
1501936726299415,5,2,4,-7,-20,3,-4,-7
1501936726320464,-2,2,8,-9,1,3,2,12
1501936726320464,-2,-2,-13,-69,-7,-3,-2,-6
1501936726322403,-6,-3,-3,92,16,-2,0,-2
1501936726322403,3,1,-4,-20,1,-3,-1,3
1501936726343447,2,2,9,-10,-3,-2,-1,-3
1501936726343447,-1,-4,5,-69,-43,-4,-1,4
1501936726344404,-2,-2,-2,-66,-7,3,-1,-4
1501936726344404,-2,0,4,12,5,-1,1,2
1501936726358447,-1,-3,-1,-46,-17,-10,-2,-3
1501936726358447,-1,2,12,-19,5,10,2,4
1501936726360406,-1,-1,8,43,9,-3,-5,-6
1501936726360406,1,3,22,38,-21,-4,1,5
1501936726388407,-8,-13,-53,-39,-40,-11,-3,-4
1501936726388407,-2,-2,-2,-53,3,-5,0,-4
1501936726389406,0,-2,-11,-90,-8,2,2,-1
1501936726389406,-3,0,-7,-21,8,6,-4,5
1501936726403450,1,6,19,28,8,1,3,-2
1501936726403450,1,-3,-2,33,7,-3,-3,0
1501936726404410,0,-2,-2,51,-2,-3,-2,0
1501936726404410,-3,-3,-7,-20,2,1,0,-4
1501936726418443,8,2,7,14,15,2,-6,9
1501936726418443,-5,-1,-4,-18,-21,-10,1,-8
1501936726419410,-2,0,10,-8,25,13,5,2
1501936726419410,-2,-3,-11,-19,-18,-6,-1,-5
1501936726440424,0,-1,5,-2,-3,1,-3,0
1501936726440424,2,1,3,13,6,-5,-3,3
1501936726442410,2,0,-2,0,15,1,-2,-3
1501936726442410,-2,-2,5,17,10,-2,0,-1
1501936726463452,-3,0,0,-21,-4,1,-1,-6
1501936726463452,2,0,-3,15,3,-1,-2,1
1501936726464412,-6,-1,-7,-11,-1,-3,-1,-1
1501936726464412,1,-2,-4,-8,3,1,0,-1
1501936726477482,0,2,3,4,19,1,-1,-4
1501936726477482,-3,-2,2,65,5,3,0,0
1501936726484480,3,1,3,22,-7,-1,1,4
1501936726484480,-2,-1,-3,-36,-12,-5,-3,-2
1501936726500458,-1,2,2,4,2,2,1,2
1501936726500458,1,0,1,-18,-8,0,1,5
1501936726502442,-5,-2,-5,8,-5,-3,-10,-17
1501936726502442,-2,1,-1,-20,10,6,10,1
1501936726523457,-6,-9,4,83,-23,-11,-2,-5
1501936726523457,-1,1,-2,11,8,0,0,0
1501936726524415,3,0,8,57,16,-1,-4,3
1501936726524415,-3,1,1,-53,-14,-1,-1,-2
1501936726537421,-1,-1,-9,-27,0,4,-1,0
1501936726537421,-1,-3,-1,-15,2,0,-1,-2
1501936726544483,0,-2,1,14,-3,-3,-2,2
1501936726544483,-1,-1,-2,7,8,-2,-3,-2
1501936726560477,-1,-2,4,-30,-1,4,3,2
1501936726560477,-1,0,0,10,-4,2,-5,-5
1501936726562446,1,-1,-7,-37,-3,-1,-1,0
1501936726562446,-1,-3,-3,13,-2,-3,-5,3
1501936726583479,0,1,-2,-22,1,0,7,-1
1501936726583479,-2,-1,-1,5,-2,-6,0,-2
1501936726584420,-1,-1,-4,-21,-7,1,-1,0
1501936726584420,2,-2,-4,6,0,-1,1,0
