timestamp,emg1,emg2,emg3,emg4,emg5,emg6,emg7,emg8
1501927722474341,34,9,19,-96,-21,4,9,50
1501927722474341,-22,1,-19,37,12,1,-3,-28
1501927722479342,-4,-8,38,-44,-22,-5,-2,-7
1501927722479342,21,0,4,40,21,-2,0,1
1501927722481350,-16,-6,-8,127,19,-1,-2,5
1501927722481350,-5,3,-27,-96,-36,5,4,19
1501927722482350,-9,5,-12,-4,-6,-4,-2,-7
1501927722482350,23,12,45,-22,2,10,4,8
1501927722484374,-67,-13,-15,-36,-7,-8,-7,-35
1501927722484374,27,11,16,-22,4,5,3,16
1501927722499347,-37,-17,-47,17,-10,-11,-8,-11
1501927722499347,-8,12,6,-24,5,11,5,-12
1501927722509376,23,-14,-49,76,-16,-15,-11,-2
1501927722509376,-1,8,18,47,21,10,6,2
1501927722514343,13,7,25,-30,0,1,0,6
1501927722514343,0,-6,2,94,-5,-4,-2,2
1501927722530409,7,15,20,-29,19,19,11,-9
1501927722530409,-18,-16,-56,-59,-21,-8,-7,-6
1501927722545388,48,6,29,-25,-4,-10,-5,29
1501927722545388,-11,-15,-32,93,-16,-12,-5,17
1501927722546346,-33,0,-32,55,8,5,1,-36
1501927722546346,-6,-9,-5,-62,10,4,1,2
1501927722592415,6,-8,-28,-42,0,-12,-7,-2
1501927722592415,2,1,1,71,10,3,3,-2
1501927722593350,1,14,51,-68,-19,5,3,0
1501927722593350,9,-7,-9,50,30,-6,-9,3
1501927722594373,21,-17,-26,23,-23,-10,1,28
1501927722594373,-22,-4,-29,-88,0,2,-5,-37
1501927722597357,9,7,12,-15,15,8,2,2
1501927722597357,-28,3,29,104,-19,-25,-2,-20
1501927722604395,7,8,3,31,20,24,8,6
1501927722604395,36,-8,14,-109,-32,-13,-1,29
1501927722613357,-42,-1,-42,-35,-34,1,-1,-24
1501927722613357,4,0,7,39,16,8,2,7
1501927722619388,-4,-8,-14,2,-3,-9,-7,-6
1501927722619388,23,10,23,32,9,-2,2,1
1501927722634423,-11,-9,24,-13,25,7,-5,-10
1501927722634423,15,4,-19,75,-20,-12,0,-13
1501927722642428,-9,6,7,30,-11,21,3,-25
1501927722642428,-71,-14,-60,21,-13,-4,-2,-1
1501927722665392,44,1,-9,22,15,-13,-6,-4
1501927722665392,15,6,56,41,-2,5,1,-22
1501927722666354,-23,-13,-36,-74,6,-2,5,29
1501927722666354,31,13,10,95,21,0,-4,2
1501927722680392,53,-5,-18,127,15,6,5,25
1501927722680392,24,-6,14,-113,-25,-7,-8,31
1501927722681354,37,15,27,-58,8,-4,5,9
1501927722681354,-22,5,38,1,9,11,4,17
1501927722702397,-18,-11,-30,81,-21,-10,-3,-33
1501927722702397,28,6,15,-45,28,16,5,33
1501927722703362,6,3,-6,28,-28,2,5,0
1501927722703362,21,-13,-23,-31,8,-14,-9,3
1501927722725393,-78,6,5,10,-8,-7,-1,-49
1501927722725393,-10,-8,8,83,16,-5,-8,-16
1501927722726356,-25,-7,-23,-79,12,12,1,-16
1501927722726356,19,7,25,-25,-33,-13,-5,0
1501927722740369,14,5,20,80,19,15,10,29
1501927722740369,10,2,-18,-122,-25,-11,6,-23
1501927722741358,-37,-6,-14,101,23,2,-17,8
1501927722741358,70,21,43,104,48,14,12,27
1501927722762419,-44,-14,-6,4,-15,-13,-5,7
1501927722762419,-3,-1,-16,100,8,9,2,4
1501927722763374,21,4,5,28,-14,-13,-3,-19
1501927722763374,-9,-3,-33,-62,-14,6,3,24
1501927722785370,26,-3,15,43,-15,-5,-8,15
1501927722785370,-61,-3,-4,-128,-2,10,4,-28
1501927722786362,11,6,51,68,-5,-13,-6,22
1501927722786362,-47,-16,-25,1,-28,-6,-7,-32
1501927722800402,21,11,-3,-22,46,10,8,33
1501927722800402,-13,-4,-18,-11,-16,0,-6,-17
1501927722801362,21,-3,-22,-63,-12,-9,-3,-3
1501927722801362,-28,-6,7,12,-8,2,1,-21
1501927722822424,51,7,13,-87,11,-5,-1,15
1501927722822424,-5,13,63,-21,17,0,2,18
1501927722823386,-42,-33,-44,-113,-45,-8,-9,-31
1501927722823386,-1,5,50,-50,-7,-10,-4,-8
1501927722845424,5,-15,-37,-54,3,10,1,-1
1501927722845424,18,6,-16,73,14,3,7,35
1501927722846374,70,16,51,104,32,8,7,2
1501927722846374,-81,-12,-19,2,9,0,-3,-26
1501927722860364,0,-3,-11,-107,-35,-17,-7,2
1501927722860364,4,-5,-31,-97,-6,5,-2,-8
1501927722861371,-16,-9,-8,83,8,-7,-2,-1
1501927722861371,20,4,-17,60,6,4,3,-2
1501927722882407,-24,8,21,-82,0,5,0,-9
1501927722882407,14,-8,-25,42,-11,-2,-1,1
1501927722883365,-39,1,-22,-53,-12,-4,-2,-13
1501927722883365,12,6,26,-99,13,1,0,3
1501927722905429,-26,-1,-1,-64,-11,2,-4,-17
1501927722905429,8,-5,-15,32,3,-1,-1,-4
1501927722906378,-36,3,25,-34,1,-4,-6,-21
1501927722906378,57,11,14,85,0,13,16,20
1501927722920408,-1,-22,-51,-16,-12,-16,-9,11
1501927722920408,-11,-3,-5,-76,-24,0,-6,1
1501927722921372,10,8,34,71,19,-1,3,2
1501927722921372,12,-1,5,44,1,0,-2,3
1501927722942400,4,2,5,83,-1,1,0,-7
1501927722942400,7,10,22,-62,13,2,2,2
1501927722943381,-7,-13,-12,-8,-24,-8,-1,13
1501927722943381,-6,-2,-11,-45,-21,-2,-1,-4
1501927722965411,-12,-8,-8,24,-5,-8,-4,-2
1501927722965411,-23,-4,-15,50,-1,-4,-3,-29
1501927722966370,10,13,37,44,12,4,3,14
1501927722966370,-6,-17,-41,-1,6,-4,-8,-2
1501927722980386,16,5,23,-99,-24,-3,3,2
1501927722980386,-21,0,-6,-81,-3,0,-1,0
1501927722981372,8,9,26,42,21,6,2,-31
1501927722981372,-43,-16,-29,-89,-2,-9,-9,-33
1501927723002415,3,5,1,-31,0,-9,-6,-5
1501927723002415,19,-9,1,19,-10,7,3,14
1501927723003402,-6,4,-3,-42,-4,5,6,-3
1501927723003402,10,0,-10,-72,-18,-3,-6,12
1501927723025414,-6,1,7,77,15,3,2,-10
1501927723025414,7,-8,-25,37,-10,-16,-6,9
1501927723026383,27,1,18,0,17,11,3,27
1501927723026383,-76,-12,-53,-26,-60,-18,-13,-71
1501927723039375,25,-6,-18,127,7,1,1,26
1501927723039375,8,2,-11,-13,-1,-1,-1,-2
1501927723047419,-14,5,25,35,9,6,2,-1
1501927723047419,25,0,-7,38,15,1,3,5
1501927723062441,-44,-5,-2,-21,-2,-3,1,4
1501927723062441,9,1,-16,-39,-3,0,-2,-7
1501927723063403,-27,-14,-41,24,-24,-14,-10,-15
1501927723063403,32,4,12,-9,10,7,1,29
1501927723085377,-1,5,14,90,21,6,3,-5
1501927723085377,21,-2,16,9,-1,2,1,20
1501927723086378,-26,-4,2,62,-3,-8,-5,-10
1501927723086378,-2,0,9,20,-9,-1,-8,-7
1501927723099440,1,8,35,110,3,6,12,-9
1501927723099440,3,-9,-18,79,-2,2,-5,23
1501927723107417,21,5,-10,-34,-5,6,6,2
1501927723107417,7,9,32,47,21,6,6,8
1501927723122446,-16,-5,-4,17,-11,-11,-11,-17
1501927723122446,-5,-1,-18,-54,-7,1,-2,-5
1501927723123388,-15,4,16,73,22,0,2,3
1501927723123388,19,-6,11,50,11,-2,0,20
1501927723145421,9,-9,-20,-1,-25,-7,-7,2
1501927723145421,-25,-1,-18,-50,-21,-6,-2,-10
1501927723146382,41,-3,-8,17,-8,-4,-1,35
1501927723146382,-71,-2,15,65,28,3,-2,-50
1501927723159429,12,-2,0,-49,-7,1,-1,7
1501927723159429,11,-2,-13,-32,12,-5,-3,-3
1501927723167424,-23,-4,17,29,-6,-1,-2,-8
1501927723167424,26,0,10,31,9,2,4,12
1501927723182424,6,7,18,17,13,2,1,-3
1501927723182424,-6,-2,18,72,3,-2,0,-9
1501927723183411,-5,4,2,-77,2,1,0,-7
1501927723183411,45,7,-15,-1,-19,-14,3,34
1501927723205452,-68,-11,-1,-61,6,20,-10,-48
1501927723205452,1,4,7,1,0,6,12,1
1501927723206385,-1,-5,-21,26,-2,-4,-3,-10
1501927723206385,1,4,3,-13,2,7,1,7
1501927723219424,51,-3,11,-82,-38,-28,-8,35
1501927723219424,-77,4,54,82,23,10,-1,-41
1501927723227424,-4,-14,-76,-120,-15,-4,-8,-7
1501927723227424,-1,3,2,21,7,-3,-1,2
1501927723242457,20,4,20,-39,16,5,5,15
1501927723242457,20,1,23,100,36,5,3,26
1501927723243399,-28,-11,-21,-128,-65,-22,-10,-47
1501927723243399,3,-1,-8,-41,-1,3,-3,5
1501927723265434,0,5,-1,106,13,4,4,-7
1501927723265434,7,-1,-10,-19,-11,3,1,1
1501927723266389,10,3,9,84,26,5,-1,7
1501927723266389,1,1,15,-104,-16,-20,-1,3
1501927723279387,-2,-1,-27,41,-5,22,0,-7
1501927723279387,-1,-5,-11,-42,-5,0,5,-1
1501927723287387,13,12,30,62,16,3,3,7
1501927723287387,-17,-14,-21,111,11,-3,-7,-2
1501927723302397,10,2,-19,-117,-20,-13,-3,5
1501927723302397,3,-4,-1,54,-3,-4,-6,-3
1501927723303394,-5,2,15,-104,6,6,3,-9
1501927723303394,10,0,1,31,-1,1,0,6
1501927723325390,17,1,-25,-39,22,12,8,7
1501927723325390,-22,-10,-6,-85,-39,-18,-17,4
1501927723326390,-35,0,25,95,-7,-7,-3,-14
1501927723326390,-4,-5,-25,61,2,-2,-3,-3
1501927723339397,5,0,-5,6,-3,-6,1,0
1501927723339397,-41,-3,4,8,7,6,2,-29
1501927723347402,47,7,7,15,11,-1,0,31
1501927723347402,-19,-3,-14,-53,-13,6,0,-5
1501927723362403,-3,3,3,29,3,-10,3,-9
1501927723362403,26,-3,-1,78,39,11,-7,17
1501927723363394,-6,-18,-41,-82,-51,-8,-3,-1
1501927723363394,4,-6,-18,10,-3,-3,-3,-6
1501927723385395,4,-3,-22,0,-11,-3,-3,13
1501927723385395,13,4,1,45,-1,-11,-2,1
1501927723386393,-5,-4,0,85,5,-4,-4,-3
1501927723386393,7,7,20,-14,14,13,6,8
1501927723399437,10,8,30,12,-6,-5,0,4
1501927723399437,12,-7,-15,-127,-38,-15,-7,13
1501927723407436,-16,5,9,-23,25,14,4,-21
1501927723407436,-5,-6,-31,-63,-27,-11,-5,-5
1501927723422465,-14,-12,-19,-42,3,0,-4,-16
1501927723422465,13,6,-2,79,29,11,5,3
1501927723423401,15,2,43,55,1,-8,-3,11
1501927723423401,-14,11,29,-33,16,-1,4,-17
1501927723445440,5,6,19,62,4,5,-2,15
1501927723445440,-2,-7,-26,-94,-8,-11,-7,-3
1501927723446397,55,-2,-41,-37,-8,4,11,41
1501927723446397,-27,0,23,127,12,0,-3,-23
1501927723468461,-7,-1,12,-57,-1,9,3,-3
1501927723468461,69,0,-17,-1,-6,-13,0,12
1501927723469401,-74,-6,-4,46,23,4,-6,-34
1501927723469401,28,9,44,-93,-38,2,3,20
1501927723482462,-19,-10,-18,-16,-9,-13,-4,-13
1501927723482462,19,7,16,13,5,7,3,13
1501927723483423,14,1,-13,-35,4,0,1,0
1501927723483423,20,2,23,76,16,3,-2,14
1501927723505465,-18,-3,12,4,-1,-3,-1,-15
1501927723505465,-21,-6,-39,-91,-14,1,-1,-5
1501927723506401,37,8,26,122,16,-2,0,5
1501927723506401,-25,-9,-15,-65,-3,0,-3,-16
1501927723528470,3,4,9,118,11,-2,-4,16
1501927723528470,-25,1,13,50,2,1,5,-16
1501927723529402,81,3,-4,-81,-3,1,-2,32
1501927723529402,-56,-8,-34,10,-3,3,-1,-19
1501927723542465,30,1,-4,-73,-1,-3,5,38
1501927723542465,-33,-1,4,44,-2,-2,-6,-46
1501927723543424,-10,-1,-1,-19,-13,0,2,-1
1501927723543424,-4,4,26,82,14,-1,-4,-10
1501927723565459,-12,-5,-16,60,-1,-7,-4,-6
1501927723565459,18,3,8,47,-10,3,5,3
1501927723565459,-4,-1,2,1,0,-4,-2,-6
1501927723565459,4,-5,-3,12,20,2,-2,24
1501927723588475,-6,-3,-13,76,13,-2,-1,-9
1501927723588475,0,1,-2,-45,-18,1,-1,-2
1501927723589406,-20,-1,-16,41,9,1,0,-12
1501927723589406,44,-1,5,-101,-7,-14,-1,31
1501927723610474,-10,1,4,-63,1,19,4,3
1501927723610474,-5,-1,-11,11,5,-7,-2,-2
1501927723611432,-35,-7,0,-24,-6,-4,-6,-3
1501927723611432,3,3,-12,-85,0,-1,2,-8
1501927723624474,14,-4,-13,-52,-11,-9,-8,-8
1501927723624474,-1,10,45,79,28,11,6,5
1501927723632472,-15,-4,-10,-74,-29,3,0,3
1501927723632472,9,1,11,114,8,0,-2,-5
1501927723648449,19,3,-6,-18,-1,1,1,3
1501927723648449,-51,-14,-15,109,-3,-6,-9,-28
1501927723649412,1,3,16,-50,3,-4,-2,-1
1501927723649412,3,-9,-26,20,-10,0,-2,2
1501927723670477,-5,-2,13,-6,1,4,-1,-6
1501927723670477,35,4,16,45,9,0,5,21
1501927723671433,11,-10,-12,73,4,-13,-8,-2
1501927723671433,-27,-4,-11,54,-20,-7,-1,-26
1501927723684455,-36,-2,9,64,11,8,1,-5
1501927723684455,4,-4,-11,23,-7,-8,-4,7
1501927723692475,-6,3,-4,-36,7,15,3,0
1501927723692475,17,-2,-29,-80,-6,-5,-2,10
1501927723708455,22,-5,3,21,-7,-5,1,-6
1501927723708455,-43,-1,-1,-2,3,-5,-4,-8
1501927723709414,-23,-2,-11,28,-9,-2,-2,-11
1501927723709414,1,-2,12,-4,-8,3,-3,1
1501927723730487,3,2,-5,-34,-9,-7,-1,-1
1501927723730487,13,-2,-2,14,-9,6,2,19
1501927723731441,-51,-5,-6,54,8,-9,-6,-55
1501927723731441,4,-5,-3,35,-6,2,0,-5
1501927723744483,-1,3,21,29,11,4,-1,-7
1501927723744483,16,7,2,-74,6,2,1,5
1501927723752426,35,-9,-19,-41,-16,-6,-1,6
1501927723752426,-53,-2,6,-24,-2,-3,-4,2
1501927723768488,-19,-10,-23,57,-8,2,-2,-7
1501927723768488,5,3,3,-57,-2,-1,1,0
1501927723769423,2,1,9,35,5,4,2,17
1501927723769423,17,9,-7,63,12,2,3,1
1501927723790457,7,-11,-15,-128,-39,-14,-7,9
1501927723790457,-31,-1,11,-46,2,9,-2,-50
1501927723791426,-10,-5,-22,-50,-25,-9,-4,2
1501927723791426,48,5,16,9,8,-4,5,26
1501927723813486,-62,1,8,23,7,7,2,-41
1501927723813486,16,-1,-4,-55,4,-1,1,11
1501927723814419,8,7,34,98,21,3,-1,1
1501927723814419,6,-2,-7,-69,-14,-5,-2,-2
1501927723828421,-9,1,4,27,-5,-6,-6,-6
1501927723828421,-26,-8,-12,-31,-4,-1,-1,3
1501927723829426,23,3,7,40,15,2,8,39
1501927723829426,-28,0,10,58,11,13,-1,-18
1501927723850468,14,4,-3,-48,1,-7,1,3
1501927723850468,26,4,18,-39,9,3,4,19
1501927723852422,-17,-2,-6,12,-7,-5,-5,-9
1501927723852422,16,-1,7,-6,4,9,2,0
1501927723864459,8,1,-15,55,11,2,-3,1
1501927723864459,0,2,1,34,3,0,3,8
1501927723873449,7,2,8,42,9,5,2,-1
1501927723873449,0,-8,-22,-43,-4,0,-2,6
1501927723888467,5,3,18,77,-9,-8,-1,-8
1501927723888467,-1,8,28,25,13,-4,-3,7
1501927723889424,-16,-12,-13,80,-1,6,-8,-48
1501927723889424,-5,-14,-29,-25,3,-4,-6,-8
1501927723910490,15,3,2,-33,-5,-1,0,17
1501927723910490,12,-5,-1,52,4,-3,-7,5
1501927723912436,20,12,29,-38,-41,-7,7,13
1501927723912436,15,4,-17,-4,2,9,1,9
1501927723924490,-20,-2,8,67,3,-4,-2,-13
1501927723924490,5,-11,-23,46,-20,-7,-5,19
1501927723933426,-17,3,3,-109,14,1,-7,-18
1501927723933426,-7,0,11,-54,-10,-8,-3,2
1501927723948485,27,-3,-13,18,-1,11,11,28
1501927723948485,-3,2,-5,-19,-6,-3,-3,-10
1501927723950429,9,3,-2,-14,18,3,7,14
1501927723950429,-37,-4,4,-44,-29,-11,-9,-21
1501927723970493,7,-1,-9,-53,14,3,0,-5
1501927723970493,-1,1,0,52,0,-4,-1,-3
1501927723972438,40,-2,-3,-104,-6,0,4,40
1501927723972438,-62,-5,12,14,-8,4,1,-58
1501927723993492,18,-4,-13,-24,-6,-6,-9,26
1501927723993492,-31,-6,-42,68,16,12,7,-28
1501927723994443,1,-3,-2,-101,-45,-19,-7,13
1501927723994443,32,2,-2,78,11,3,2,14
1501927724007444,-3,-1,0,-30,4,-1,0,6
1501927724007444,10,0,20,29,2,-2,-4,8
1501927724014500,-3,3,-13,-3,37,12,1,1
1501927724014500,6,-4,6,-43,-37,-7,0,3
1501927724030500,12,5,15,-6,12,9,4,-6
1501927724030500,13,-2,-8,-7,-14,-4,-2,7
1501927724032433,-30,3,10,-12,15,6,0,-25
1501927724032433,15,0,3,71,10,-4,-3,17
1501927724053472,16,0,13,-29,-1,-6,-3,-13
1501927724053472,-67,-8,-5,-66,-15,-7,-6,-16
1501927724054432,-7,-6,-9,77,0,0,-3,-1
1501927724054432,8,1,-5,4,8,2,5,3
1501927724067445,-9,2,-2,47,0,-4,2,-7
1501927724067445,14,-4,-8,-118,-20,-2,-3,0
1501927724074447,-14,-3,8,11,0,-7,-5,-7
1501927724074447,10,2,-2,87,11,0,-2,12
1501927724091473,-3,2,-5,-102,-8,7,4,0
1501927724091473,3,-2,2,28,-8,-4,0,-5
1501927724092478,10,-1,-8,1,-1,-17,-1,18
1501927724092478,11,2,21,24,8,20,0,-10
1501927724113479,-2,4,22,101,34,6,3,0
1501927724113479,-7,7,32,-52,-12,5,6,-7
1501927724115448,-7,-13,-30,112,-22,-12,-7,20
1501927724115448,-4,4,12,-45,-1,-6,0,-27
1501927724127479,-32,-14,-20,-29,-17,-18,-11,-17
1501927724127479,5,0,-3,16,7,9,0,5
1501927724134499,42,-3,-3,62,25,-3,-2,23
1501927724134499,-27,2,9,3,-24,-9,2,-6
1501927724150499,-4,-4,-10,41,2,3,0,3
1501927724150499,12,-1,5,-32,4,-4,0,-2
1501927724152439,19,3,2,15,-1,8,3,13
1501927724152439,-30,-5,-12,-90,0,-3,-6,15
1501927724173515,4,-2,-29,-89,-8,3,-1,-4
1501927724173515,-2,-1,-1,-18,0,-5,1,21
1501927724174440,-17,-3,-15,-87,-7,1,-3,-34
1501927724174440,22,4,0,84,10,4,5,17
1501927724187486,-1,-5,0,20,-13,-9,-7,1
1501927724187486,7,1,10,102,3,-6,-9,-2
1501927724194507,-15,3,13,75,7,4,-5,-7
1501927724194507,27,0,-13,90,13,4,15,21
1501927724210458,2,1,12,-104,-16,14,-2,-1
1501927724210458,-12,-1,-6,35,3,2,6,-30
1501927724212444,-10,-2,14,53,-8,-6,-7,-14
1501927724212444,6,0,9,-12,0,-10,-5,2
1501927724233482,-3,-4,-2,127,21,-2,-8,-6
1501927724233482,2,-5,-27,21,-12,6,15,7
1501927724234443,-17,4,0,-128,-9,5,-8,-25
1501927724234443,5,-5,-18,9,2,-5,9,7
1501927724247443,-3,-1,9,49,4,-14,-8,1
1501927724247443,29,2,-6,-128,-10,4,-1,20
1501927724254512,-32,-6,-7,1,0,2,3,-40
1501927724254512,18,-1,-9,30,16,0,-5,13
1501927724270513,5,10,-8,-69,-3,5,5,-28
1501927724270513,-5,-2,-4,34,1,-4,-14,-2
1501927724272446,16,1,-5,-12,-1,-2,14,23
1501927724272446,-16,-4,-16,-101,-5,2,-5,-17
1501927724293487,4,0,13,87,2,-6,-1,-1
1501927724293487,-2,0,1,-10,-10,-6,-2,-4
1501927724294446,-2,-1,11,-1,-5,8,-11,-1
1501927724294446,5,5,8,30,13,6,5,-5
1501927724307486,-13,-4,-5,-39,-17,-6,2,3
1501927724307486,-5,1,7,113,18,-2,2,-1
1501927724314490,3,-1,-6,-50,-8,-11,-8,-11
1501927724314490,-7,-2,-2,12,-10,0,-5,4
1501927724330496,-4,-1,-2,6,7,9,1,-2
1501927724330496,13,3,3,-1,5,-4,-1,17
1501927724332450,-8,-7,-4,10,-2,-4,1,-6
1501927724332450,-1,-3,-6,-1,0,-2,-6,-5
1501927724353491,20,-4,-26,-36,-14,-1,-1,4
1501927724353491,-11,0,10,64,14,-4,-6,-16
1501927724354450,-7,-5,-7,84,-6,3,4,3
1501927724354450,11,2,3,-60,-1,1,1,0
1501927724367495,-5,-2,-2,-15,7,-1,2,2
1501927724367495,1,0,-4,2,4,2,-2,2
1501927724374516,0,4,10,-58,12,1,8,6
1501927724374516,15,-2,8,37,-5,-1,-7,12
1501927724390494,-16,-1,15,27,-2,-1,-8,-7
1501927724390494,-3,-4,-6,-1,2,-8,3,-9
1501927724392452,3,1,-3,-6,-1,7,9,13
1501927724392452,6,-1,-8,-88,-8,-10,-1,6
1501927724413500,-14,-4,3,-33,-11,0,2,2
1501927724413500,-5,-5,-17,7,-10,-11,-9,-8
1501927724414453,9,0,0,27,12,8,1,9
1501927724414453,-6,0,2,-2,-7,3,0,-8
1501927724427493,11,3,16,31,-4,-5,-1,8
1501927724427493,-11,-11,-59,-91,2,3,-4,-25
1501927724434467,3,3,15,-46,-20,-8,0,17
1501927724434467,-30,-7,-19,-54,-7,-4,-7,-52
1501927724450461,2,-3,-28,-9,-2,-6,1,7
1501927724450461,19,6,20,8,14,13,1,17
1501927724452463,2,-3,10,43,3,3,1,-3
1501927724452463,-17,-4,-9,83,-11,-9,-10,-4
1501927724473499,4,2,13,108,20,1,3,1
1501927724473499,-7,-2,3,-67,-19,-7,0,-4
1501927724474476,8,-3,-9,-10,0,-2,0,1
1501927724474476,1,1,1,3,2,8,-4,5
1501927724487481,-8,-1,-9,52,10,1,4,-2
1501927724487481,8,2,11,-75,-27,-9,-2,2
1501927724495501,-3,-1,-1,87,3,-2,1,1
1501927724495501,7,4,-9,-65,0,-2,3,9
1501927724510488,-8,-12,-22,64,-2,-14,-8,-7
1501927724510488,-2,-4,-16,-35,-7,7,4,-3
1501927724512468,-8,-1,-7,-37,-1,-7,-5,-9
1501927724512468,20,1,-2,55,-1,2,1,9
1501927724533499,-6,-1,16,28,8,-4,4,1
1501927724533499,7,8,32,57,-4,2,3,11
1501927724534460,-25,-18,-78,-37,-28,-10,-6,-16
1501927724534460,15,1,25,56,16,7,6,20
1501927724547471,-1,1,-14,-39,-2,3,-9,-7
1501927724547471,0,-4,2,-100,-6,-2,7,-2
1501927724555530,-4,3,4,63,10,2,-4,3
1501927724555530,-7,-2,-6,-27,-18,-9,-4,-4
1501927724570509,-2,-1,18,-22,-6,-16,-11,-16
1501927724570509,-3,-1,-9,105,26,26,8,1
1501927724572463,4,0,7,-9,-5,-6,0,-19
1501927724572463,-18,-3,-2,65,7,-2,-3,-18
1501927724593511,19,-5,-19,-25,-13,-3,7,25
1501927724593511,-8,-3,-1,33,5,-6,-10,-20
1501927724594465,24,3,15,39,8,1,4,26
1501927724594465,-37,0,-1,-36,-18,-1,-8,-20
1501927724607478,12,-3,-8,-43,-1,2,1,11
1501927724607478,-15,-5,-7,63,9,-5,-6,-3
1501927724615535,0,-3,11,-21,2,9,4,1
1501927724615535,12,0,18,51,10,-17,0,8
1501927724630510,-7,5,-8,-81,-32,12,-1,-2
1501927724630510,10,3,3,31,-3,1,-6,5
1501927724632478,-14,-5,-22,-68,-13,-6,-4,-4
1501927724632478,8,0,-3,76,22,4,1,7
1501927724653491,-7,2,35,-69,-12,-6,-5,-19
1501927724653491,3,-1,8,14,9,-4,-1,3
1501927724654467,2,0,10,15,-2,2,-5,-2
1501927724654467,16,0,-9,-40,-10,-6,3,13
1501927724666530,-25,-3,-14,52,15,20,5,-8
1501927724666530,-3,-6,-26,-25,-11,-8,-2,3
1501927724675513,-5,8,20,35,11,2,4,-10
1501927724675513,1,-9,0,-12,-9,-6,-4,3
1501927724690534,20,-3,-3,-48,-19,1,0,1
1501927724690534,-16,8,28,-57,-15,-11,-3,-18
1501927724692472,-12,-8,-24,62,8,4,0,-1
1501927724692472,10,2,14,85,12,4,-2,3
1501927724713469,-7,0,-22,72,-6,0,2,8
1501927724713469,2,-8,-10,-83,-25,-3,-2,-2
1501927724714486,10,5,33,-13,-11,-7,-5,1
1501927724714486,-15,-9,-29,26,4,-2,-5,-16
1501927724727541,-3,3,15,96,12,-5,-1,0
1501927724727541,1,-1,0,-16,0,0,1,-1
1501927724735477,4,0,-13,95,19,-1,-1,1
1501927724735477,1,3,33,-80,-21,7,6,2
1501927724750544,0,-3,-9,-126,-20,-8,-1,12
1501927724750544,-8,-7,-4,77,9,-7,-12,-23
1501927724752506,-6,1,4,-10,-8,11,5,1
1501927724752506,-8,1,-16,4,9,-2,-3,17
1501927724773520,-23,-5,10,63,14,3,5,-39
1501927724773520,-8,0,-8,-18,-8,-13,-9,-12
1501927724774476,5,2,0,-117,-29,4,3,22
1501927724774476,4,0,-18,43,-9,2,1,-6
1501927724786542,1,0,-13,-26,-9,-10,-9,6
1501927724786542,2,-3,-2,-4,-5,-3,2,13
1501927724795519,0,8,20,30,29,8,3,-2
1501927724795519,-3,-7,-5,-34,-27,-6,-4,-7
1501927724810544,23,3,-3,-27,8,-1,10,20
1501927724810544,-17,-2,21,45,7,-4,-7,-26
1501927724812476,3,-2,-5,32,-1,3,-1,-1
1501927724812476,4,6,-4,25,11,-5,-3,4
1501927724833511,1,-4,18,-27,19,5,-6,-4
1501927724833511,1,2,-8,65,-7,2,0,0
1501927724834488,14,-7,1,-37,-6,-13,-1,16
1501927724834488,0,0,11,-1,14,11,-2,-1
1501927724847480,7,-2,-33,88,5,8,11,10
1501927724847480,4,1,-9,-49,7,1,0,14
1501927724855514,0,2,2,-93,-8,-4,-8,4
1501927724855514,6,-5,-11,50,25,-7,1,-13
1501927724870513,-8,2,36,-24,-17,-9,-9,-2
1501927724870513,13,-1,-12,41,9,13,13,21
1501927724872481,-16,1,29,0,12,-9,-9,-21
1501927724872481,2,0,3,-128,-27,-2,-3,4
1501927724893488,-2,0,-16,8,5,3,-8,-6
1501927724893488,-11,-4,3,15,-3,2,11,3
1501927724894483,62,5,-15,-51,-3,-1,5,47
1501927724894483,-43,-4,25,43,-11,-10,-7,-30
1501927724915483,-5,0,-1,-40,5,5,-1,1
1501927724915483,-4,4,7,-37,-3,-3,-4,-7
1501927724917481,-9,-6,-42,99,8,-4,-1,-3
1501927724917481,17,-3,-6,-48,2,-3,4,13
1501927724930518,0,1,4,34,4,5,2,-2
1501927724930518,2,-1,7,-24,0,0,-2,15
1501927724932484,-16,-1,11,36,-6,-7,-2,-24
1501927724932484,-3,-2,-15,-17,3,16,-2,-15
1501927724953486,-12,0,11,71,0,-7,5,-8
1501927724953486,29,1,6,2,-9,-2,-3,19
1501927724954488,-31,2,6,-4,4,4,-1,-13
1501927724954488,-9,-12,-25,-2,-13,-16,-10,-4
1501927724975528,5,-1,1,-8,14,1,5,5
1501927724975528,1,2,16,-79,-1,10,0,-1
1501927724977493,-1,-3,-24,-1,6,-2,-1,-20
1501927724977493,-8,4,30,-32,-6,2,-1,0
1501927724990497,-4,-1,-12,-43,8,-6,-3,4
1501927724990497,-14,-1,-5,102,5,-4,-1,-25
1501927724992497,-22,-5,9,5,-8,-8,-7,-15
1501927724992497,9,7,6,34,18,15,6,3
1501927725013549,-6,-9,-8,-1,-5,-4,-7,-3
1501927725013549,18,-1,-6,40,-6,-6,0,9
1501927725014490,-28,-6,-1,-23,-39,-7,-8,-1
1501927725014490,-2,-1,-4,-41,-1,-2,2,-13
1501927725035499,3,3,1,1,-3,3,7,12
1501927725035499,-1,0,-4,72,16,2,-1,0
1501927725037501,6,1,4,13,5,0,-2,-4
1501927725037501,9,-1,2,-7,-1,-3,5,11
1501927725050564,-1,-3,-7,-74,-36,-10,-7,-1
1501927725050564,4,-2,-3,49,7,1,2,4
1501927725056556,-5,-2,-5,-43,-5,-2,-1,3
1501927725056556,-11,6,7,61,-5,1,1,-25
1501927725073535,4,6,17,-90,4,0,-3,-3
1501927725073535,4,-1,-8,49,20,3,1,13
1501927725074493,9,-5,-20,-47,-41,-12,-1,-2
1501927725074493,0,-2,2,37,6,4,-3,5
1501927725095535,-12,1,4,17,8,3,5,-2
1501927725095535,-4,0,2,63,2,-4,-12,-8
1501927725097499,-2,-3,-18,-52,18,9,12,-7
1501927725097499,4,0,6,16,0,-7,2,3
1501927725110566,-14,0,21,85,-5,-5,0,-2
1501927725110566,-8,-5,8,-23,-8,6,-9,-2
1501927725116559,5,3,6,-22,17,6,7,6
1501927725116559,7,-1,9,-12,10,-7,-14,-7
1501927725133557,5,1,-23,-59,-14,-1,7,-3
1501927725133557,2,-10,-17,-94,-12,-17,-1,7
1501927725134496,-13,3,7,62,-3,14,1,-11
1501927725134496,-2,2,9,-88,3,-6,-1,-2
1501927725155543,5,-11,-45,-14,11,-1,-5,-9
1501927725155543,1,-1,-10,-128,-38,1,5,10
1501927725157508,-9,4,10,24,4,-1,-6,-23
1501927725157508,-6,-5,-12,39,-4,-7,-3,8
1501927725170563,-1,-3,5,-31,-1,3,-5,-5
1501927725170563,-3,2,-21,-5,4,-3,3,-5
1501927725176541,9,-5,2,36,8,0,1,17
1501927725176541,4,0,7,11,-7,0,2,12
1501927725193539,0,-1,-2,41,-1,-5,-5,-3
1501927725193539,-2,0,-6,47,4,-12,-1,-5
1501927725194499,5,3,24,-65,-7,7,-2,6
1501927725194499,-6,2,-14,31,22,15,4,2
1501927725215545,23,-4,23,127,-8,-8,1,1
1501927725215545,-9,-5,17,66,-9,-4,-2,3
1501927725217501,9,0,-14,7,17,-2,2,29
1501927725217501,1,2,25,-16,-12,-5,1,-6
1501927725230506,-8,4,4,49,13,11,4,4
1501927725230506,6,4,-3,-68,-7,-2,-6,-10
1501927725236541,4,-3,1,43,-9,-13,-3,-1
1501927725236541,8,-2,-13,-86,-10,8,4,14
1501927725253571,-9,-4,3,111,13,1,-10,-10
1501927725253571,-11,-2,6,-39,-25,-4,0,-8
1501927725254505,15,0,-6,24,4,-1,-10,-3
1501927725254505,-5,1,-11,-25,-2,-4,15,14
1501927725275563,8,5,14,22,13,7,-4,-8
1501927725275563,-10,-1,1,-81,-6,-3,-1,-1
1501927725277515,0,-1,-1,-17,5,1,1,-3
1501927725277515,8,1,5,64,-3,-2,-4,-5
1501927725290557,-1,-3,5,41,-3,-6,3,6
1501927725290557,14,5,12,69,13,9,-4,16
1501927725296571,-21,-1,-2,-29,-4,2,4,-29
1501927725296571,7,-3,-21,10,7,0,-2,6
1501927725313550,-18,-5,0,-12,-12,-1,-1,-19
1501927725313550,0,-4,-8,4,-2,-1,-4,-5
1501927725314507,7,2,-3,-5,-2,-5,-15,0
1501927725314507,-21,-7,-9,52,5,-6,17,14
1501927725335523,6,-1,-18,-125,-20,-4,-12,1
1501927725335523,-9,-1,1,11,-2,-1,2,-8
1501927725337508,4,1,13,-14,8,7,0,3
1501927725337508,-3,-4,-6,71,6,-1,-8,-6
1501927725350548,3,0,-14,-3,-3,-8,-1,10
1501927725350548,-2,0,7,-41,9,3,4,-4
1501927725356569,-1,-2,-13,-4,5,2,5,-1
1501927725356569,2,-1,11,11,-4,-5,-10,0
1501927725373549,-14,-3,12,38,2,-9,-3,-14
1501927725373549,14,1,-2,-20,13,6,3,4
1501927725374509,-17,-8,-15,-9,-12,-8,2,-5
1501927725374509,-5,1,-7,1,-4,4,4,-11
1501927725395552,3,-1,7,-128,3,-13,-11,0
1501927725395552,-3,-4,-18,63,1,13,7,-1
1501927725397509,0,1,16,55,11,3,-1,1
1501927725397509,9,3,-2,-57,-10,-3,1,2
1501927725409551,-2,2,3,-43,9,6,-3,2
1501927725409551,-1,-4,10,117,17,-8,2,4
1501927725418511,0,-3,-12,-96,-31,-8,-5,2
1501927725418511,-14,-5,-3,-53,-3,1,-6,-3
1501927725433515,1,-2,-5,46,6,-1,-1,1
1501927725433515,-3,3,5,-60,-2,-1,-4,-9
1501927725434514,1,-1,5,127,11,1,-1,-1
1501927725434514,-3,0,1,23,-9,-2,-9,-5
1501927725455536,10,3,6,23,-2,12,16,11
1501927725455536,-7,-8,-3,-28,1,-9,-9,-12
1501927725457523,4,3,15,33,6,-4,4,6
1501927725457523,-2,-8,-30,9,-15,-9,-12,-7
1501927725469558,-4,3,-3,-77,1,11,-1,1
1501927725469558,1,3,-10,-109,-12,0,8,0
1501927725478515,0,-4,-27,-28,2,0,-3,0
1501927725478515,-2,0,16,111,26,3,1,-5
1501927725493585,-15,-5,-21,-18,-26,-9,-5,-5
1501927725493585,6,1,0,17,-5,-2,-4,3
1501927725494517,8,-2,17,81,15,-5,0,4
1501927725494517,-18,1,-8,-63,-25,1,-1,-1
1501927725515560,6,0,8,-29,11,0,0,4
1501927725515560,-14,0,15,0,4,-8,-8,-17
1501927725517519,-6,-5,-25,-4,-5,12,8,-7
1501927725517519,9,3,8,2,16,2,1,-4
1501927725529576,6,0,4,49,-16,-8,-5,-1
1501927725529576,-8,-1,2,-12,-1,3,2,-2
1501927725538518,7,0,-4,-84,-15,-8,-22,1
1501927725538518,-4,-7,-6,-8,17,5,13,-2
1501927725552530,7,1,-6,-45,-7,9,12,11
1501927725552530,5,0,-2,37,2,-5,-4,6
1501927725560584,-9,-3,0,39,-3,-7,-2,-8
1501927725560584,4,0,9,-26,-1,-3,-5,-2
1501927725575560,-8,-3,0,17,-2,-5,-4,-6
1501927725575560,8,-2,-5,34,6,6,6,14
1501927725577530,-6,2,11,11,10,-2,0,-13
1501927725577530,3,1,-3,-16,8,10,4,14
1501927725589561,-6,-3,-5,-41,-35,-10,-2,-18
1501927725589561,-7,-2,-4,42,7,-1,-3,2
1501927725598523,2,2,14,-30,-13,-6,-2,-3
1501927725598523,-6,-3,-14,-35,-12,-5,-2,-5
1501927725613567,3,-2,-17,46,11,7,1,8
1501927725613567,0,2,28,-28,2,-7,-4,-7
1501927725614524,-7,-3,-15,-45,-18,-3,2,-4
1501927725614524,8,4,16,-9,9,-12,-5,1
1501927725635536,1,3,26,40,19,8,5,3
1501927725635536,-6,-7,-27,34,-3,12,-1,-10
1501927725637524,5,0,12,-2,6,-2,2,9
1501927725637524,12,1,5,-6,-10,-2,0,-7
1501927725649589,-8,5,31,70,15,-6,-4,-1
1501927725649589,-8,-10,-41,-86,-16,-11,-3,-4
1501927725658526,1,2,-3,-31,2,9,-1,4
1501927725658526,12,-3,-10,11,-20,-5,-2,25
1501927725673568,-21,-6,-10,-16,0,-8,-6,-37
1501927725673568,8,5,18,9,9,10,4,2
1501927725674528,-9,-13,-39,-120,-29,-12,-8,1
1501927725674528,-6,4,27,-43,4,0,-2,0
1501927725695570,16,3,-10,4,6,1,-1,22
1501927725695570,-12,1,-10,53,-4,7,0,-11
1501927725697538,-8,-4,-6,6,0,1,6,8
1501927725697538,-9,-4,8,48,7,1,-2,-14
1501927725709598,6,-3,-15,-40,-13,-12,-4,-2
1501927725709598,-1,-3,-3,-9,8,6,-2,-2
1501927725718529,3,1,-6,24,7,1,2,1
1501927725718529,1,-1,-11,15,-6,-11,-2,-2
1501927725733529,-1,0,-2,0,10,15,4,3
1501927725733529,4,1,-10,-102,-27,-10,1,7
1501927725734531,0,2,27,1,6,0,-1,-4
1501927725734531,-4,-3,-12,-34,1,-3,-3,-2
1501927725755575,1,-2,-14,-63,-4,-4,-3,-3
1501927725755575,-3,0,19,113,11,0,5,-2
1501927725757531,3,0,4,10,-14,3,-1,2
1501927725757531,1,2,-13,-39,-1,-3,-6,-7
1501927725769570,-10,-3,9,79,-1,2,2,-2
1501927725769570,7,-2,-7,43,1,1,-2,1
1501927725778533,-1,-2,-23,55,-1,-7,2,3
1501927725778533,2,-2,7,51,2,2,-5,5
1501927725793576,-5,0,-10,-14,-6,1,-2,-8
1501927725793576,2,0,15,69,13,-6,-7,2
1501927725794535,3,-1,7,-45,-19,-2,1,-1
1501927725794535,-6,0,-2,17,-1,-2,4,4
1501927725815544,-3,-6,-20,67,-7,-2,-2,8
1501927725815544,0,-2,-16,-128,-21,-8,-5,-9
1501927725817535,-6,2,5,108,23,7,1,-4
1501927725817535,3,-4,-2,-78,-18,1,-2,-6
1501927725829556,-1,-1,-4,61,1,0,-2,2
1501927725829556,-20,-14,-20,-13,-1,-12,0,-1
1501927725838536,1,0,6,-41,-1,3,-2,2
1501927725838536,-6,0,-9,-30,5,-2,2,-12
1501927725853583,5,2,23,59,9,2,-2,3
1501927725853583,7,5,4,-51,-6,-5,1,8
1501927725854547,-5,-7,3,123,12,-7,-6,-1
1501927725854547,-8,0,-5,-103,-7,6,-2,-6
1501927725875578,23,4,-3,-1,6,-3,3,22
1501927725875578,-7,-4,0,26,3,5,2,-13
1501927725877551,0,3,18,39,13,-6,-2,-1
1501927725877551,6,-4,3,127,19,2,-2,-3
1501927725898600,-5,-2,7,-27,-17,0,-3,-4
1501927725898600,3,0,3,84,0,-5,1,11
1501927725899541,0,9,31,28,6,7,3,1
1501927725899541,-3,-11,-44,90,-2,-2,-2,-12
1501927725913541,-5,0,9,-106,-4,-6,1,1
1501927725913541,-1,0,-4,-23,-6,-1,-6,-8
1501927725914544,11,2,7,-19,5,1,3,9
1501927725914544,-4,4,7,68,-6,0,0,4
1501927725935540,-4,-7,-6,-11,-4,-15,-3,-7
1501927725935540,1,4,5,29,21,16,3,1
1501927725937542,1,-7,-8,-68,-29,-29,-10,-1
1501927725937542,3,6,7,-65,-3,22,6,4
1501927725958545,-5,-3,-18,-26,6,1,5,-10
1501927725958545,-1,0,6,-17,2,-5,-5,16
1501927725959542,1,0,10,-14,14,4,-2,-3
1501927725959542,-4,3,-29,-4,-8,-5,4,2
1501927725973590,-11,-5,36,105,-1,-4,-8,-20
1501927725973590,7,-3,-12,-49,-30,-3,-1,5
1501927725974544,-4,3,0,55,16,6,-5,-14
1501927725974544,4,5,11,-90,-19,1,6,8
1501927725995588,2,-3,-20,-37,1,2,-6,5
1501927725995588,-3,3,11,24,0,-9,2,-8
1501927725997545,7,-4,-33,32,-5,8,-8,22
1501927725997545,-29,-5,17,46,2,-7,8,-37
1501927726018556,5,2,-1,18,2,4,7,10
1501927726018556,2,1,7,70,6,-4,-6,-3
1501927726019557,-6,2,2,-68,-22,-1,4,-2
1501927726019557,9,-2,-2,10,8,-3,-15,1
1501927726032586,-6,-2,-1,-11,0,-2,1,-4
1501927726032586,-4,2,3,-18,-3,2,5,0
1501927726039554,2,-4,-13,-6,2,-12,-9,-10
1501927726039554,1,-2,15,35,8,18,6,16
1501927726055608,2,0,-14,-93,-9,-2,6,2
1501927726055608,5,2,6,-21,-3,-4,0,6
1501927726057552,-2,1,-2,-51,6,4,10,-1
1501927726057552,1,-5,-12,-12,-25,-18,-14,-13
1501927726078608,1,0,-4,50,8,1,-7,-2
1501927726078608,-1,-2,-15,-41,-1,11,4,-2
1501927726079549,2,0,15,77,22,3,0,2
1501927726079549,-3,-6,-21,-79,-29,-10,1,0
1501927726092622,5,7,15,-97,8,7,-1,1
1501927726092622,-6,-3,-24,-91,-11,-6,-10,-15
1501927726099562,4,-2,-6,15,1,-1,7,1
1501927726099562,5,2,24,-16,3,2,-4,12
1501927726115593,14,-1,-14,61,-1,-13,2,18
1501927726115593,-2,-1,24,48,2,5,1,-16
1501927726117552,-28,-2,-22,-58,-3,-4,-1,-7
1501927726117552,17,2,7,39,6,3,-8,18
1501927726138625,-5,-2,3,20,-3,-2,1,-11
1501927726138625,-8,-3,-8,-32,6,2,1,-4
1501927726139561,7,-3,1,20,-10,-4,-3,-3
1501927726139561,5,0,12,13,12,-9,-1,10
1501927726152587,-12,0,-8,45,-9,0,-2,-3
1501927726152587,-6,-10,-21,-39,-10,-11,-5,-4
1501927726159622,10,0,14,39,0,11,7,7
1501927726159622,-9,0,-9,-86,-6,-4,-2,-13
1501927726175597,11,3,12,-5,6,-2,0,3
1501927726175597,-6,-2,-3,7,-2,7,4,6
1501927726177555,1,-2,3,12,-1,-2,-3,-6
1501927726177555,-10,6,0,-34,19,3,5,2
1501927726198625,15,-9,3,-61,-29,-6,-13,-6
1501927726198625,-5,3,14,63,2,-11,-5,9
1501927726199557,-3,-4,11,-35,-6,3,6,-10
1501927726199557,2,-2,-16,54,8,6,6,3
1501927726212584,-13,2,1,-31,7,0,3,-1
1501927726212584,11,0,5,-6,-2,-2,-2,10
1501927726219595,5,2,-5,58,5,-1,-5,-4
1501927726219595,-15,-7,-11,-15,-5,-4,-3,-10
1501927726235598,-3,1,8,-22,-12,-7,0,0
1501927726235598,3,-2,-10,66,-1,-1,-5,5
1501927726237561,-7,-1,1,50,10,6,0,1
1501927726237561,11,-2,-7,-9,-12,-15,3,8
1501927726258628,-8,-3,-11,-36,-3,14,-5,-11
1501927726258628,3,4,16,-55,9,7,9,1
1501927726259562,-9,-3,1,-27,-11,-10,-8,-2
1501927726259562,3,-3,0,84,10,3,-6,-1
1501927726272560,-1,1,11,3,3,-8,-3,3
1501927726272560,-4,0,-9,43,25,5,3,-6
1501927726279605,-3,-3,-19,-28,-39,-3,3,-3
1501927726279605,6,0,1,-19,-8,-9,-7,1
1501927726295603,-4,-1,5,105,18,6,8,0
1501927726295603,2,-1,6,-35,1,3,-8,-2
1501927726297562,2,1,-5,0,3,-7,7,4
1501927726297562,-7,-2,0,-13,0,-2,-3,-3
1501927726318633,-6,-4,-6,-25,2,1,-4,-6
1501927726318633,3,4,11,3,0,0,2,-4
1501927726319564,1,2,14,11,5,8,2,8
1501927726319564,0,3,21,-18,2,-1,-1,-1
1501927726332607,-2,-3,-23,-12,4,-8,-7,-4
1501927726332607,-4,-4,-2,56,-1,8,-1,-2
1501927726339602,-1,4,7,-23,5,2,2,0
1501927726339602,5,-2,-7,58,-3,0,1,-2
1501927726355609,-16,1,11,70,-5,-6,2,-11
1501927726355609,4,-2,-12,-67,6,0,-2,-7
1501927726357569,-7,-1,4,21,-19,-9,-9,-9
1501927726357569,4,3,11,-72,10,14,5,1
1501927726378619,8,-3,-16,85,3,-5,-1,10
1501927726378619,3,-1,9,72,-5,-8,-5,19
1501927726379567,-17,-4,-13,-35,2,-9,-3,-26
1501927726379567,-9,1,4,-32,-2,9,1,-5
1501927726391609,2,2,3,-34,3,6,-2,2
1501927726391609,9,-3,-4,-3,-6,-6,9,11
1501927726400584,2,-2,-14,-27,0,3,-1,1
1501927726400584,-1,-2,-9,6,-15,-28,-8,0
1501927726415612,-6,2,0,-8,16,24,7,7
1501927726415612,-5,-3,-8,-63,0,-5,-5,-12
1501927726417576,4,-2,10,-90,-4,-2,-4,2
1501927726417576,-5,-4,-10,4,-1,-4,1,-5
1501927726438609,7,-2,-7,22,-2,-2,-2,5
1501927726438609,-6,1,4,4,0,-5,0,-4
1501927726439570,-3,-2,-5,-54,-1,-2,-8,-10
1501927726439570,5,2,10,79,18,12,5,6
1501927726451613,1,1,13,-127,-16,-5,-3,-4
1501927726451613,-8,-12,-19,58,-26,-7,-4,-7
1501927726460590,20,-1,2,38,5,-8,-1,9
1501927726460590,-24,3,12,-45,-4,12,0,-8
1501927726475615,1,-2,-21,11,3,3,6,-5
1501927726475615,-3,5,12,-18,-1,-5,2,4
1501927726477587,-3,-3,-11,-53,-5,-2,-5,2
1501927726477587,-7,-5,-14,27,4,6,1,-17
1501927726498636,5,-1,7,2,-3,-9,-4,6
1501927726498636,0,1,0,19,1,1,0,1
1501927726499575,-4,-1,-7,-22,0,-5,1,1
1501927726499575,1,-2,-6,-3,9,-5,-16,-4
1501927726511577,-7,-3,-5,-31,-24,0,8,-7
1501927726511577,5,4,4,20,4,0,-4,0
1501927726520592,0,0,-2,22,10,9,4,5
1501927726520592,-2,-5,-11,5,-18,-10,0,2
1501927726535592,11,2,7,1,-2,-2,-8,0
1501927726535592,-17,0,13,51,8,-2,-5,-5
1501927726537577,-4,0,-3,11,-4,-3,3,-4
1501927726537577,10,-2,6,78,10,11,4,6
1501927726558623,-12,-3,2,-7,1,-11,-2,-2
1501927726558623,17,2,-2,-63,-11,-1,0,17
1501927726559577,-29,-4,-8,47,-1,-8,-7,-35
1501927726559577,3,-4,-13,32,-3,3,1,3
1501927726571617,-5,-1,15,93,14,-2,-3,-6
1501927726571617,1,-5,-15,16,-10,-4,-1,-1
1501927726580595,12,2,4,-32,-5,-1,4,18
1501927726580595,-20,0,15,42,8,-2,-5,-18
1501927726595592,3,-1,-8,-59,-16,-3,-9,-5
1501927726595592,-4,1,-1,-29,-2,3,8,-9
1501927726597581,7,-1,-1,11,9,1,-4,6
1501927726597581,-2,-4,-10,14,-6,-1,1,-3
1501927726618627,0,3,-2,-5,9,1,-1,5
1501927726618627,-4,-4,-5,-29,-6,1,-4,0
1501927726619583,4,-6,-4,-86,-14,2,1,1
1501927726619583,1,4,12,30,-2,-10,-3,4
1501927726631619,-3,2,0,30,10,4,-2,-6
1501927726631619,18,-3,0,-23,-10,-2,0,9
1501927726646648,-12,0,-10,48,13,-3,3,-4
1501927726646648,4,0,-15,-111,-13,-5,-4,4
1501927726655625,3,-2,1,38,21,6,9,4
1501927726655625,19,4,8,92,2,0,1,17
1501927726657584,-13,-1,-10,-71,-14,3,-5,-13
1501927726657584,1,-4,-5,-16,3,-9,-5,0
1501927726678626,2,-1,-3,2,-6,-3,-3,1
1501927726678626,-4,3,19,33,12,8,2,-2
1501927726679586,-1,-7,-26,21,-6,-6,-7,1
1501927726679586,5,-5,-21,17,-4,-1,0,2
1501927726691623,1,1,-3,1,-3,-3,-1,-4
1501927726691623,-27,0,-9,24,4,-1,-1,-13
1501927726700602,12,2,20,-10,0,-1,0,11
1501927726700602,-1,5,17,-21,6,11,4,-1
1501927726715628,3,-12,-23,-18,-18,-10,1,12
1501927726715628,-8,3,4,-27,8,-18,-8,-23
1501927726717588,-1,1,0,7,3,23,4,2
1501927726717588,7,-2,7,26,0,1,4,9
1501927726738629,1,2,-2,39,1,-3,-5,4
1501927726738629,-6,-7,-1,43,-7,-6,-4,-8
1501927726739588,-1,-6,-43,-84,-21,-9,-4,2
1501927726739588,5,1,12,106,10,3,2,-5
1501927726751628,-4,2,-1,-101,-24,-5,-3,0
1501927726751628,-6,-2,8,68,-8,0,1,3
1501927726760605,-2,6,25,111,22,2,1,-12
1501927726760605,-3,-6,-20,21,-14,4,-1,0
1501927726775632,-1,0,-2,41,8,-6,-1,-3
1501927726775632,-2,2,-10,-128,-16,3,3,-4
1501927726777595,1,-2,9,57,-2,-6,-6,6
1501927726777595,2,3,2,-55,3,-3,0,0
1501927726798665,-5,-7,-8,10,4,8,3,-6
1501927726798665,13,2,15,-24,7,4,0,4
1501927726799616,-12,0,-13,25,17,5,1,-1
1501927726799616,-5,-1,13,-128,-10,-29,-8,-5
1501927726820656,0,-1,-7,39,6,21,4,0
1501927726820656,-1,-1,3,39,2,0,1,-4
1501927726822602,6,0,0,21,10,-8,-2,3
1501927726822602,-7,6,6,-99,-6,11,3,-5
1501927726835595,-7,-3,11,5,-8,-13,-7,-3
1501927726835595,-3,0,-16,-12,3,4,0,-3
1501927726841634,4,1,17,59,-2,0,2,1
1501927726841634,2,-3,-23,41,-13,0,2,12
1501927726858670,-1,0,-1,59,2,-3,-3,-10
1501927726858670,-2,-1,2,-74,-8,2,-3,-5
1501927726859595,1,4,19,41,9,4,5,4
1501927726859595,11,-6,0,71,-5,-10,-10,0
1501927726880654,-11,-8,-23,-46,-7,1,2,1
1501927726880654,1,1,-4,-20,14,-2,3,2
1501927726882597,-2,-3,4,-10,-13,7,-5,-1
1501927726882597,-3,-3,0,67,4,6,3,-6
1501927726895635,1,4,9,-60,4,-7,-1,-1
1501927726895635,0,-2,-9,9,7,4,0,0
1501927726897597,0,-1,-7,-61,-22,-10,-5,-2
1501927726897597,-5,2,13,8,2,-1,-3,-3
1501927726918646,-4,2,18,-33,5,4,3,-5
1501927726918646,2,-4,-32,47,-9,-9,-7,12
1501927726919600,-9,0,-4,36,11,5,3,-8
1501927726919600,3,0,-17,-108,-6,6,7,2
1501927726940628,0,-4,12,87,12,-6,-6,-3
1501927726940628,-5,-4,-2,-16,-9,-12,-2,-2
1501927726942601,3,-2,1,-3,10,13,5,1
1501927726942601,-10,-2,-1,-44,-14,-7,-2,-6
1501927726955600,6,1,-9,-68,8,0,0,8
1501927726955600,3,-4,9,94,-5,-10,-4,-6
1501927726961643,-15,1,18,59,1,-15,-7,-4
1501927726961643,-4,-2,-26,-65,-2,20,3,-3
1501927726978670,0,-6,-13,44,-13,-5,-1,5
1501927726978670,-3,-1,6,-25,-1,-5,-4,-4
1501927726979612,6,0,1,17,2,-5,-1,-1
1501927726979612,-2,4,16,30,4,-7,-4,-5
1501927727000611,3,0,5,23,-4,1,-1,11
1501927727000611,0,0,-22,28,7,13,3,-7
1501927727002605,0,-2,6,-77,-4,-11,-2,-2
1501927727002605,0,2,9,112,13,12,2,4
1501927727015620,2,0,13,102,10,0,-1,-3
1501927727015620,0,2,-4,24,8,-1,2,1
1501927727021644,-1,-6,-19,-115,-44,-3,1,-4
1501927727021644,4,1,10,-42,9,-7,-1,2
1501927727038642,-4,0,-9,27,-5,-1,-3,-4
1501927727038642,6,0,9,-15,-3,3,3,-1
1501927727039619,-6,-3,5,37,5,-12,-9,1
1501927727039619,8,2,-16,-57,-3,16,3,6
1501927727060680,-2,4,9,-76,-4,7,5,-4
1501927727060680,-1,2,22,-17,1,2,-1,2
1501927727062615,5,-4,-26,-19,-3,-6,-6,-7
1501927727062615,-1,-4,5,49,-3,-5,-5,-7
1501927727075630,-4,1,4,-66,0,1,-2,-1
1501927727075630,-1,-1,-7,-70,2,6,3,0
1501927727081643,2,0,13,12,-4,3,0,5
1501927727081643,-10,-6,1,29,-3,-12,-3,-10
1501927727098651,20,0,-9,-37,-2,-2,-2,5
1501927727098651,-21,0,17,-2,-3,-4,1,3
1501927727100609,7,-5,-21,73,7,3,0,5
1501927727100609,-4,0,-19,-104,-7,-4,-2,3
1501927727120681,0,-1,6,92,-6,-8,-2,0
1501927727120681,2,-2,4,56,-3,-2,-3,-1
1501927727122610,0,2,1,20,18,24,3,-2
1501927727122610,3,0,0,-50,-10,-4,-2,7
1501927727135624,-5,-1,-6,-45,1,-7,1,2
1501927727135624,-2,0,-1,8,1,-2,-4,-9
1501927727141650,-5,-3,-8,-108,-12,-9,-2,0
1501927727141650,1,1,6,104,5,-1,1,4
1501927727158657,-10,0,4,3,-4,1,-3,-8
1501927727158657,3,1,7,22,1,0,2,-1
1501927727159639,2,-8,-20,-5,-5,-2,-1,2
1501927727159639,-3,-1,5,43,3,-7,-4,-4
1501927727180681,-2,2,-3,-91,-11,-3,2,-11
1501927727180681,0,-1,-12,-31,-1,1,-1,3
1501927727182616,3,3,16,19,10,4,2,-2
1501927727182616,-8,-3,5,61,-1,-6,-2,-3
1501927727195633,-2,-3,-14,-12,4,-7,-2,-3
1501927727195633,-1,-2,-11,-66,-3,-2,-3,-4
1501927727201653,-1,1,-8,69,-8,14,-3,1
1501927727201653,0,-1,-4,37,14,-1,4,-3
1501927727218691,1,4,16,28,-9,6,0,4
1501927727218691,3,0,6,8,3,-1,-2,3
1501927727219625,-3,1,-2,-12,-1,-8,-2,-6
1501927727219625,-3,-3,-1,17,-11,-5,-3,0
1501927727240678,-7,-2,-13,11,2,5,0,-4
1501927727240678,5,-2,13,42,-11,-7,-2,4
1501927727242617,1,0,2,-47,-4,-1,1,0
1501927727242617,5,0,2,41,13,2,0,-1
1501927727255618,-2,-1,4,4,-20,0,-1,0
1501927727255618,-5,0,-27,-5,-2,4,-1,-3
1501927727261631,5,2,16,85,9,-3,-3,5
1501927727261631,-8,1,19,-4,4,1,8,-5
1501927727278683,3,-12,-15,90,-11,-10,-10,-4
1501927727278683,-3,-4,-12,47,-2,-8,-7,-5
1501927727279621,0,4,12,-62,-2,11,8,-1
1501927727279621,-5,-2,-19,-32,2,-3,-8,-3
1501927727300689,-10,1,7,-47,4,3,5,-4
1501927727300689,9,-3,-10,-62,-10,-10,-2,1
1501927727302623,12,0,3,49,7,6,2,9
1501927727302623,-8,-1,-11,66,-1,-4,-3,1
1501927727314638,-9,-4,13,14,-2,-8,-3,-11
1501927727314638,0,1,1,5,10,5,-1,-1
1501927727323623,-3,-1,-5,13,-1,-4,-4,-1
1501927727323623,15,2,5,11,-1,3,6,4
1501927727338668,-15,2,-2,-18,12,2,-4,1
1501927727338668,-6,-1,3,47,0,-1,1,-3
1501927727339622,-7,-6,-16,-1,-4,-6,-5,-7
1501927727339622,4,2,14,-49,-12,3,-2,5
1501927727360667,4,-1,-34,-24,4,-8,4,0
1501927727360667,-1,-2,1,-56,-5,19,5,0
1501927727362625,-4,3,18,112,22,-13,-4,-1
1501927727362625,-8,-5,-9,-39,-36,-11,-8,-8
1501927727374683,12,3,12,-12,12,7,1,10
1501927727374683,-1,-2,-8,42,1,-3,-4,-4
1501927727383626,0,-3,-10,15,-9,-3,1,7
1501927727383626,-3,1,5,9,14,5,4,0
1501927727398664,-2,0,-7,-47,-10,3,3,0
1501927727398664,1,1,22,27,-2,-4,0,0
1501927727399632,-2,-3,-21,20,-8,-3,-1,-3
1501927727399632,0,-2,-4,-13,7,-2,-3,-1
1501927727420668,9,0,7,-40,-2,-4,-3,-5
1501927727420668,-9,0,0,87,9,8,6,5
1501927727422636,-12,2,4,-66,-15,5,-1,-3
1501927727422636,11,1,11,-16,3,-2,3,4
1501927727434675,4,-4,-7,12,0,0,-2,1
1501927727434675,-3,-2,-2,-16,-2,-6,0,-2
1501927727443630,-3,2,10,4,-3,-4,-3,-12
1501927727443630,-6,-9,-35,-12,-3,-3,-4,0
1501927727457646,-3,2,13,5,4,1,-2,-5
1501927727457646,4,2,5,67,7,1,-1,4
1501927727465661,-3,1,12,-59,-20,-5,3,-3
1501927727465661,1,-8,-14,76,-12,-4,-6,0
1501927727480691,-1,0,-1,33,4,-6,-4,-2
1501927727480691,-3,0,-6,-105,-1,4,-2,0
1501927727482632,5,1,10,94,14,-5,0,5
1501927727482632,-3,6,13,0,10,8,3,-10
1501927727494674,-8,0,-3,-33,-6,2,1,4
1501927727494674,0,-8,-5,48,5,5,-6,-4
1501927727503634,6,-1,-6,-28,4,7,5,6
1501927727503634,-1,1,-2,-57,-21,-11,-5,0
1501927727518676,-5,0,9,20,4,-8,0,0
1501927727518676,-4,-6,-10,35,-3,-2,-6,-6
1501927727519633,-4,-2,-3,-91,-4,-2,2,-4
1501927727519633,1,0,13,-18,5,1,-3,5
1501927727540676,-1,-3,-19,38,-2,-5,1,1
1501927727540676,8,-2,-11,-33,-11,-2,0,2
1501927727542667,2,-2,3,-7,1,0,-5,-8
1501927727542667,-10,-2,-3,-17,1,1,2,-2
1501927727554673,-6,4,22,42,13,2,1,-5
1501927727554673,15,2,-10,-72,-29,-3,-3,8
1501927727563640,-6,-9,-8,-22,-2,-3,-1,-1
1501927727563640,-2,1,6,49,13,-3,-4,-1
1501927727578687,2,-2,2,-80,-18,-4,-2,-1
1501927727578687,-5,2,-15,14,-2,-13,1,-3
1501927727579646,2,3,9,36,0,11,2,1
1501927727579646,-2,-6,-5,61,-3,-7,-2,-5
1501927727600678,-13,-1,2,64,10,6,0,0
1501927727600678,0,-3,0,-38,-3,-1,1,0
1501927727602638,0,-3,-5,24,0,-11,-5,-2
1501927727602638,1,3,-2,41,7,12,1,-1
1501927727614700,3,-7,-24,1,-6,-6,0,-1
1501927727614700,-4,9,27,-14,8,0,1,0
1501927727623640,-8,-4,-9,-26,-3,-3,-1,-4
1501927727623640,5,2,-1,-40,2,2,4,11
1501927727638640,3,1,8,20,2,6,-3,-4
1501927727638640,4,-2,2,23,-1,-2,0,11
1501927727639653,-4,-1,-3,-49,-4,-3,-2,-2
1501927727639653,8,-1,0,-27,-3,-6,-2,-4
1501927727660714,-8,0,9,3,1,3,-2,-1
1501927727660714,6,-7,-15,78,3,-15,-6,-2
1501927727662674,-8,4,6,-82,8,13,10,4
1501927727662674,-1,-6,-21,11,-10,-2,-3,-1
1501927727674711,8,2,1,2,7,1,-1,5
1501927727674711,-11,-2,3,-38,9,-4,0,-9
1501927727683656,4,-1,3,16,-7,-8,-6,-6
1501927727683656,-7,-2,2,-62,-6,-6,-2,-6
1501927727697685,8,-1,4,22,0,3,1,2
1501927727697685,-7,-3,-14,24,5,9,2,-3
1501927727704687,0,-4,5,76,-3,-1,-3,-2
1501927727704687,3,-1,-11,-26,-10,1,1,-2
1501927727720713,-8,-4,14,78,2,-9,-4,-3
1501927727720713,-3,0,15,-94,-20,-2,-2,-5
1501927727722677,-2,-3,-12,1,10,-6,-10,-1
1501927727722677,1,-3,0,63,-3,1,6,2
1501927727743714,2,3,-1,75,4,-13,-1,3
1501927727743714,-8,-3,-10,-86,-5,27,2,-4
1501927727744648,8,1,-3,12,8,-4,-1,7
1501927727744648,-9,2,5,-11,1,-6,-8,-7
1501927727758712,5,-5,-8,-34,-8,-3,0,4
1501927727758712,-2,1,1,6,9,-5,0,-4
1501927727759647,-7,7,17,52,7,14,9,4
1501927727759647,-4,-6,-10,-61,-16,-7,-5,-4
1501927727780688,5,1,-3,-34,-10,5,-1,0
1501927727780688,-11,-4,-1,49,0,-15,-4,-15
1501927727782649,2,-3,-18,-24,-5,8,-1,3
1501927727782649,3,-2,2,78,11,-3,3,7
1501927727803680,-8,-6,-5,70,1,-3,-8,-5
1501927727803680,4,5,10,-101,-9,-1,3,2
1501927727804650,7,0,15,25,5,-8,-3,3
1501927727804650,-7,-4,0,-54,-3,5,-2,-3
1501927727818712,1,-1,-4,-73,-6,-11,-3,0
1501927727818712,-3,-2,3,87,5,19,4,1
1501927727819652,-1,2,0,13,4,-11,0,-2
1501927727819652,14,11,21,-74,8,8,5,3
1501927727840723,-13,-10,-8,43,-9,-4,-6,-4
1501927727840723,1,2,-1,-13,3,-2,3,1
1501927727842653,-14,-2,-8,-23,-4,7,-1,-10
1501927727842653,13,0,10,55,5,-8,-4,3
1501927727863669,4,0,-9,-61,-2,4,-1,4
1501927727863669,-11,-1,6,30,2,-5,2,-8
1501927727864679,13,-8,-11,-67,-19,-6,-5,16
1501927727864679,-10,-2,-17,5,-3,1,-1,-1
1501927727878687,-2,0,0,9,1,3,3,-4
1501927727878687,10,3,21,-43,2,-5,-2,3
1501927727879656,-7,-8,-38,-39,-15,-12,-5,-5
1501927727879656,-21,1,3,5,6,1,0,-6
1501927727900702,-2,0,-8,-62,-2,-11,-6,-8
1501927727900702,9,-1,16,28,6,18,9,7
1501927727902668,6,2,-1,40,-9,3,-1,-3
1501927727902668,-1,-3,3,66,11,-4,-4,-2
1501927727923673,1,-1,-8,-15,-17,-3,2,-3
1501927727923673,-9,-4,-7,43,7,-8,-7,-3
1501927727924666,-2,3,9,74,0,-4,-4,-2
1501927727924666,0,2,12,40,0,1,3,0
1501927727937698,0,-3,-4,37,3,9,5,4
1501927727937698,-1,-3,2,-14,-3,-7,-5,-4
1501927727944723,1,-4,-22,-24,2,-1,1,0
1501927727944723,2,-2,-2,-15,-7,-2,-1,0
1501927727960700,-14,3,17,-22,11,0,-2,-1
1501927727960700,7,0,-17,63,-3,4,-6,-3
1501927727962660,-8,-3,4,17,4,-13,-5,-9
1501927727962660,-2,3,4,-15,3,18,2,-7
1501927727983671,9,-3,-4,-64,-5,2,0,6
1501927727983671,-6,-8,-12,75,-8,-12,-3,0
1501927727984660,-3,-1,0,27,-17,-5,0,-1
1501927727984660,5,1,-2,14,5,0,0,2
1501927727997726,-5,-3,-14,32,7,7,0,-10
1501927727997726,8,3,9,-13,-5,-11,-10,4
1501927728004700,-2,-2,6,97,1,6,3,-3
1501927728004700,0,1,-3,-33,-12,-14,0,4
1501927728021672,-5,-2,-12,13,7,15,1,-8
1501927728021672,4,1,-31,-117,-13,-9,-4,0
1501927728022679,-1,0,20,4,11,1,-1,0
1501927728022679,-3,-5,-2,-4,-1,-2,-3,-2
1501927728043673,0,-3,1,-25,-1,-2,1,-5
1501927728043673,2,4,-4,-100,3,6,3,5
1501927728044675,-2,-3,-9,-30,11,-8,-2,0
1501927728044675,-3,-1,-3,-17,-9,10,-4,-4
1501927728057709,3,1,3,-5,-5,-9,0,4
1501927728057709,-1,-3,-16,-83,-4,5,7,1
1501927728064726,-15,2,9,-9,6,2,-4,-12
1501927728064726,-1,-7,-17,-1,-8,-13,-7,1
1501927728080732,-5,3,11,-14,5,4,2,-1
1501927728080732,-4,-1,7,106,4,2,1,2
1501927728082666,8,1,1,-45,-3,-10,-8,-4
1501927728082666,-5,-3,-4,8,0,11,1,-5
1501927728103685,5,3,12,39,7,0,0,2
1501927728103685,-12,-9,-5,-70,-28,-12,-9,-5
1501927728104668,4,2,0,-10,3,7,5,2
1501927728104668,3,1,-2,-35,2,-1,0,2
1501927728117707,3,-1,2,-4,1,-4,-3,-4
1501927728117707,-1,1,6,-15,5,3,4,-1
1501927728124737,1,-2,-12,53,4,-4,-3,1
1501927728124737,-2,0,13,61,0,0,1,1
1501927728140738,2,-1,-6,-32,-1,2,3,5
1501927728140738,-2,2,5,4,-6,-3,-4,-8
1501927728142702,-14,0,16,-32,-12,-7,-1,4
1501927728142702,3,-8,-33,18,-3,3,1,-2
1501927728163671,-1,0,4,-30,2,-5,-4,-1
1501927728163671,0,3,3,58,5,-1,-2,4
1501927728164671,5,3,7,-13,-2,10,5,-1
1501927728164671,-4,1,12,38,5,-17,-4,-4
