timestamp,emg1,emg2,emg3,emg4,emg5,emg6,emg7,emg8
1501936741009938,6,6,-45,-30,-5,8,-4,5
1501936741009938,-20,-30,-56,-45,-42,-29,-25,-22
1501936741013941,15,19,70,29,39,10,-13,23
1501936741013941,-3,-15,-25,30,-50,-5,7,2
1501936741014907,-7,-4,6,100,17,-5,-3,-19
1501936741014907,1,-3,24,81,61,7,1,5
1501936741016918,-3,-3,-6,-44,-33,-4,-2,-3
1501936741016918,-3,13,9,90,32,7,-2,-5
1501936741018944,-10,-15,-55,-31,-11,-11,-6,2
1501936741018944,3,4,6,-7,-61,3,1,8
1501936741030944,-4,13,19,-11,-26,0,10,-15
1501936741030944,-16,-17,-30,22,30,2,-12,1
1501936741043945,27,12,41,109,17,13,11,5
1501936741043945,-24,-1,-14,3,1,-4,-4,-20
1501936741048967,-13,3,-56,-10,40,15,5,3
1501936741048967,1,-25,-73,-128,-112,-30,-14,-14
1501936741057919,30,7,29,56,-11,-12,-12,42
1501936741057919,-4,-2,-15,84,45,6,20,-32
1501936741079968,-23,-3,5,-58,-26,1,-3,-21
1501936741079968,2,14,67,-27,40,-3,-8,20
1501936741080908,23,-1,44,-40,23,1,16,16
1501936741080908,-15,2,-11,33,-6,-5,-9,-9
1501936741126919,2,-1,-15,1,-3,6,9,3
1501936741126919,-24,-9,42,63,21,-3,-4,-21
1501936741127912,30,37,31,-30,35,37,18,24
1501936741127912,-18,-17,16,-41,-23,-17,-10,-6
1501936741127912,-7,-16,3,27,-23,-22,-11,-11
1501936741127912,4,-1,12,-95,-63,5,3,-4
1501936741131955,0,-3,-20,-44,7,-2,-3,18
1501936741131955,1,14,14,93,47,9,4,1
1501936741138956,10,13,23,-75,-12,9,10,12
1501936741138956,4,6,58,32,15,-4,-4,-2
1501936741147911,0,-19,-42,48,-15,-8,5,16
1501936741147911,-33,2,10,68,-15,1,-3,-53
1501936741153968,19,-2,-22,17,50,3,2,63
1501936741153968,0,2,-33,-19,-20,2,-3,-13
1501936741168981,-8,-32,-73,-4,-43,-40,-18,-29
1501936741168981,-1,4,-21,-25,8,8,8,51
1501936741176955,-10,2,-6,-34,1,8,3,-25
1501936741176955,4,2,-15,40,19,5,3,1
1501936741199974,-6,-6,33,86,-9,-4,-10,1
1501936741199974,3,-1,15,-28,7,-6,0,-4
1501936741200914,-9,-5,2,1,-25,-8,-10,-27
1501936741200914,10,-2,-48,-118,-21,-3,1,23
1501936741214925,-8,8,26,56,45,5,3,-23
1501936741214925,7,-5,2,-128,-81,-8,-2,-1
1501936741215916,3,4,8,87,-2,9,0,2
1501936741215916,-6,-3,17,92,40,-5,-2,-2
1501936741236973,-8,-13,-33,-50,-50,-28,-11,3
1501936741236973,2,1,-8,19,19,5,-2,-2
1501936741237929,2,0,-32,-80,-12,2,3,-7
1501936741237929,0,-7,-13,-42,-61,-10,1,33
1501936741259978,-2,5,32,59,16,6,0,-29
1501936741259978,-1,-3,12,60,18,2,-1,2
1501936741260917,26,-6,-42,-96,10,-11,-7,26
1501936741260917,9,3,26,40,35,1,6,17
1501936741274980,4,5,30,-46,-14,7,1,26
1501936741274980,-10,-5,-32,-23,4,0,-5,-34
1501936741275919,-8,0,31,83,-11,-3,2,-4
1501936741275919,3,4,-5,-14,-4,0,-2,-11
1501936741296969,-4,6,41,-115,0,2,1,6
1501936741296969,16,-21,-52,-29,-41,-16,-11,-18
1501936741297920,-9,10,21,92,52,13,1,-13
1501936741297920,9,-12,-64,-110,-39,-15,-9,-19
1501936741319944,-5,2,-26,-8,-5,6,4,-10
1501936741319944,27,9,12,68,28,10,8,48
1501936741320947,-52,-7,28,15,-24,-13,-12,-73
1501936741320947,4,-6,-62,16,-14,-1,0,-17
1501936741334961,-14,0,31,8,-10,-1,0,-1
1501936741334961,5,9,53,69,14,9,4,8
1501936741335921,5,-11,-56,71,-8,-9,-8,6
1501936741335921,-13,-14,-20,-61,-9,-4,-2,-7
1501936741356994,2,12,-29,-36,26,11,7,8
1501936741356994,19,-3,1,-19,-11,-11,-8,1
1501936741357921,-6,21,70,85,35,21,10,12
1501936741357921,-16,-14,-37,64,-4,-12,-9,-7
1501936741379966,4,3,-5,-22,15,7,2,2
1501936741379966,4,8,38,-37,-6,7,6,-10
1501936741380923,18,-7,-48,-61,-9,7,0,12
1501936741380923,-16,12,80,-17,0,-2,-1,5
1501936741394992,4,2,-5,63,16,3,-3,-13
1501936741394992,2,0,-34,-68,24,2,6,9
1501936741395925,15,3,27,-108,-41,-8,0,18
1501936741395925,-5,2,-2,58,2,1,-1,-34
1501936741416988,-5,2,43,8,5,5,-1,9
1501936741416988,0,7,-16,68,83,20,0,-8
1501936741417929,1,-1,20,47,-12,-6,1,-1
1501936741417929,15,10,46,127,47,13,6,47
1501936741447928,5,2,10,83,-6,5,4,-13
1501936741447928,-10,-11,-36,63,-24,-16,-9,-7
1501936741448961,-15,-2,1,-31,-21,-12,-3,4
1501936741448961,-6,0,13,-63,1,1,-2,0
1501936741454987,-6,-1,8,53,27,6,2,-16
1501936741454987,-1,-18,-62,-31,-37,-13,-6,13
1501936741455928,23,1,2,-28,-2,-2,-1,16
1501936741455928,-36,5,35,-32,18,3,4,-30
1501936741476970,9,-23,-29,-8,-73,-28,-13,-10
1501936741476970,-14,1,5,-122,-16,-1,4,-3
1501936741477932,-7,-14,-41,-27,-4,-17,-6,-12
1501936741477932,8,10,73,108,15,1,-2,-3
1501936741499991,-11,-1,14,46,-1,-13,-4,-24
1501936741499991,-9,-15,-35,-45,-34,-3,-7,17
1501936741500930,-2,-1,21,15,20,7,1,-16
1501936741500930,5,8,15,76,42,18,4,0
1501936741514072,4,0,20,-23,26,-8,1,21
1501936741514072,-6,2,15,39,2,-7,-3,-5
1501936741522077,-3,12,20,-43,31,16,7,2
1501936741522077,1,-10,-39,30,-24,-20,-6,-5
1501936741537071,-7,-3,-14,-73,-6,5,-4,-3
1501936741537071,0,5,29,89,-6,-2,-2,-33
1501936741538066,-4,-7,-54,-92,-18,-2,-4,-8
1501936741538066,7,-7,-28,77,-10,0,2,12
1501936741560104,-10,-4,-17,0,2,6,1,-10
1501936741560104,-9,-24,-57,-30,-64,-21,-14,-5
1501936741561033,-22,-6,40,78,1,-8,-1,7
1501936741561033,7,-5,-45,-40,-40,-13,-10,1
1501936741574080,8,-4,-3,48,3,-7,-4,2
1501936741574080,1,10,42,84,54,14,9,3
1501936741582075,2,-5,-4,45,10,1,1,3
1501936741582075,5,9,27,5,-1,11,5,6
1501936741597102,-17,-9,-22,-90,-31,-11,-6,11
1501936741597102,0,2,11,41,20,-4,-4,-5
1501936741598033,-5,0,-10,18,15,-1,-2,-3
1501936741598033,9,7,33,-90,27,11,4,0
1501936741620103,17,-6,-30,36,-3,-5,-4,29
1501936741620103,-13,15,35,-45,61,19,10,-15
1501936741621036,-19,-27,-66,-24,-96,-38,-14,-6
1501936741621036,-6,-11,-45,-88,-14,-12,-9,-22
1501936741634079,18,13,20,20,17,13,5,4
1501936741634079,-20,-7,-12,-65,-36,-10,-6,-31
1501936741642083,26,21,41,16,48,24,10,30
1501936741642083,-7,-6,-11,-30,-17,-1,-1,-23
1501936741657066,-17,-9,-13,-17,-28,-12,-4,-20
1501936741657066,-3,-5,-17,-11,-20,1,0,12
1501936741658069,8,3,6,-12,3,2,-1,11
1501936741658069,5,2,-10,109,40,16,10,27
1501936741680072,11,13,39,-49,-34,11,8,29
1501936741680072,22,11,33,31,10,-1,-4,-18
1501936741681040,-2,8,32,37,41,14,3,-8
1501936741681040,-7,-12,-13,89,21,-11,-4,1
1501936741694103,-13,-4,30,74,25,-3,-6,0
1501936741694103,7,-6,-56,-87,-15,-4,5,26
1501936741702102,-24,-4,-1,-8,-16,-1,-1,-26
1501936741702102,9,8,9,33,5,2,-3,30
1501936741718106,-3,-16,-51,-76,-39,0,-1,-4
1501936741718106,-12,-7,-18,-45,-28,-21,-7,-7
1501936741725088,-5,-12,-45,-9,-19,-9,-4,-2
1501936741725088,0,6,31,61,2,2,2,-14
1501936741740112,-4,-5,-10,-78,18,-1,-2,-4
1501936741740112,-1,-6,-3,75,4,0,3,23
1501936741741042,7,15,48,49,19,15,5,-13
1501936741741042,-13,-7,-24,-48,-21,-8,-6,3
1501936741754107,-3,-1,-7,39,26,-1,-14,-29
1501936741754107,19,11,37,17,24,16,11,44
1501936741762102,15,-2,-6,-72,14,5,24,-27
1501936741762102,-8,-8,-35,-66,-11,-5,-20,0
1501936741777105,5,8,5,9,-4,3,8,-27
1501936741777105,-26,1,-5,-57,13,1,-2,-49
1501936741778057,-24,-8,-10,-9,25,-8,-18,-12
1501936741778057,-8,8,13,42,9,11,15,-5
1501936741800078,3,-4,-14,36,23,0,-6,3
1501936741800078,3,1,3,121,-15,-5,-11,-19
1501936741801047,-9,-11,-10,-45,-30,-17,-9,3
1501936741801047,12,10,32,-15,52,15,16,-11
1501936741814045,-5,4,17,117,55,10,-6,-17
1501936741814045,-7,0,37,-6,-25,-2,6,7
1501936741822074,10,-3,-38,-19,-2,-9,-5,11
1501936741822074,-12,-15,-25,-50,-39,-17,-13,-30
1501936741837113,6,8,36,37,-5,1,14,17
1501936741837113,6,3,1,30,6,8,2,13
1501936741838080,14,23,75,104,59,21,7,-5
1501936741838080,29,-10,-6,38,-89,-23,-5,36
1501936741860106,-35,-1,1,47,21,1,-1,-12
1501936741860106,13,3,40,32,-2,0,5,11
1501936741860106,3,2,5,87,0,5,-8,11
1501936741860106,9,-4,4,58,20,-3,-2,38
1501936741874091,18,-1,-2,28,-14,2,1,28
1501936741874091,17,10,-9,-62,21,8,2,3
1501936741882092,-24,-15,-57,-46,-59,-15,-13,-56
1501936741882092,1,14,32,-15,31,10,11,10
1501936741897123,0,-8,-53,-128,-76,-5,-2,0
1501936741897123,-4,-3,29,64,14,-7,-1,-5
1501936741898083,25,-5,-27,-76,-41,-9,1,37
1501936741898083,-13,2,7,34,6,1,-2,-25
1501936741920113,0,-1,-15,-70,0,2,-10,-5
1501936741920113,-7,-3,-18,6,3,5,7,13
1501936741921051,-2,-5,-15,0,20,1,-2,2
1501936741921051,14,4,13,18,-7,5,13,20
1501936741943122,-19,-3,-15,-29,5,-1,-2,-18
1501936741943122,14,-6,-7,43,21,-2,-2,-6
1501936741944077,3,7,2,6,-11,4,2,13
1501936741944077,-14,-8,-27,-91,-16,-9,-6,-27
1501936741957120,9,1,12,-4,-7,-4,-2,13
1501936741957120,-7,1,-9,-26,5,4,0,11
1501936741958076,-4,4,47,50,13,3,4,-5
1501936741958076,-16,-15,-82,-66,14,-2,-15,-18
1501936741980116,1,2,-4,91,-8,-1,9,2
1501936741980116,-4,-13,-3,-26,-50,-20,-11,-32
1501936741980116,29,11,6,10,23,16,7,20
1501936741980116,-18,-13,-4,22,-37,-19,-7,-8
1501936742003117,0,-2,-1,69,25,-1,-12,-14
1501936742003117,-3,-6,-35,-5,6,1,5,5
1501936742004071,0,3,10,-3,4,0,-2,9
1501936742004071,9,4,19,-41,31,12,-1,-9
1501936742018098,4,-1,-12,-88,-17,-9,6,9
1501936742018098,12,10,22,82,36,15,-4,18
1501936742025099,-21,-11,-13,-63,-37,-19,-3,-23
1501936742025099,-10,-6,3,15,9,-3,1,11
1501936742040124,9,1,18,74,15,3,-2,-10
1501936742040124,-1,0,0,-18,-29,-4,-3,13
1501936742041059,2,-3,-1,44,9,-2,-5,1
1501936742041059,8,4,-6,-43,0,3,0,4
1501936742063127,0,-1,-11,-9,5,1,2,18
1501936742063127,2,-1,-13,-6,-4,6,-2,-13
1501936742064062,-6,-5,-1,10,29,-7,-1,23
1501936742064062,11,-1,-12,-30,-84,-15,-3,14
1501936742077074,-21,2,22,64,28,10,1,-14
1501936742077074,-10,2,7,31,-16,0,8,6
1501936742078069,-6,-4,-12,-40,-17,-4,-5,-7
1501936742078069,11,4,17,11,25,0,-3,0
1501936742099110,3,-6,-4,-57,-4,-3,7,-12
1501936742099110,-2,-2,-5,7,-10,-6,-8,-2
1501936742107133,-6,2,2,12,10,12,6,-3
1501936742107133,2,7,32,33,42,3,2,-6
1501936742123105,5,1,0,-17,-7,-3,-6,-2
1501936742123105,-25,1,16,-6,14,0,1,-42
1501936742124075,0,-8,-11,16,-17,-8,0,2
1501936742124075,1,4,4,14,4,4,-3,-28
1501936742145104,-3,7,26,-29,-11,-3,0,-9
1501936742145104,4,-4,-20,-20,-4,-6,-6,24
1501936742146077,-2,1,1,-22,-12,-2,2,-14
1501936742146077,-6,1,4,57,11,12,4,-4
1501936742159103,-3,1,31,76,-8,-3,5,9
1501936742159103,-9,-4,29,34,-1,-10,-17,-2
1501936742167065,-10,-7,-18,-9,-22,-4,7,-14
1501936742167065,5,2,9,-33,2,-4,-4,7
1501936742182107,12,1,-15,1,4,5,6,46
1501936742182107,8,2,22,54,15,1,-2,4
1501936742183106,8,6,-6,-39,7,5,-3,0
1501936742183106,-7,-1,5,77,-14,-5,5,3
1501936742205107,-20,0,-4,-11,-4,-3,-10,-8
1501936742205107,2,-1,-2,-106,-9,2,5,-2
1501936742206113,0,8,12,-48,9,5,-1,8
1501936742206113,-15,-12,-19,42,4,-7,-2,-17
1501936742228136,10,-2,-2,14,8,-1,-3,10
1501936742228136,5,7,55,56,1,2,11,2
1501936742229079,-12,-16,-64,55,-11,-13,-11,-54
1501936742229079,9,8,16,-83,6,4,-1,18
1501936742242114,-8,-4,17,30,2,-6,-3,-30
1501936742242114,-12,0,-29,-79,11,0,-2,-10
1501936742243105,4,-6,8,32,-42,-13,-2,19
1501936742243105,-9,-1,-5,-8,5,1,-2,-14
1501936742265111,-17,-6,-13,-63,-4,1,-1,-25
1501936742265111,10,7,-24,0,7,10,8,12
1501936742266112,0,-1,13,57,9,-4,-8,3
1501936742266112,-9,-6,-28,-96,-31,-6,1,3
1501936742279118,5,0,-11,-3,-12,-6,-3,24
1501936742279118,8,-9,-23,-69,-2,-4,-7,-7
1501936742287119,-34,-2,-2,-33,4,1,5,-36
1501936742287119,6,-6,-17,-65,-6,-2,-10,-3
1501936742302117,5,9,11,30,51,14,13,16
1501936742302117,-21,-2,13,40,-38,-8,-5,-7
1501936742303073,17,2,33,116,17,0,-1,14
1501936742303073,-15,-5,3,82,36,-6,-2,-6
1501936742325084,13,-5,-21,-96,-41,-10,-6,-3
1501936742325084,3,-5,-21,-8,-5,-3,-2,9
1501936742326075,-6,5,19,3,6,6,-2,-36
1501936742326075,16,5,13,-11,-4,6,2,2
1501936742348076,2,-1,4,53,17,0,-3,7
1501936742348076,17,0,2,102,23,7,4,17
1501936742349078,-11,3,12,-112,-21,-6,-5,7
1501936742349078,2,-9,-15,-27,-17,-1,4,18
1501936742362075,4,1,-21,-67,-13,-5,-5,-10
1501936742362075,-14,-11,-23,3,-11,-6,-5,-23
1501936742363104,-1,-2,7,47,45,3,0,9
1501936742363104,-4,0,-3,48,-6,0,-1,0
1501936742385120,-5,-2,-3,-30,-42,-7,3,12
1501936742385120,5,5,20,-48,2,5,5,32
1501936742386099,8,4,11,28,9,7,2,30
1501936742386099,-11,-10,-37,36,-12,-9,-7,-30
1501936742408147,9,-4,-6,18,13,1,-5,6
1501936742408147,-9,1,-8,-27,-15,0,2,0
1501936742409078,22,-6,-41,-62,-21,2,1,0
1501936742409078,2,9,33,-19,16,7,2,4
1501936742422146,14,6,17,-18,-12,7,0,3
1501936742422146,-13,-5,-5,-79,-26,-12,-6,-16
1501936742423094,5,4,-14,-56,8,3,3,20
1501936742423094,-2,-2,-28,-50,-35,4,-1,-2
1501936742445080,-2,-4,-1,78,-1,-5,-1,-5
1501936742445080,15,7,11,39,-19,7,-2,2
1501936742446082,6,2,25,97,13,-4,2,6
1501936742446082,-21,-2,1,-6,23,5,2,-5
1501936742469123,-9,-2,-2,-24,-3,-1,-2,-19
1501936742469123,9,1,-12,-36,7,-4,-1,4
1501936742470081,-5,4,23,49,21,4,-3,-21
1501936742470081,6,-4,-15,-72,-24,-6,0,20
1501936742482121,-3,-8,-26,27,20,0,0,-6
1501936742482121,2,-1,10,-38,1,-3,-2,33
1501936742483095,-18,-6,-4,-16,19,-7,-13,-67
1501936742483095,-3,6,39,70,6,4,-1,5
1501936742505142,3,-10,-30,-67,-31,-13,0,1
1501936742505142,-3,1,-3,2,38,6,4,-21
1501936742506083,-11,-8,-31,44,-12,-5,3,46
1501936742506083,-6,2,13,75,-24,-7,-6,-24
1501936742528150,-22,1,28,50,20,-3,-4,-17
1501936742528150,-4,-9,-24,48,7,-4,2,-6
1501936742529086,-7,1,7,71,-8,-1,0,12
1501936742529086,7,1,5,-51,-7,-3,3,-9
1501936742542154,-6,0,14,47,2,-3,-7,-6
1501936742542154,-12,-6,-24,-51,-3,-5,-3,-14
1501936742543088,8,-2,4,14,-7,1,-3,-28
1501936742543088,11,0,-7,-11,0,0,-2,13
1501936742565127,-2,-3,-2,3,-4,-5,-1,-8
1501936742565127,11,1,-1,60,1,5,-3,4
1501936742566101,-6,-5,-5,-73,-40,-6,-1,-1
1501936742566101,4,1,0,-21,7,0,6,7
1501936742588100,-1,3,-12,3,-3,2,-1,-3
1501936742588100,-14,-5,2,81,-1,-5,-4,-36
1501936742589090,20,0,-14,-14,-5,2,-5,32
1501936742589090,8,3,5,28,27,3,-1,11
1501936742602126,33,9,44,-63,-38,3,14,68
1501936742602126,2,-10,-58,-43,-6,-5,-2,-26
1501936742603089,-9,-3,4,-83,-36,-8,-3,3
1501936742603089,8,-2,-4,28,14,3,3,1
1501936742626117,-8,-5,-8,11,25,1,-3,9
1501936742626117,-4,1,13,11,35,4,-6,41
1501936742627101,14,8,24,-87,5,7,17,1
1501936742627101,-15,-8,-7,49,14,-6,-20,-29
1501936742648093,-6,-1,6,-26,-17,-1,11,-8
1501936742648093,1,3,7,12,-8,-3,-7,0
1501936742649128,17,0,-11,-57,10,3,0,27
1501936742649128,-15,8,36,57,75,10,-5,-35
1501936742662136,-3,-5,-18,39,-24,-5,-7,-12
1501936742662136,-7,-4,-12,-120,-20,-4,3,-12
1501936742663112,4,-1,14,77,6,-5,-4,3
1501936742663112,-1,-1,-21,44,8,-1,6,6
1501936742685134,-2,6,1,-62,-5,6,-6,-14
1501936742685134,-2,2,19,87,3,-3,1,-5
1501936742686102,-5,3,9,3,3,-3,-5,20
1501936742686102,9,-7,-27,7,-1,3,7,8
1501936742708134,-5,0,-2,-64,-11,0,3,-11
1501936742708134,-11,-2,-3,26,5,4,-7,-28
1501936742709111,-20,-12,-22,51,0,-8,-1,24
1501936742709111,1,2,9,-13,-22,-7,3,4
1501936742722139,3,2,20,84,48,7,-12,-8
1501936742722139,-9,-1,8,35,6,0,6,7
1501936742723114,-4,-1,0,-17,-10,-1,2,11
1501936742723114,18,0,-4,-52,-25,2,4,14
1501936742745160,-28,-4,-11,-69,-19,-6,-7,-18
1501936742745160,8,-1,-2,34,-1,-4,1,9
1501936742746096,-6,-1,-4,70,19,3,-12,-14
1501936742746096,-2,0,-8,-93,-32,-2,19,48
1501936742768218,0,-2,5,109,22,-2,-5,-37
1501936742768218,3,2,18,22,20,1,1,-8
1501936742769210,-6,-2,-15,-77,-67,-8,-12,-25
1501936742769210,-1,-3,-15,116,8,1,3,0
1501936742782221,8,0,2,-6,0,4,9,10
1501936742782221,-14,-7,-6,-28,-16,-11,-4,-10
1501936742783175,4,-3,-14,20,29,11,4,-15
1501936742783175,-1,5,2,-108,-36,-10,-13,-6
1501936742805217,6,-3,-5,12,-12,2,10,41
1501936742805217,-1,0,13,24,-5,-5,-14,-12
1501936742806198,-1,6,13,-28,7,8,10,20
1501936742806198,-5,-1,4,51,22,-1,2,-17
1501936742828218,11,-4,-6,-16,-26,-10,-5,11
1501936742828218,-2,-2,-21,-108,-6,2,-3,1
1501936742829179,-10,-5,4,89,11,3,1,-40
1501936742829179,-7,-5,-2,-78,-7,-5,-9,13
1501936742841221,-2,1,10,127,42,4,1,-10
1501936742841221,12,4,-2,-99,-38,-6,-2,16
1501936742850247,-33,-2,-15,20,-15,-5,-2,-74
1501936742850247,-7,-6,-10,-38,-12,-3,-6,-4
1501936742865219,6,-5,-28,55,17,0,-1,-6
1501936742865219,4,1,14,6,-15,3,6,-1
1501936742867201,13,-1,-1,40,26,0,3,20
1501936742867201,-4,-2,15,-26,-52,-12,-9,-13
1501936742888221,-29,-9,-36,-90,-35,-4,-4,-43
1501936742888221,5,3,6,75,17,5,5,3
1501936742889185,10,1,6,4,3,-6,-4,3
1501936742889185,7,1,5,42,26,8,4,1
1501936742901252,-1,-2,-7,38,32,5,-9,-4
1501936742901252,3,-4,-24,-56,-26,-4,17,15
1501936742910258,9,2,27,-12,5,-1,-5,-3
1501936742910258,3,-1,-21,59,41,11,7,4
1501936742925226,12,2,2,-28,-33,-7,-1,5
1501936742925226,-14,3,15,20,10,0,-3,-13
1501936742927184,8,-3,9,29,15,1,-1,14
1501936742927184,-11,-2,-5,-33,-12,-3,0,-23
1501936742948192,0,-3,5,-21,-27,-7,-2,4
1501936742948192,-3,-2,-4,-8,7,-2,-8,-11
1501936742949190,2,3,12,-17,4,3,5,5
1501936742949190,-6,-5,9,7,3,-3,-4,27
1501936742961255,-5,0,3,28,-3,1,-1,-2
1501936742961255,-7,-2,8,9,5,-1,-3,-1
1501936742970253,-1,0,-22,7,51,4,5,4
1501936742970253,15,-2,-4,-8,-35,-4,-2,7
1501936742985227,9,6,18,43,18,0,-1,1
1501936742985227,-2,-6,-21,-9,-4,1,8,-7
1501936742987186,2,2,9,16,27,4,-5,9
1501936742987186,-7,1,-6,-33,-10,1,-2,0
1501936743008334,-10,-3,11,9,5,-5,3,-22
1501936743008334,29,4,14,17,21,8,-1,12
1501936743009268,-5,-7,-4,-32,-50,-13,-5,14
1501936743009268,9,7,12,-18,13,3,2,-10
1501936743021336,-8,-7,-20,4,-16,-6,-3,1
1501936743021336,0,0,11,59,26,5,-2,9
1501936743030283,-4,-3,-20,-47,-22,1,-3,-11
1501936743030283,5,-5,-9,-24,0,-3,3,0
1501936743045334,26,4,-4,-94,1,5,3,53
1501936743045334,5,2,17,61,11,4,-5,-22
1501936743047270,-15,-5,-21,-66,-29,-6,3,-1
1501936743047270,-8,2,20,111,26,7,-5,-16
1501936743068285,-10,-4,-19,39,17,-6,-1,-10
1501936743068285,7,-6,-30,-91,-34,-2,-3,14
1501936743069292,6,1,3,-37,-26,0,1,18
1501936743069292,0,2,12,-42,24,-4,5,-5
1501936743081298,17,-2,12,39,-9,1,-1,16
1501936743081298,-12,3,8,-18,9,1,-2,-15
1501936743090283,23,0,-9,55,11,-3,-1,24
1501936743090283,-28,-11,-20,-40,-70,-14,-3,-1
1501936743113348,11,6,8,0,14,7,-4,-14
1501936743113348,-11,-6,-8,-16,-20,-4,2,-1
1501936743114275,3,2,22,3,-9,1,-4,22
1501936743114275,11,4,8,-28,13,7,13,-10
1501936743128337,-11,-5,-12,-23,-36,-14,-8,-6
1501936743128337,17,4,10,81,36,6,0,36
1501936743129277,-22,-12,-17,-18,-18,-5,0,-11
1501936743129277,15,3,4,95,3,3,-5,21
1501936743142322,-16,-2,3,-71,10,-1,0,-32
1501936743142322,-3,-1,-14,4,-9,-4,3,6
1501936743150292,27,3,18,9,17,6,0,19
1501936743150292,-12,-7,-34,-13,29,-1,-5,-14
1501936743165337,4,-1,9,-5,-17,1,2,29
1501936743165337,-9,-2,-6,25,11,-8,-3,-19
1501936743167289,-1,0,2,-23,-13,-2,0,-4
1501936743167289,-4,-5,-19,-54,-22,1,-4,-6
1501936743188322,2,-1,-6,29,10,1,-6,12
1501936743188322,4,-2,2,-56,-13,-3,6,13
1501936743189279,-10,1,-8,19,13,-1,-2,-8
1501936743189279,-8,2,8,61,2,-2,-1,-16
1501936743201336,-4,-6,-10,85,23,-1,-8,-13
1501936743201336,-4,-1,3,-47,-38,-2,-1,10
1501936743210296,0,-4,-11,-4,-14,-6,-2,14
1501936743210296,14,7,25,106,3,3,3,-2
1501936743225351,-38,-7,1,1,-1,-1,-2,-50
1501936743225351,23,-4,13,73,16,-7,-2,31
1501936743227279,-12,1,0,10,14,6,4,19
1501936743227279,2,-3,3,-35,12,0,-8,-54
1501936743248321,6,-2,-8,23,-37,-5,0,13
1501936743248321,2,-3,-20,-37,-16,-3,-4,7
1501936743250293,-13,-2,-3,-46,-26,1,-3,-41
1501936743250293,31,2,18,100,46,2,4,46
1501936743261323,-1,1,6,-11,0,-3,2,-6
1501936743261323,-11,-3,-12,-60,-41,-1,-4,-35
1501936743270283,7,-2,-16,19,8,-4,-1,-3
1501936743270283,-9,0,-2,-86,0,3,1,3
1501936743285340,2,-1,-3,-6,-22,-1,2,4
1501936743285340,0,8,9,-4,18,8,6,5
1501936743287283,-3,-6,17,95,-3,-13,-6,-34
1501936743287283,-33,-2,5,25,23,-2,-6,-22
1501936743308349,10,2,1,-51,-15,0,3,8
1501936743308349,-6,-1,24,82,40,3,-2,-5
1501936743309287,-10,-4,-30,-42,5,-11,-4,-9
1501936743309287,9,-10,-23,-45,-36,1,2,30
1501936743321318,12,1,-4,-33,37,6,0,-21
1501936743321318,-13,-3,-9,-2,4,3,0,-15
1501936743330293,-8,4,8,11,-5,-13,-3,-23
1501936743330293,0,-1,-8,-43,-38,1,1,20
1501936743345299,4,3,2,-7,20,4,-4,11
1501936743345299,24,-4,2,74,-7,-15,-7,9
1501936743347288,-13,-4,-1,13,17,17,6,-14
1501936743347288,-11,5,3,-93,-24,5,-3,0
1501936743368299,-9,-2,-19,64,5,-1,2,-15
1501936743368299,-2,-2,3,-16,10,-6,-2,5
1501936743369290,17,-1,8,61,22,-3,-2,9
1501936743369290,-8,0,-17,-1,-39,-9,-6,-9
1501936743390290,-5,-2,13,-10,29,7,5,12
1501936743390290,-13,0,2,1,-27,-5,-7,3
1501936743392291,11,1,9,65,33,9,9,30
1501936743392291,-7,1,14,28,15,1,-4,-35
1501936743405319,8,7,27,30,15,4,7,10
1501936743405319,-13,-16,-40,-27,-39,-12,-11,-24
1501936743407288,-2,0,14,3,-10,4,0,6
1501936743407288,13,-2,-10,37,14,-4,-6,12
1501936743428354,-4,0,15,12,-7,-6,1,8
1501936743428354,-4,0,5,8,12,7,4,-10
1501936743429303,3,0,-6,20,16,2,-6,13
1501936743429303,-30,-4,10,56,-14,-19,-2,-33
1501936743450355,-31,-12,-34,-40,-20,-11,-11,-17
1501936743450355,0,0,7,-1,44,10,6,4
1501936743452291,-6,-1,1,-34,-20,13,0,-2
1501936743452291,12,2,14,68,24,-1,-6,25
1501936743465331,12,7,21,-52,-21,3,12,39
1501936743465331,-8,-5,-27,6,12,-9,-11,-17
1501936743467321,3,1,12,43,3,-1,1,24
1501936743467321,12,-2,2,-13,16,7,-2,-1
1501936743488342,5,-2,-19,-44,-36,-4,0,-9
1501936743488342,0,1,5,-13,-15,2,1,-3
1501936743489293,2,3,6,-55,4,-2,4,-1
1501936743489293,7,1,1,-2,-4,-1,-1,1
1501936743510342,-6,-7,-16,29,15,-1,-8,-14
1501936743510342,9,2,9,42,2,-5,1,3
1501936743512301,-12,-4,-28,-48,-44,-3,2,-12
1501936743512301,3,0,20,85,49,6,0,-15
1501936743525307,7,-1,12,-37,4,-1,1,15
1501936743525307,15,4,-8,-25,10,8,4,13
1501936743539335,1,0,-6,-1,1,-1,-4,-26
1501936743539335,9,-1,-7,-42,-14,-11,1,29
1501936743548343,2,7,9,14,22,12,-2,-9
1501936743548343,-14,-1,25,27,-7,0,-4,25
1501936743549320,-7,-5,3,28,-8,-12,-6,-26
1501936743549320,7,1,-4,-14,-7,3,6,3
1501936743570367,-11,-4,-3,-24,7,-3,-4,-9
1501936743570367,-4,3,12,-39,-22,-3,1,5
1501936743572297,2,1,10,9,-7,0,-3,-1
1501936743572297,-11,-5,-5,-66,-8,-4,-2,-23
1501936743593370,10,0,-14,65,12,3,1,7
1501936743593370,-17,1,5,-19,1,5,-1,-28
1501936743594314,18,-6,-11,37,19,-4,10,61
1501936743594314,-2,4,1,41,-20,-4,-5,-24
1501936743608344,2,0,-2,42,17,-4,-2,6
1501936743608344,-10,-4,-18,-57,-32,-8,-3,-20
1501936743609302,5,3,10,34,13,2,-3,-4
1501936743609302,1,-1,4,34,11,6,0,18
1501936743630366,-5,-2,3,-10,-7,-2,-3,-5
1501936743630366,3,1,-6,8,9,-1,0,5
1501936743632303,-2,2,2,-25,-12,-4,-3,-18
1501936743632303,-6,-2,-9,-41,-6,6,0,0
1501936743644364,-14,-10,-14,8,-18,-11,-8,-18
1501936743644364,16,-1,0,-46,-2,-3,-1,-13
1501936743651342,1,3,16,-52,-7,2,1,1
1501936743651342,-2,5,24,46,5,0,0,-9
1501936743668343,-21,-21,-39,-7,-66,-21,-8,-8
1501936743668343,3,0,1,34,17,6,4,7
1501936743670306,-5,0,5,5,-5,-6,-11,0
1501936743670306,14,0,3,25,-2,1,6,4
1501936743691315,0,6,15,4,20,6,0,6
1501936743691315,2,2,9,36,30,7,2,3
1501936743692313,-17,-11,-39,-26,-30,-13,-5,-21
1501936743692313,17,-5,-4,-74,2,3,2,85
1501936743705325,8,3,3,-30,-12,-3,-2,-19
1501936743705325,5,1,8,15,-2,-2,-6,13
1501936743711376,-4,3,15,11,34,7,10,-8
1501936743711376,-7,-7,-25,-50,-34,-5,-2,2
1501936743728313,0,3,-2,-65,3,1,0,-2
1501936743728313,-3,1,11,-1,-5,4,6,-2
1501936743729320,1,4,14,49,31,4,-4,1
1501936743729320,-7,1,4,52,-37,-8,-2,-16
1501936743750378,0,-4,12,-15,11,0,1,10
1501936743750378,-2,-4,-39,-38,-24,-8,1,-12
1501936743752341,-19,-5,-1,6,-12,-1,-10,-49
1501936743752341,-13,3,-4,37,15,-3,-2,-17
1501936743765328,-5,-6,-2,98,1,-6,-1,-1
1501936743765328,-14,0,11,28,21,-2,-4,-27
1501936743771382,13,3,-3,-96,-81,7,7,16
1501936743771382,-11,-6,4,-24,7,-13,-6,-12
1501936743788346,-4,1,-20,-35,0,-3,0,6
1501936743788346,7,-4,-12,81,13,4,0,11
1501936743789321,6,7,5,51,14,6,4,7
1501936743789321,2,-9,-36,-71,2,2,-6,-10
1501936743810352,5,5,10,-70,-5,-4,-3,-11
1501936743810352,-3,-5,-8,34,-10,-12,2,30
1501936743812345,-5,-2,-8,-12,16,5,-1,-12
1501936743812345,-2,2,2,-55,-29,-1,2,-4
1501936743825332,5,2,6,29,13,5,-3,2
1501936743825332,6,-1,5,1,-8,0,0,9
1501936743831383,-2,-5,-30,-31,9,-6,1,-3
1501936743831383,-6,-5,-5,6,-4,-5,-1,4
1501936743848348,4,0,-21,-25,-12,5,0,6
1501936743848348,-1,1,-2,-57,-2,4,2,-7
1501936743849323,4,-4,9,-16,-33,-10,-3,8
1501936743849323,-3,-2,-6,55,30,3,0,-12
1501936743870316,4,2,10,-18,-6,2,6,18
1501936743870316,-6,2,21,-6,-9,-1,-6,-16
1501936743872315,13,-3,-14,25,53,11,-1,3
1501936743872315,-5,-1,1,21,8,-3,1,41
1501936743884387,-10,0,2,-66,0,4,1,-27
1501936743884387,-4,-1,-19,30,24,-3,-1,-4
1501936743893317,5,5,19,-52,-18,4,1,11
1501936743893317,-12,-10,-24,30,4,-6,-9,0
1501936743908347,-1,3,-6,-26,0,-4,4,11
1501936743908347,-1,1,14,41,37,11,-1,-13
1501936743909320,-8,0,-4,74,4,-2,-1,-3
1501936743909320,7,1,2,92,24,1,4,-5
1501936743931317,10,2,22,31,-44,-4,-10,-7
1501936743931317,-12,-4,-23,-70,-10,-7,-4,2
1501936743932323,-1,-4,6,78,11,-8,-1,0
1501936743932323,4,2,5,-50,-4,5,0,-10
1501936743944319,11,-4,-3,61,36,2,1,26
1501936743944319,6,3,15,-24,-34,-2,2,-8
1501936743953321,-6,-4,-8,-28,-2,0,-3,2
1501936743953321,6,1,-6,-38,-42,-1,1,-13
1501936743968360,-2,-2,5,38,18,2,0,2
1501936743968360,3,1,2,32,-20,-4,-4,2
1501936743969320,-3,1,6,-90,-7,-13,-5,-2
1501936743969320,4,3,0,-10,16,9,3,1
1501936743990368,1,4,18,25,10,3,-3,2
1501936743990368,0,0,14,-70,-25,0,-1,-3
1501936743992357,-6,-8,-31,11,-15,0,-2,-13
1501936743992357,-3,-1,-5,-25,6,-6,-5,-4
1501936744004390,-3,7,24,54,30,7,3,-4
1501936744004390,-13,-6,-10,-8,6,-13,-6,-7
1501936744013326,18,-1,-6,-47,-18,-2,-1,19
1501936744013326,-4,-3,-4,-35,-7,1,-2,-10
1501936744028335,2,-1,-13,-26,2,-4,2,16
1501936744028335,-17,-3,-1,30,8,5,-1,-17
1501936744029324,-1,0,7,-43,18,2,-1,9
1501936744029324,-15,-4,-15,16,9,4,4,-17
1501936744050392,12,-1,-3,-64,-33,-8,-8,7
1501936744050392,6,3,0,-17,-2,-3,-1,4
1501936744052326,-6,-3,12,26,2,-1,0,-7
1501936744052326,-2,2,21,65,1,-3,-1,-6
1501936744064363,-14,-7,-11,-33,-1,0,-3,-17
1501936744064363,1,0,14,-25,-13,2,3,8
1501936744073343,0,4,-29,-12,2,-3,-3,-5
1501936744073343,-5,-5,6,9,-7,3,-5,0
1501936744088386,-7,-6,-7,13,-3,-1,1,-7
1501936744088386,13,0,-7,56,22,5,-1,24
1501936744089329,-12,3,18,8,-10,-9,1,-11
1501936744089329,6,1,-3,-19,-6,3,2,9
1501936744110395,-2,-4,-10,-4,0,-6,-5,-16
1501936744110395,-1,1,7,31,6,5,-1,0
1501936744112329,-7,-6,-2,-13,-12,-6,-4,-9
1501936744112329,34,6,12,9,4,-1,1,26
1501936744124367,-13,-7,-24,-37,-26,-6,-4,-7
1501936744124367,2,-3,-7,-3,-7,-3,5,1
1501936744133335,2,-1,-2,48,25,3,-7,6
1501936744133335,0,1,12,-7,-28,-6,3,-7
1501936744148373,4,4,9,-61,2,8,6,4
1501936744148373,-12,5,21,22,-9,-5,1,-6
1501936744150330,0,-11,-31,12,11,0,-1,-6
1501936744150330,-9,-4,-12,-67,3,-1,-4,-6
1501936744170391,2,0,7,59,10,1,0,0
1501936744170391,2,-6,-11,-5,-17,-6,-2,20
1501936744172333,-3,7,36,8,22,13,2,-43
1501936744172333,-10,-6,-30,-74,-11,-5,-6,-12
1501936744184405,-4,2,9,14,5,1,0,-1
1501936744184405,9,-6,-29,19,2,-1,-3,-6
1501936744193334,-6,3,-6,-73,-44,-6,-3,17
1501936744193334,4,-3,16,32,19,-5,4,-2
1501936744208385,-8,1,11,-26,-2,8,3,-8
1501936744208385,0,1,11,8,2,-6,-2,-4
1501936744209336,-8,-3,-1,15,-8,-3,-2,-1
1501936744209336,6,2,2,-28,23,6,-4,-59
1501936744230375,3,-4,4,89,11,-8,-6,12
1501936744230375,-1,0,-6,-1,3,2,0,-1
1501936744232336,3,-2,0,10,-26,-4,-1,-6
1501936744232336,-32,2,6,-18,5,1,0,6
1501936744244398,11,2,3,48,21,6,3,-12
1501936744244398,-5,-1,11,-77,2,0,-6,-8
1501936744253338,12,-7,-52,11,23,-1,-2,8
1501936744253338,-3,0,3,-22,-63,-12,1,4
1501936744268347,5,1,0,1,14,4,4,5
1501936744268347,-22,-7,-6,47,-33,-10,-3,10
1501936744269338,10,6,12,-13,53,11,8,16
1501936744269338,-22,-10,-13,-64,-18,-9,-11,-57
1501936744290383,-10,0,16,46,29,-2,-3,-13
1501936744290383,12,7,31,69,20,1,2,7
1501936744292341,-7,-4,-19,-37,-31,-4,-3,-7
1501936744292341,6,0,-5,119,50,6,0,15
1501936744313360,2,-6,-14,15,-12,-5,3,-4
1501936744313360,-19,-5,-19,45,-15,4,-7,-12
1501936744314342,5,1,25,-51,-57,-10,-3,26
1501936744314342,7,5,10,15,14,0,5,11
1501936744328369,-5,-4,-26,-71,-23,-5,0,11
1501936744328369,17,-2,-11,-11,17,-1,2,33
1501936744329342,-39,-2,21,54,6,7,-2,-28
1501936744329342,2,0,-9,-71,-17,-4,-1,24
1501936744350409,-6,1,2,-3,0,-3,-2,-13
1501936744350409,4,0,-3,-45,-2,1,2,12
1501936744352342,0,-10,-33,-30,-7,-11,-6,2
1501936744352342,1,4,33,32,-2,-2,0,11
1501936744373410,-9,-8,-45,-25,-16,-3,-4,9
1501936744373410,8,-5,-5,-3,-12,-5,-2,-9
1501936744374345,8,7,40,123,24,6,2,35
1501936744374345,-3,4,13,-8,5,7,0,-4
1501936744388384,15,-12,-30,-56,-29,-19,-9,8
1501936744388384,-3,3,-13,-35,14,16,5,-25
1501936744389346,7,9,43,76,15,3,2,-3
1501936744389346,-8,-13,-39,-36,-15,-4,-4,2
1501936744410405,18,7,24,33,-26,3,2,40
1501936744410405,12,1,-3,-86,-8,-4,-3,-15
1501936744412345,-20,-5,-15,72,16,-8,1,-16
1501936744412345,-1,-2,5,-36,-2,2,-3,0
1501936744433361,-3,3,-1,37,33,12,3,-10
1501936744433361,-6,-6,-2,90,-32,-9,-5,-2
1501936744434361,1,-2,-2,-33,-14,1,-1,-45
1501936744434361,3,-1,12,21,2,-4,1,1
1501936744448418,-6,4,7,33,-4,-1,-1,-4
1501936744448418,-5,5,17,63,15,1,0,-24
1501936744450347,1,-8,-23,-75,-21,-8,-5,4
1501936744450347,0,-2,-12,81,18,3,0,5
1501936744470410,3,6,26,0,3,3,0,-6
1501936744470410,-2,-1,10,-115,6,0,1,0
1501936744472350,1,0,-26,1,18,3,1,6
1501936744472350,7,-7,-15,-65,-13,-10,-2,11
1501936744493375,19,9,38,114,33,7,3,20
1501936744493375,-13,-3,-13,28,-38,-9,-2,-13
1501936744494351,13,-4,-23,20,7,0,2,9
1501936744494351,-12,-2,-9,14,-11,-4,-6,-5
1501936744507384,6,1,4,29,13,6,-3,-26
1501936744507384,4,-1,-36,8,21,2,0,0
1501936744521417,-6,7,41,27,-11,-1,-1,0
1501936744521417,6,3,4,31,2,-2,3,7
1501936744530413,-5,-2,-1,-89,-10,-5,-4,-12
1501936744530413,-6,-1,11,-27,-3,1,1,0
1501936744532352,6,-3,-8,-37,-6,1,5,-17
1501936744532352,-11,3,6,35,6,5,-1,17
1501936744553389,-14,-2,6,75,20,2,1,-18
1501936744553389,9,3,3,-44,-10,-1,-2,27
1501936744554366,-33,-8,-6,-20,-24,-9,-7,-28
1501936744554366,15,3,19,101,7,-3,1,29
1501936744567395,-4,-11,-46,-57,-3,1,-2,0
1501936744567395,-8,1,26,10,10,-1,0,5
1501936744574424,11,0,1,57,3,0,-2,16
1501936744574424,8,-6,-34,-5,6,-1,3,-5
1501936744590428,-20,-4,-3,-12,2,-4,-9,-2
1501936744590428,14,7,2,-23,-7,0,0,-4
1501936744592388,9,5,14,-12,17,5,4,12
1501936744592388,0,-3,-3,35,9,-1,-2,-10
1501936744613372,-6,-3,1,-20,4,-3,-1,1
1501936744613372,-7,-9,-23,-57,-6,-1,-2,-16
1501936744614373,8,0,-9,-52,-1,-2,-2,13
1501936744614373,1,1,9,9,14,7,-2,-2
1501936744627400,-4,0,3,75,-4,-6,-1,5
1501936744627400,12,-2,-4,-27,1,2,1,16
1501936744634419,-21,-11,-11,72,36,2,-6,1
1501936744634419,-3,8,6,-29,-21,-1,-1,-31
1501936744650400,-9,-7,-24,-34,-27,-9,-1,-3
1501936744650400,7,-2,24,97,12,-6,-7,-3
1501936744652391,6,1,-12,3,-1,2,1,6
1501936744652391,3,-2,20,114,3,-7,-5,-6
1501936744673374,-16,-1,12,-36,-1,0,-7,-15
1501936744673374,-18,-1,-3,97,4,-3,-2,-16
1501936744674365,9,5,10,-78,-43,0,2,-3
1501936744674365,-12,3,8,-17,0,-1,1,6
1501936744687426,20,-1,-2,-7,-40,-7,-1,-9
1501936744687426,5,-10,-44,-85,-8,0,-2,13
1501936744694397,-19,3,31,42,0,-2,0,-3
1501936744694397,3,-7,-36,-120,-21,-1,-2,2
1501936744710424,-1,-5,-21,8,23,2,2,3
1501936744710424,7,4,28,3,-11,-5,-3,2
1501936744712362,3,-10,-35,-68,-22,-9,-4,-7
1501936744712362,-1,-2,-6,-17,10,-6,-2,-1
1501936744733379,-3,2,-4,-18,15,12,5,4
1501936744733379,-9,3,1,-30,1,-1,0,-7
1501936744734365,6,1,12,4,8,-1,-1,5
1501936744734365,1,2,9,82,29,5,-1,2
1501936744747406,-8,1,6,75,-4,-1,-2,-24
1501936744747406,-4,-2,-16,29,7,3,3,1
1501936744754438,5,2,21,30,-11,0,-1,1
1501936744754438,3,-2,-20,-12,4,-1,0,8
1501936744770407,-1,1,0,-41,0,-3,-5,-5
1501936744770407,-8,-3,-3,5,-4,3,1,4
1501936744772366,-4,-3,-12,-14,0,-9,-3,-1
1501936744772366,-3,-1,4,11,-8,7,-3,3
1501936744800427,14,3,24,32,18,4,10,24
1501936744800427,6,1,-8,49,5,-5,-5,-10
1501936744802400,-13,-6,-21,-6,-1,0,-1,6
1501936744802400,-2,0,1,43,-12,-7,0,-5
1501936744806376,-3,-2,3,-49,-14,-2,-2,4
1501936744806376,2,1,22,37,28,8,4,3
1501936744815401,17,4,-13,-29,2,4,0,7
1501936744815401,-3,-2,-5,-10,-18,-5,-1,-1
1501936744830436,-3,0,-3,-27,-1,-8,-3,-6
1501936744830436,-4,-3,16,1,-9,-6,-3,-2
1501936744832371,-7,2,-8,-12,-16,3,-4,-11
1501936744832371,3,0,7,51,16,7,2,-2
1501936744853408,1,-8,-30,-98,-40,-10,-5,1
1501936744853408,-4,4,5,-9,13,5,1,-5
1501936744854371,8,0,8,43,-4,4,4,9
1501936744854371,2,-3,6,35,1,-2,-3,-8
1501936744866431,-3,2,13,67,-8,-3,0,-3
1501936744866431,-6,0,1,-54,-5,3,-1,-2
1501936744875399,2,-8,-8,44,3,-14,-7,-7
1501936744875399,-13,3,5,-39,-15,5,5,-4
1501936744890432,-1,0,23,-21,15,-4,-4,2
1501936744890432,2,-3,-1,-10,13,0,-1,2
1501936744892375,1,-1,17,-14,14,-3,-3,-2
1501936744892375,-1,2,2,12,-1,-4,-4,-3
1501936744913414,-2,-3,-18,-46,15,5,2,0
1501936744913414,-5,-1,-23,-56,-7,0,1,-1
1501936744915376,3,1,11,41,31,3,0,0
1501936744915376,-3,-6,-15,-45,-26,-9,-5,0
1501936744926438,0,3,17,73,2,1,2,2
1501936744926438,-9,-1,3,40,-2,-2,0,-3
1501936744935409,-5,-5,-16,-48,-8,2,-1,0
1501936744935409,6,0,-10,-27,14,-1,-3,-1
1501936744950442,1,1,3,-56,-18,-3,-1,-2
1501936744950442,1,-2,9,-13,-4,-4,-1,2
1501936744952385,-3,0,10,85,17,-1,0,-7
1501936744952385,-9,-3,-6,-100,-59,0,-1,-14
1501936744973379,1,0,18,37,7,-12,-6,2
1501936744973379,-1,-5,-6,62,-7,-3,-4,-6
1501936744974381,7,10,20,-40,-7,-5,4,9
1501936744974381,-1,-5,-9,51,22,8,-3,-13
1501936744986378,19,1,-10,18,3,9,4,3
1501936744986378,-22,-2,-8,-119,-7,2,-2,-15
1501936744995416,10,1,-4,34,3,1,3,-2
1501936744995416,-33,-5,3,-4,19,-9,-4,6
1501936745010443,21,2,4,-36,-37,-4,-2,3
1501936745010443,4,-1,-9,28,6,-4,-2,2
1501936745012381,2,-6,-36,-56,-34,-3,-4,-13
1501936745012381,4,4,2,63,12,10,4,2
1501936745033379,-18,-1,13,44,11,-6,-2,9
1501936745033379,2,-3,-22,-61,-1,-2,-3,-7
1501936745034392,3,-2,-11,20,-22,-5,1,6
1501936745034392,-13,-4,-10,-81,-14,-3,-2,-10
1501936745055427,-7,-3,-13,42,18,0,-1,1
1501936745055427,14,2,6,27,8,4,5,9
1501936745057386,-13,-1,20,24,-50,-9,-6,-23
1501936745057386,14,-2,-3,2,10,-4,0,7
1501936745070449,0,-1,14,45,19,3,-1,-2
1501936745070449,-18,-2,-12,-11,-12,-6,-3,-3
1501936745072382,-9,-3,-14,-24,24,3,0,-3
1501936745072382,17,-2,-17,-15,-15,-1,-1,15
1501936745093401,-9,1,12,85,23,3,-1,-10
1501936745093401,8,-3,-20,56,-4,-3,-2,3
1501936745094383,3,-4,0,-14,-9,-1,-1,15
1501936745094383,-1,6,25,29,6,3,4,2
1501936745106423,1,-2,-40,-83,-1,1,1,2
1501936745106423,2,-3,14,109,51,0,0,8
1501936745115385,4,2,9,-83,-19,-3,-1,3
1501936745115385,10,0,18,51,-4,-5,1,6
1501936745130446,-23,-5,-19,-10,-6,5,-4,-17
1501936745130446,1,3,7,4,-7,0,0,-2
1501936745132387,-6,1,9,-40,8,5,-5,-10
1501936745132387,18,8,26,45,15,-3,-1,9
1501936745153407,-1,-3,-18,-39,-20,-5,-1,-8
1501936745153407,-10,-3,-7,-15,-24,2,1,-2
1501936745154419,15,-1,-7,88,29,3,0,-14
1501936745154419,-11,4,18,-58,-13,4,-1,-3
1501936745166415,7,-2,-4,-45,-14,-1,-2,6
1501936745166415,5,2,20,15,18,1,0,-3
1501936745175423,-15,0,-5,-33,8,-7,-3,-14
1501936745175423,-4,-1,-12,-15,-3,10,1,-4
1501936745190450,-3,1,1,-16,-1,-5,1,3
1501936745190450,2,3,19,34,8,4,3,-1
1501936745192399,24,0,1,33,5,5,-2,25
1501936745192399,-9,-1,3,34,1,-9,2,-1
1501936745213408,2,4,21,-4,5,2,-6,12
1501936745213408,29,0,-8,-6,16,2,-3,35
1501936745214391,-18,-11,-58,-29,-24,-9,1,-10
1501936745214391,1,-3,12,-53,-23,-6,-3,-6
1501936745226432,-2,-2,-14,20,-4,2,2,2
1501936745226432,1,-1,0,33,-8,-6,1,-2
1501936745235426,-3,5,26,20,6,4,-2,1
1501936745235426,-3,-4,-31,-82,-7,-1,-3,5
1501936745250459,3,-4,3,37,18,-2,2,-4
1501936745250459,-3,-3,-13,-42,-36,-5,-4,-10
1501936745252399,-10,1,2,-29,10,0,1,1
1501936745252399,-3,-3,-4,15,13,7,-1,-4
1501936745273417,4,1,-6,-23,10,1,0,-8
1501936745273417,-7,-2,-18,-62,-18,-3,-3,-5
1501936745274407,-13,-2,-11,-90,-31,1,0,-30
1501936745274407,1,-2,2,46,2,-9,0,12
1501936745295464,11,3,-3,-25,-16,3,-4,-1
1501936745295464,-10,-7,-4,-5,-20,-3,-3,-7
1501936745297395,14,2,9,54,16,3,5,7
1501936745297395,-3,-1,-6,-68,17,-5,-4,0
1501936745310457,-8,-4,4,-6,-28,-7,-3,-9
1501936745310457,3,5,20,16,27,5,2,-4
1501936745312412,-2,-4,-18,-43,-11,1,-1,13
1501936745312412,5,-11,-28,16,0,-5,-3,-2
1501936745333417,-8,0,3,21,3,2,0,-4
1501936745333417,10,-2,-7,9,-2,-4,-1,1
1501936745334405,-6,5,19,-27,14,-2,4,5
1501936745334405,14,3,24,77,9,10,-2,4
1501936745355398,-1,-6,-25,-30,4,-7,-4,10
1501936745355398,-11,-1,5,55,-14,-5,4,-5
1501936745357399,3,-1,16,8,12,6,-1,4
1501936745357399,2,6,7,36,-10,-1,3,-2
1501936745370457,-7,-7,-20,-54,-21,-6,-2,-3
1501936745370457,-1,-3,-6,-26,-16,-2,1,-4
1501936745372403,0,-1,16,52,10,2,0,14
1501936745372403,-2,-1,-14,14,-3,-8,-10,-14
1501936745393415,-1,2,29,49,15,-7,-1,1
1501936745393415,1,-2,-11,-70,-44,-1,2,5
1501936745394399,-14,1,-5,-11,-7,0,-1,-10
1501936745394399,5,3,13,54,16,9,4,-8
1501936745415405,-4,2,4,14,-2,-1,2,-6
1501936745415405,-1,-10,-32,9,9,-15,-10,5
1501936745417403,-4,-1,1,29,14,7,0,-9
1501936745417403,5,0,-2,-43,-5,-1,1,9
1501936745429424,8,-3,-9,-60,-23,3,1,-7
1501936745429424,-6,4,21,-21,5,2,-1,-3
1501936745436446,0,-5,-1,26,4,-7,-2,5
1501936745436446,-6,-9,-16,34,-16,-9,-4,-9
1501936745453416,-3,4,6,-45,-10,1,0,-2
1501936745453416,1,4,27,43,18,5,-1,-4
1501936745454403,-8,-13,-12,24,-18,-19,-7,0
1501936745454403,1,-1,-3,-20,0,5,1,4
1501936745475448,1,3,24,113,25,-1,0,9
1501936745475448,-1,-3,-33,-30,-12,0,-1,-6
1501936745477409,3,-2,-3,67,21,5,-1,0
1501936745477409,-7,-2,-2,-115,-32,-1,0,-3
1501936745489446,-3,-1,10,11,9,-3,0,-5
1501936745489446,-8,-1,8,59,-18,-4,-3,-3
1501936745496446,2,3,6,-2,1,1,-2,-7
1501936745496446,0,0,-10,16,25,4,0,-2
1501936745513424,-1,-1,2,-57,-23,3,1,2
1501936745513424,-1,-1,0,-12,-2,-3,0,-5
1501936745514417,0,-1,-7,-20,-8,-9,-4,11
1501936745514417,-5,0,9,19,-3,-3,1,-4
1501936745535470,3,0,-14,8,1,5,5,4
1501936745535470,3,0,-3,-5,16,5,-6,2
1501936745537417,-4,-1,5,-2,-30,-7,0,-4
1501936745537417,-3,-2,3,4,9,-7,0,-3
1501936745550470,-7,-4,-6,13,6,3,-2,-6
1501936745550470,5,0,-2,-34,-4,-1,1,7
1501936745558410,1,2,5,10,9,8,2,0
1501936745558410,-2,-1,0,10,-5,-5,-5,-3
1501936745573420,-3,-3,-10,25,-5,-6,-4,-3
1501936745573420,-4,-1,8,1,2,0,-1,-5
1501936745574410,1,0,-4,-17,3,2,-1,-4
1501936745574410,-2,0,-3,-14,-2,-2,0,2
1501936745596411,2,-2,-3,-7,-1,1,0,3
1501936745596411,-3,-1,-2,-3,7,-5,-4,-10
1501936745597411,3,0,3,12,7,8,-1,2
1501936745597411,2,0,-4,-39,-7,-1,1,0
1501936745609470,-4,-2,2,30,4,-5,-4,-2
1501936745609470,-4,-3,-3,-30,-4,0,-1,0
1501936745616475,-2,-1,2,21,-2,-7,-2,0
1501936745616475,0,0,6,14,2,1,-4,0
1501936745632452,0,0,-5,-15,-2,0,1,-28
1501936745632452,-14,-3,0,2,1,-1,-4,-9
1501936745634413,19,1,2,-4,1,1,4,15
1501936745634413,-17,-4,-8,-8,0,-3,1,-25
1501936745655455,0,0,-3,-1,-3,1,-5,9
1501936745655455,15,0,0,3,4,3,9,11
1501936745657415,-19,1,0,-5,4,4,12,-29
1501936745657415,2,0,3,13,1,-3,-13,7
1501936745669441,-7,-7,-8,-17,-7,-5,14,-4
1501936745669441,4,1,5,12,1,0,-13,0
1501936745678416,33,-2,-3,-14,-1,0,-26,-1
1501936745678416,-7,-2,-4,-7,-3,-1,24,43
1501936745693430,-15,-3,-8,-8,-6,-8,17,-72
1501936745693430,-11,0,-1,0,1,0,4,9
1501936745694417,-8,-1,-3,-3,-2,-5,-5,-13
1501936745694417,5,-1,0,-2,1,-2,-24,-19
1501936745716436,15,-2,2,1,4,1,-2,38
1501936745716436,-8,-3,-1,7,1,3,8,-6
1501936745718418,-8,0,-6,-14,-7,-5,-7,-11
1501936745718418,8,1,1,3,-4,0,0,12
1501936745729489,-1,1,-3,-5,-1,3,-7,10
1501936745729489,-5,-1,0,1,-4,-9,2,-11
1501936745738423,-18,-1,1,-1,0,0,-7,-11
1501936745738423,2,-2,-3,0,3,9,15,9
1501936745753438,3,1,0,4,1,-1,-9,31
1501936745753438,-14,-3,-5,-5,-2,1,2,-8
1501936745754419,11,-2,0,-5,-7,-6,4,20
1501936745754419,24,-2,0,2,-1,-2,1,21
1501936745775463,-20,-2,-1,-3,1,1,-9,-4
1501936745775463,0,-1,-1,0,-5,-6,-6,12
1501936745777421,-3,-2,-1,-12,-2,-3,-6,1
1501936745777421,-4,1,0,6,1,2,9,-10
1501936745789487,13,1,-1,-3,-2,0,-8,21
1501936745789487,-9,-4,-1,1,-3,-3,1,0
1501936745798458,-2,-1,-4,-7,1,2,5,-31
1501936745798458,-17,-2,2,-1,2,-2,-21,-14
1501936745813440,4,-2,-5,0,-1,2,9,-2
1501936745813440,1,1,4,9,-2,-3,0,-18
1501936745814424,-5,-1,-1,1,-2,-3,5,12
1501936745814424,-5,-3,-2,-10,-3,-6,-8,-8
