timestamp,emg1,emg2,emg3,emg4,emg5,emg6,emg7,emg8
1501937297662613,-10,-20,-34,-83,-81,-22,-9,-7
1501937297662613,9,16,6,-19,1,3,5,1
1501937297666612,-1,-2,-36,-47,-25,-3,-6,-3
1501937297666612,-5,-12,-29,17,-3,-14,-6,-3
1501937297666612,4,9,7,109,41,16,4,4
1501937297666612,-8,-5,-13,32,-53,-20,-8,-7
1501937297668622,-5,-13,-42,16,-36,-8,-1,-6
1501937297668622,3,-10,35,-44,23,9,3,1
1501937297672606,6,8,26,44,0,0,2,6
1501937297672606,-5,8,66,-27,32,-4,-11,-10
1501937297680624,5,2,15,-57,50,29,13,12
1501937297680624,10,32,77,43,-7,3,6,4
1501937297686630,-22,-24,-63,-24,-49,-31,-20,-21
1501937297686630,8,-12,47,-7,27,17,10,12
1501937297701624,-2,-7,-3,121,44,-8,-5,-4
1501937297701624,-7,-7,3,124,-26,-25,-11,-5
1501937297710626,4,1,7,-75,37,24,11,6
1501937297710626,-3,3,-43,-13,-21,-3,-2,-2
1501937297733632,5,25,59,66,23,7,2,1
1501937297733632,0,-4,-17,-66,2,12,3,0
1501937297734611,-4,1,5,127,13,-28,-9,-3
1501937297734611,-13,-19,-26,-29,-80,-22,-4,-10
1501937297746627,12,21,71,61,46,21,12,8
1501937297746627,-7,-10,-75,0,6,-1,-7,-8
1501937297788614,1,2,16,-54,-47,-7,2,1
1501937297788614,-5,5,23,92,-17,-22,-8,-6
1501937297789624,1,8,25,36,20,1,1,0
1501937297789624,5,-8,-6,54,2,7,5,5
1501937297793638,16,25,77,127,83,40,16,14
1501937297793638,-12,-13,-81,-70,-41,-17,-10,-12
1501937297793638,-4,-12,-15,30,-25,-17,-11,-10
1501937297793638,-5,4,-6,3,37,10,-3,-5
1501937297799624,0,1,8,28,-1,-5,-3,-1
1501937297799624,20,31,91,70,32,29,13,14
1501937297806688,-14,-10,-11,12,-7,-21,-8,-6
1501937297806688,-8,-12,-14,12,6,-5,-10,-9
1501937297821651,-4,-10,-50,-100,-25,-15,-6,-4
1501937297821651,3,6,17,-11,2,6,2,3
1501937297829685,6,8,-16,36,21,6,3,1
1501937297829685,0,5,25,118,20,1,-3,-2
1501937297838627,-2,-3,-29,-4,-26,-8,-4,-3
1501937297838627,7,7,23,89,91,21,11,7
1501937297860656,-1,-3,-28,-92,-70,-10,0,1
1501937297860656,5,4,-16,72,61,7,1,2
1501937297862655,-6,-10,-26,22,-19,-14,-8,-6
1501937297862655,-11,-25,-87,-10,-29,-19,-8,-9
1501937297874687,3,4,26,77,87,30,10,4
1501937297874687,10,18,20,-128,-99,-12,5,7
1501937297883619,-3,6,-8,-78,1,12,3,-2
1501937297883619,0,-5,-36,-119,-15,7,4,3
1501937297898632,2,-3,-1,-28,10,7,-2,0
1501937297898632,0,0,46,42,-12,-13,-2,0
1501937297899631,0,4,26,-20,-32,-3,0,-2
1501937297899631,8,14,13,88,24,6,3,3
1501937297920662,2,6,21,-34,-61,-11,-4,0
1501937297920662,-17,-30,-94,81,39,-19,-12,-11
1501937297922622,6,15,96,-11,33,10,5,4
1501937297922622,-19,-28,-62,-43,-31,-31,-18,-14
1501937297934684,0,2,-5,65,12,5,-1,0
1501937297934684,0,6,30,-50,-29,3,4,3
1501937297943622,-8,-19,-59,-15,39,2,-3,-5
1501937297943622,1,-2,49,-58,-44,0,4,2
1501937297958652,-6,-13,-59,-50,-30,-10,-5,-5
1501937297958652,2,-1,-38,-97,-25,-4,-3,-1
1501937297959623,-8,-15,-15,77,14,-1,-5,-5
1501937297959623,-11,-17,-43,121,60,-10,-5,-7
1501937297980665,5,10,-22,-24,-57,1,7,3
1501937297980665,2,-2,22,-27,40,13,3,1
1501937297982660,9,12,-26,5,29,17,6,7
1501937297982660,-5,-6,44,-76,-21,-10,0,-2
1501937297994675,-2,-2,44,81,48,-6,-5,-3
1501937297994675,5,13,63,69,45,17,8,4
1501937298003658,-16,-32,-95,-39,-81,-17,-12,-11
1501937298003658,4,14,43,-30,-16,1,-1,0
1501937298018647,-1,-11,-72,-36,28,9,4,3
1501937298018647,1,3,27,-113,-65,1,5,4
1501937298019628,14,28,92,102,71,20,10,10
1501937298019628,-4,0,13,71,4,-6,-7,-8
1501937298040698,-2,-2,5,-33,0,-6,-3,-1
1501937298040698,4,6,-15,-52,-27,-12,-7,0
1501937298042629,-13,-18,-29,-44,-48,-17,-7,-11
1501937298042629,9,11,-4,64,21,5,0,5
1501937298054698,-2,-3,9,16,-7,-2,-5,-5
1501937298054698,-12,-21,-67,-5,0,-16,-9,-9
1501937298063629,19,20,31,127,60,33,14,13
1501937298063629,-16,-30,-48,-82,-46,-24,-10,-9
1501937298078652,-2,-4,4,-12,-12,-6,-3,-3
1501937298078652,9,6,26,52,27,12,4,4
1501937298079632,-3,0,8,-12,0,-6,-4,-3
1501937298079632,0,-3,-6,76,40,18,1,-1
1501937298100661,7,18,63,32,39,11,9,6
1501937298100661,-10,-17,-35,-5,-36,-15,-5,-4
1501937298102631,3,11,-5,127,46,3,4,1
1501937298102631,1,6,40,12,7,-2,0,2
1501937298114697,2,-2,32,-14,8,3,0,2
1501937298114697,0,4,15,78,-5,0,4,1
1501937298123633,-9,-13,-33,-89,-79,-26,-12,-8
1501937298123633,9,13,41,52,-6,13,5,4
1501937298138654,-11,-26,-74,55,-12,-12,-8,-6
1501937298138654,6,20,69,-13,62,8,3,1
1501937298139636,-11,-20,-9,38,-12,-13,-5,-7
1501937298139636,3,5,-1,-1,-1,4,4,4
1501937298160704,4,9,10,70,28,11,5,2
1501937298160704,-8,-4,9,-86,-68,-9,-7,-5
1501937298162636,-7,-4,21,125,3,-15,-6,-3
1501937298162636,3,3,-39,-72,-8,10,2,-1
1501937298183658,0,5,11,6,5,1,1,0
1501937298183658,1,2,24,29,2,0,-1,1
1501937298184652,4,6,40,42,21,5,4,0
1501937298184652,-3,-2,-4,-86,-49,-6,-6,-5
1501937298198658,-15,-19,-62,-78,-78,-36,-17,-12
1501937298198658,-4,-10,-57,-14,6,0,0,-2
1501937298199637,1,1,-12,-73,-16,-4,0,1
1501937298199637,6,8,23,125,76,11,2,4
1501937298220697,-1,1,-5,-10,-1,-3,1,0
1501937298220697,-16,-30,-18,78,32,2,-10,-11
1501937298222674,2,-5,-20,26,-18,-23,-7,1
1501937298222674,-7,0,6,29,-8,5,1,-7
1501937298243647,11,23,89,116,76,29,11,6
1501937298243647,-9,-16,-54,-26,-12,-8,-4,-4
1501937298244640,5,9,35,5,41,9,2,2
1501937298244640,-2,-7,-9,-20,-24,-10,-3,-1
1501937298258661,17,20,45,1,55,39,18,13
1501937298258661,-4,-3,32,44,-25,-21,-11,-8
1501937298259641,0,-1,-42,-101,-41,-7,1,1
1501937298259641,2,0,6,92,23,0,-1,2
1501937298280709,-6,-11,-23,-101,-63,1,2,-1
1501937298280709,6,4,-21,60,1,6,4,3
1501937298282642,-5,-5,-54,-116,-47,-13,-4,-3
1501937298282642,7,11,41,60,44,28,11,7
1501937298303657,-5,-2,22,30,-8,-9,-7,-6
1501937298303657,2,3,-13,51,8,4,2,1
1501937298304645,-4,-2,15,-43,-10,-2,-3,-4
1501937298304645,9,9,25,52,48,13,7,7
1501937298317686,-8,-7,-14,74,2,-18,-10,-6
1501937298317686,-5,3,20,-34,-9,-4,2,-4
1501937298324671,-5,-9,-16,15,27,7,-3,-3
1501937298324671,-5,-8,-17,-26,-10,-5,-2,-2
1501937298340711,-2,-1,-1,7,26,-1,-3,-3
1501937298340711,12,25,59,18,17,13,9,8
1501937298342645,-7,-12,21,112,43,2,-4,-3
1501937298342645,-7,-11,-50,-113,-83,-22,-4,-2
1501937298363666,-1,-1,1,30,-11,-2,-1,-1
1501937298363666,2,4,-11,-30,17,3,2,2
1501937298364646,8,13,38,53,13,13,4,4
1501937298364646,-4,-9,-35,25,5,-2,-2,-2
1501937298377717,-9,-13,-4,12,7,-13,-6,-5
1501937298377717,-2,-3,-9,66,-10,-2,2,-1
1501937298384679,-3,1,9,-34,-22,-5,-4,-3
1501937298384679,-7,-6,-11,-22,-18,-10,-1,-3
1501937298400709,5,4,6,37,11,8,2,1
1501937298400709,1,-1,-7,-10,-11,1,1,1
1501937298402648,-7,-7,10,-29,-15,-8,-2,-5
1501937298402648,-7,-11,-33,-128,-50,-15,-9,-7
1501937298423663,1,-2,-18,-3,15,1,-1,-2
1501937298423663,-4,0,20,42,-16,-9,-4,-1
1501937298424648,4,9,41,47,14,5,2,2
1501937298424648,2,-1,-23,-56,25,5,-1,0
1501937298437709,1,2,-5,-51,-21,-1,2,0
1501937298437709,-1,-3,-3,47,28,1,-2,-1
1501937298444697,1,-1,-18,-74,-17,-1,1,1
1501937298444697,-6,-8,-33,-9,-14,-8,-6,-5
1501937298460715,2,3,-20,-72,-65,-2,1,3
1501937298460715,-1,2,11,24,15,3,-1,-1
1501937298462686,-1,-2,-20,72,28,7,1,-1
1501937298462686,1,1,38,47,5,-2,0,-2
1501937298482662,-3,-6,-31,-41,-27,-9,-4,-3
1501937298482662,-3,-5,-32,-72,-12,-3,-3,1
1501937298484661,-5,-7,-35,17,13,-3,-3,-5
1501937298484661,4,5,19,40,37,6,-2,0
1501937298497661,-10,-13,-8,-16,-32,-16,-4,-4
1501937298497661,3,5,11,47,2,3,0,-1
1501937298504662,1,4,25,32,-5,1,0,1
1501937298504662,-3,-10,-56,60,6,-5,-4,-3
1501937298520715,0,-1,-7,99,40,4,1,0
1501937298520715,0,0,-22,-71,-40,1,2,2
1501937298522659,-1,3,40,17,-5,0,0,-1
1501937298522659,-1,3,-10,18,-44,-10,1,1
1501937298543674,7,15,23,96,35,5,3,5
1501937298543674,-13,-27,-61,54,6,-17,-12,-11
1501937298544668,4,1,-18,-40,-25,-1,3,2
1501937298544668,-2,0,16,-58,-23,-6,-2,-2
1501937298557696,-2,2,18,-128,2,3,1,-3
1501937298557696,3,3,9,-87,-8,2,-2,0
1501937298564724,-6,-10,-19,74,6,-13,-10,-6
1501937298564724,4,10,52,39,20,7,4,2
1501937298580725,-2,-11,-41,17,2,-3,-3,-3
1501937298580725,2,6,23,38,11,2,-1,-1
1501937298582682,-3,-3,-27,-54,-31,-5,0,-1
1501937298582682,8,18,60,34,64,21,7,4
1501937298603678,-11,-19,-39,-8,-26,-19,-7,-6
1501937298603678,-2,0,5,88,11,5,0,0
1501937298604661,-5,-6,-4,32,7,-10,-4,-4
1501937298604661,0,3,27,-83,-41,-3,0,0
1501937298617700,-1,-2,4,-63,0,5,-2,-2
1501937298617700,5,5,31,40,24,3,1,4
1501937298624674,-2,-3,-22,17,48,8,1,1
1501937298624674,-7,-10,-21,76,-7,-10,-6,-5
1501937298640726,0,4,17,-45,-14,-1,-1,-2
1501937298640726,-4,-8,-27,-128,-28,-7,-5,-5
1501937298642697,4,12,62,57,9,4,0,2
1501937298642697,-3,-5,-15,6,-4,4,-1,-1
1501937298663690,1,1,3,-25,-6,-5,0,1
1501937298663690,6,13,29,14,18,11,5,4
1501937298664695,10,13,16,51,69,26,7,6
1501937298664695,-16,-21,-38,-62,-71,-34,-10,-9
1501937298676723,1,-1,0,16,-3,1,0,1
1501937298676723,-2,-6,-1,40,23,-4,-4,-5
1501937298685671,3,4,1,-54,-23,2,1,1
1501937298685671,2,2,-7,61,46,5,1,1
1501937298700723,1,10,48,127,1,7,5,0
1501937298700723,-7,-7,-20,-102,-25,-9,-4,-3
1501937298702697,-11,-18,-32,-128,-60,-23,-8,-6
1501937298702697,5,3,-14,-30,14,12,2,2
1501937298723690,-2,0,20,13,8,-2,-5,-2
1501937298723690,3,3,-13,-21,5,5,2,1
1501937298724692,-4,-3,1,55,-5,0,1,-2
1501937298724692,-2,-2,6,37,27,-1,-1,1
1501937298736712,-1,2,8,74,12,8,1,-1
1501937298736712,-6,-7,4,-29,-31,-14,-7,-4
1501937298745674,-3,-8,-22,-38,-2,-8,-5,-3
1501937298745674,0,-3,-6,-30,-6,2,-1,-2
1501937298768703,4,4,8,-25,13,7,1,2
1501937298768703,-3,0,6,5,0,1,0,0
1501937298769701,-1,-3,-7,17,-1,-4,0,-2
1501937298769701,5,6,15,-17,-20,7,3,2
1501937298783698,-2,-5,1,-2,31,-5,-6,-2
1501937298783698,-8,-9,-36,-41,-24,-12,-2,-6
1501937298784669,-1,-5,-5,1,-14,-3,-4,-3
1501937298784669,-1,-1,-7,5,-11,-2,-2,-1
1501937298805689,1,-1,4,-66,3,6,2,1
1501937298805689,-4,-10,-29,80,-18,-14,-7,-4
1501937298807678,3,8,31,-11,-13,6,2,1
1501937298807678,-6,-12,-28,-3,-6,-7,-3,-4
1501937298828698,-3,-5,-20,-44,-29,-11,-4,-5
1501937298828698,7,7,28,58,60,22,8,4
1501937298829704,-13,-12,-39,-57,-26,-19,-9,-7
1501937298829704,9,-1,-8,-26,-13,-1,-1,4
1501937298842717,-7,1,2,40,-6,-8,-2,-5
1501937298842717,1,0,-7,-11,-10,4,0,2
1501937298849696,0,-1,0,25,7,6,2,-1
1501937298849696,1,3,13,7,7,2,2,1
1501937298865713,2,-1,3,53,14,-1,0,2
1501937298865713,-1,-3,4,72,-26,3,0,1
1501937298867683,7,12,28,88,39,12,4,6
1501937298867683,-19,-21,-72,-64,-71,-26,-6,-9
1501937298887737,3,3,19,60,-10,-2,-2,5
1501937298887737,1,1,16,59,33,5,1,-5
1501937298889679,-2,-2,-12,-102,-10,-4,-3,-1
1501937298889679,-2,-3,18,29,23,-4,-2,-3
1501937298902720,5,7,15,-37,14,9,5,4
1501937298902720,2,-1,-17,-40,12,2,2,0
1501937298910684,-6,-13,-1,62,-13,-16,-11,-6
1501937298910684,6,9,31,-49,13,8,4,1
1501937298925718,-3,-3,0,20,-12,-1,-2,-4
1501937298925718,9,9,-6,-60,26,11,2,6
1501937298927678,-2,-2,12,-90,-24,-3,4,0
1501937298927678,8,6,16,61,22,2,-1,2
1501937298947740,-8,-6,-28,-84,-41,-6,-6,-10
1501937298947740,-1,-1,-3,47,-19,-4,-1,-1
1501937298949678,-2,-1,-15,79,5,-1,4,2
1501937298949678,-1,-3,-21,-11,-7,0,-4,-3
1501937298962720,3,-4,-48,-103,2,4,3,4
1501937298962720,-6,0,8,-14,-15,-9,-4,-3
1501937298969708,0,3,16,-29,-35,-7,-3,-3
1501937298969708,-3,3,19,86,43,7,1,0
1501937298985727,-1,0,9,48,14,9,3,2
1501937298985727,-6,0,11,-54,-36,-9,-3,-2
1501937298987681,3,-3,6,-11,14,-1,0,2
1501937298987681,4,10,4,-7,18,16,7,4
1501937299007703,-5,-8,-11,78,24,-4,-5,-2
1501937299007703,-1,2,34,-9,4,-1,-2,-1
1501937299009695,0,2,-25,-66,-22,1,2,-2
1501937299009695,-3,0,10,7,-23,-5,-4,-2
1501937299022682,1,-6,-10,12,3,-6,-2,-1
1501937299022682,3,0,-14,21,22,7,1,2
1501937299029711,-3,-2,-2,-12,-28,-3,-3,2
1501937299029711,-1,-3,-24,-45,17,3,2,-2
1501937299045711,-2,-1,12,2,-16,0,-4,-6
1501937299045711,-1,1,14,0,14,2,0,-2
1501937299047684,-8,-19,-85,-93,-45,-23,-11,-7
1501937299047684,3,2,13,51,20,5,2,3
1501937299067693,1,1,-8,47,0,-2,-1,2
1501937299067693,-3,-4,-10,32,6,1,1,-1
1501937299069685,2,0,-12,41,27,4,-1,-1
1501937299069685,-2,5,41,86,0,1,0,0
1501937299082685,-2,-5,-49,-107,-22,-6,-4,-2
1501937299082685,-2,0,27,-25,-14,-11,-1,-3
1501937299089723,3,1,15,66,30,16,6,4
1501937299089723,0,-1,15,32,29,0,-1,2
1501937299105704,3,6,28,-49,-8,1,2,-4
1501937299105704,-1,-4,-35,-59,-19,-4,-3,-2
1501937299107686,0,-1,-11,-73,12,1,0,-2
1501937299107686,-9,-13,-21,-94,-3,-10,-6,-9
1501937299127693,3,5,14,104,38,6,4,4
1501937299127693,2,3,1,-105,-16,-3,1,1
1501937299129698,3,5,11,40,18,6,3,0
1501937299129698,-2,-7,-44,67,3,0,-3,-3
1501937299142736,-4,-5,7,-78,-41,-15,-7,-3
1501937299142736,3,8,28,104,26,6,4,3
1501937299149690,-5,-5,-11,-44,-2,-1,-3,-3
1501937299149690,9,9,23,-59,-15,-6,0,4
1501937299165718,-5,2,34,57,14,4,0,4
1501937299165718,0,-1,-15,73,23,3,-2,-3
1501937299167696,0,2,10,51,-10,5,-1,-1
1501937299167696,-1,-1,3,36,-27,-3,0,-3
1501937299187697,6,10,10,-25,14,8,4,3
1501937299187697,-4,-10,-5,61,1,-7,-5,-2
1501937299189709,5,9,33,8,10,3,3,3
1501937299189709,-5,-4,0,-63,5,0,-1,-4
1501937299201734,-1,-9,-36,30,-8,-13,-6,1
1501937299201734,-9,-13,-39,-116,-51,-7,-4,-3
1501937299210706,1,4,6,22,17,6,1,0
1501937299210706,4,7,-5,-68,-50,-8,2,5
1501937299225741,-3,-2,6,-114,-13,-8,0,-3
1501937299225741,3,1,-7,-73,-12,1,0,-2
1501937299227694,-5,-1,47,111,15,-5,-3,-4
1501937299227694,-5,-7,-20,98,10,-2,-7,-3
1501937299247733,-2,-5,-3,-20,-42,-3,-2,-2
1501937299247733,0,2,-6,71,10,2,-2,0
1501937299249696,3,3,-7,33,17,4,5,4
1501937299249696,-2,0,13,14,7,5,-1,-7
1501937299261740,-5,-6,-29,-55,3,1,-1,-5
1501937299261740,-6,-8,-25,22,3,-9,-5,-4
1501937299270710,1,-1,-18,-68,-14,0,0,-1
1501937299270710,-2,-3,-2,7,11,-2,-3,-2
1501937299285760,0,-7,4,9,-8,-3,0,2
1501937299285760,3,6,-5,-62,-26,2,2,3
1501937299287705,0,2,23,59,46,2,0,-2
1501937299287705,-1,1,-20,-103,-57,-4,-2,1
1501937299307737,-1,2,29,29,-3,-2,-3,-2
1501937299307737,-2,-5,-4,76,23,1,0,-2
1501937299309708,1,5,8,98,16,3,0,1
1501937299309708,-5,-2,1,37,-40,-4,-3,-4
1501937299321766,-1,-3,-9,44,8,0,-1,-1
1501937299321766,1,1,4,-8,-21,-3,1,3
1501937299330714,5,6,11,53,32,12,2,0
1501937299330714,-8,-4,5,81,-11,-9,-3,-3
1501937299345770,-1,1,-3,8,2,-5,-1,-2
1501937299345770,-2,-6,-11,-93,-44,-3,1,-2
1501937299347711,2,0,-33,15,-9,-2,-2,2
1501937299347711,1,2,16,-42,5,4,1,3
1501937299367712,-1,0,-4,76,11,-3,-3,-3
1501937299367712,1,6,30,81,10,6,3,4
1501937299369703,-7,-10,-25,-124,-48,-13,-6,-6
1501937299369703,4,1,-5,84,49,8,4,1
1501937299381776,-2,-2,-22,-101,-51,-9,-1,0
1501937299381776,-2,-2,29,105,20,-4,-4,-7
1501937299390728,-4,-6,-18,-45,-14,2,-3,-1
1501937299390728,2,5,35,8,19,1,1,3
1501937299405722,3,2,11,125,47,15,4,2
1501937299405722,-5,-8,-46,-104,-49,-10,-3,-2
1501937299407705,0,5,29,17,-1,-3,2,0
1501937299407705,2,-1,5,18,5,-4,-1,0
1501937299427745,-5,-2,19,-34,17,-4,-3,-3
1501937299427745,-2,-3,-17,-2,21,-2,-6,-4
1501937299429737,-2,-4,-7,-5,-18,-4,-1,-3
1501937299429737,7,11,22,18,22,9,3,5
1501937299441768,-5,-7,-38,-92,-79,-5,-1,-3
1501937299441768,-2,0,11,81,20,-7,-1,-2
1501937299450720,0,1,30,23,16,6,0,0
1501937299450720,-4,-8,-29,-65,-20,-2,-3,-3
1501937299465750,5,6,16,43,20,2,1,2
1501937299465750,-2,-2,-15,-82,-21,0,0,-2
1501937299467707,-3,-5,-31,-70,-18,-8,-2,0
1501937299467707,0,1,17,17,0,2,-1,-2
1501937299487747,-2,-4,12,62,33,2,-2,-2
1501937299487747,0,0,1,-61,15,-1,-2,-2
1501937299489720,-1,-2,5,105,2,-4,1,2
1501937299489720,-2,0,-6,2,-6,-2,-1,0
1501937299501752,-4,-5,-23,-105,-23,-1,-3,-2
1501937299501752,10,11,41,125,45,16,2,6
1501937299510723,-7,-10,-34,-5,-13,-8,-3,-5
1501937299510723,-6,-9,-5,-121,-57,-12,-5,-4
1501937299525752,5,12,36,29,43,10,3,4
1501937299525752,-5,-8,-27,8,-18,-8,-3,-3
1501937299526725,1,3,2,-66,-5,5,2,1
1501937299526725,-5,-5,-1,-66,-8,-2,-3,-3
1501937299547773,2,4,-13,-24,6,4,4,3
1501937299547773,-1,2,38,-35,-14,1,-3,-1
1501937299549722,0,-1,-21,-83,-19,-8,-3,2
1501937299549722,-5,-10,-12,71,14,-2,-2,-4
1501937299561780,-1,-2,-9,-46,6,0,0,-1
1501937299561780,-3,-1,3,55,7,-2,0,0
1501937299570733,0,-1,3,16,3,1,-3,-8
1501937299570733,3,3,-4,-33,10,2,1,0
1501937299585757,-1,-3,-4,55,5,-4,-4,-3
1501937299585757,1,-1,-23,-3,10,3,1,2
1501937299587715,1,1,25,63,25,-1,-1,1
1501937299587715,-6,-10,-46,-54,-33,-14,-2,-3
1501937299607780,4,-2,5,107,4,1,-1,-3
1501937299607780,-8,-5,-14,-50,-38,-5,-1,-1
1501937299609715,-1,1,23,64,18,1,-3,-3
1501937299609715,1,2,6,12,4,-2,-1,0
1501937299630757,-2,-2,1,6,-1,0,-1,0
1501937299630757,-4,-2,19,55,7,-8,-2,-8
1501937299632716,0,0,-22,21,1,3,1,1
1501937299632716,2,8,39,54,21,4,2,5
1501937299645756,-3,-2,7,3,17,0,-1,-3
1501937299645756,3,-4,-2,-22,6,0,2,1
1501937299646717,-2,-1,7,22,0,-5,0,-1
1501937299646717,4,2,-8,-48,-8,9,1,-5
1501937299667779,-2,-1,-15,16,-1,-6,3,0
1501937299667779,2,3,-16,-24,2,3,0,2
1501937299669720,-2,-3,25,89,4,-2,-2,-1
1501937299669720,9,7,-26,-57,4,14,5,7
1501937299690783,-8,-5,6,70,-3,-10,-2,-3
1501937299690783,-1,-3,5,-71,-27,-5,-4,-4
1501937299692720,1,1,-15,-51,-27,-6,-3,2
1501937299692720,-3,-5,-8,98,30,4,1,-3
1501937299705730,2,3,-6,-116,-5,7,-2,1
1501937299705730,-2,-3,4,47,-8,-16,-2,-2
1501937299706755,2,1,-24,-57,3,7,0,2
1501937299706755,-7,-5,22,-84,-61,-11,-6,-5
1501937299727771,6,-5,-28,-85,-33,-4,-2,-1
1501937299727771,-7,-2,-1,16,3,-1,-1,-4
1501937299729733,-5,-8,-30,-29,-29,-7,-2,-4
1501937299729733,-7,-8,-17,40,24,-4,-2,-3
1501937299750765,-1,-1,14,1,32,8,-1,0
1501937299750765,1,-1,-6,-63,-24,-7,-3,3
1501937299752722,-3,-5,-16,-56,-2,-1,-2,-3
1501937299752722,-1,2,29,-48,-24,-8,-2,-2
1501937299764765,-4,-8,-23,74,9,-1,-4,-2
1501937299764765,4,4,5,-49,21,5,1,0
1501937299771787,2,6,31,28,22,10,3,3
1501937299771787,-3,-6,-5,104,17,-5,-5,-2
1501937299787792,-2,-2,-14,24,43,5,-1,-1
1501937299787792,-1,-4,-18,18,-3,1,1,2
1501937299789760,2,5,32,12,-3,-1,-1,-1
1501937299789760,-2,-1,-8,26,20,0,-1,-3
1501937299810795,-6,-7,-4,43,-30,-16,-5,-3
1501937299810795,2,2,-5,-3,10,6,0,-8
1501937299812729,-4,-2,8,-13,-37,-7,0,0
1501937299812729,2,4,17,60,26,4,-1,1
1501937299824769,-2,4,17,-3,-18,-5,0,0
1501937299824769,0,-1,0,41,16,2,-1,1
1501937299831774,8,7,15,42,11,2,-1,0
1501937299831774,-7,-1,3,-19,-21,-3,0,-1
1501937299847767,-5,-2,2,0,-10,-4,-1,-2
1501937299847767,1,3,19,34,3,-1,1,2
1501937299849763,-2,-4,-6,55,25,7,-2,-1
1501937299849763,2,3,-1,-57,-37,-8,-3,1
1501937299870788,2,1,25,36,-4,1,1,1
1501937299870788,-2,-4,-1,-42,6,3,-1,-5
1501937299871741,-3,-5,-9,77,20,-3,-2,-2
1501937299871741,1,0,4,63,5,-4,0,0
1501937299884730,-2,-3,-19,40,-20,-5,-1,-2
1501937299884730,6,4,18,-10,-26,3,1,5
1501937299891799,-8,-10,-26,-65,-14,-8,-5,-7
1501937299891799,1,-2,-24,-5,4,7,3,1
1501937299907794,1,4,8,-6,2,-4,-2,-1
1501937299907794,-2,0,14,127,24,0,-2,0
1501937299909747,-5,-7,-21,-49,-25,-3,1,-2
1501937299909747,1,1,5,-1,3,-1,0,0
1501937299930776,-2,1,1,-25,12,9,1,0
1501937299930776,0,-2,-13,-4,12,-2,-1,3
1501937299932732,0,5,10,-79,-9,-2,-1,-1
1501937299932732,-3,-7,-19,62,20,-4,-6,-3
1501937299944773,2,3,-3,0,-9,-4,-1,1
1501937299944773,-2,-2,-8,-91,-14,-1,-2,-2
1501937299951802,-3,-6,-2,68,6,-5,-1,0
1501937299951802,0,-1,0,3,15,2,0,-6
1501937299967792,1,2,-8,-12,-2,0,0,-1
1501937299967792,0,3,32,67,-8,4,-1,0
1501937299969769,-5,-9,-26,-10,-28,-13,-6,-6
1501937299969769,0,0,10,-80,7,1,0,0
1501937299990808,1,3,9,34,19,9,1,5
1501937299990808,-5,-6,-31,22,26,-6,-4,-6
1501937299991740,0,3,12,-12,-6,11,2,3
1501937299991740,0,0,-3,-33,-6,-3,0,2
1501937300004772,-1,3,19,-38,-7,-4,-5,-2
1501937300004772,-2,-5,-23,-37,18,5,3,1
1501937300011765,5,3,-1,-16,2,1,2,2
1501937300011765,-1,0,0,20,19,0,-3,-1
1501937300027770,3,3,23,-58,6,6,4,0
1501937300027770,1,4,3,-41,-8,-6,-2,0
1501937300029738,-2,-1,-5,49,0,-2,1,0
1501937300029738,1,1,14,-43,2,1,0,0
1501937300050739,-4,-6,-15,54,3,-6,-3,-5
1501937300050739,-2,-4,-6,-62,-23,-6,-4,-1
1501937300051742,8,5,12,35,21,6,3,3
1501937300051742,-9,-7,-31,-39,-14,-6,-5,-2
1501937300064767,-2,-2,-6,-15,-20,-3,-1,-2
1501937300064767,1,2,18,9,6,10,1,0
1501937300071756,3,2,-2,25,-3,-4,-1,2
1501937300071756,-1,-5,-7,71,2,-3,-2,-2
1501937300087774,-8,-9,-7,-8,-3,-8,-4,-7
1501937300087774,0,4,15,-10,-19,-5,-1,1
1501937300089741,0,2,-23,-78,21,10,1,2
1501937300089741,-2,-5,-12,79,-4,-8,-4,-6
1501937300110784,0,-1,5,-56,-47,-2,1,1
1501937300110784,1,-4,-17,29,17,2,0,0
1501937300111754,-4,1,6,-1,3,-1,-3,-2
1501937300111754,5,8,8,-5,7,5,4,5
1501937300124754,-3,-9,-43,14,12,-1,-6,-4
1501937300124754,-4,-1,8,40,1,-7,-1,-4
1501937300132782,-1,-1,11,77,9,2,-1,-1
1501937300132782,-2,-3,-7,-48,-23,-1,0,1
1501937300147816,2,4,16,39,17,5,2,1
1501937300147816,0,-1,-9,-39,-16,-2,-1,0
1501937300149745,-3,2,29,31,10,-3,0,-2
1501937300149745,1,0,15,-33,3,-4,-2,-1
1501937300170792,-2,-4,-4,64,2,-4,-1,-1
1501937300170792,-6,-8,-5,75,-7,-10,-6,-4
1501937300171756,-3,-3,-1,-57,-5,-4,-1,-3
1501937300171756,3,3,0,-15,-8,5,4,0
1501937300184776,-1,-2,-14,-65,-10,-6,-4,1
1501937300184776,0,-4,-26,-49,-5,4,1,-1
1501937300192780,-4,-5,-27,-24,3,0,0,-1
1501937300192780,-3,-4,6,12,-4,-12,-6,-1
1501937300207811,2,-6,-34,-38,-14,-8,-1,-2
1501937300207811,-5,-2,-18,13,11,8,2,1
1501937300209748,2,2,9,6,-7,-1,-1,1
1501937300209748,-2,-2,-10,-60,-29,-1,1,1
1501937300230792,-4,-4,-3,71,48,3,-2,-3
1501937300230792,1,0,-7,61,-16,-7,0,-1
1501937300231762,0,-4,0,4,-6,-2,0,0
1501937300231762,0,5,22,39,14,9,1,1
1501937300244765,-4,-7,-7,90,9,-10,-7,-6
1501937300244765,0,2,6,-100,-13,-1,-1,0
1501937300253750,1,1,14,3,-12,2,0,2
1501937300253750,0,-3,-14,16,8,-2,-3,-7
1501937300267819,3,6,22,-20,0,9,3,2
1501937300267819,3,-3,-3,47,22,2,0,0
1501937300269762,-5,-2,-6,-11,-4,-8,-4,-4
1501937300269762,-1,-4,-1,-2,-3,-2,1,4
1501937300290757,3,8,13,36,3,3,3,6
1501937300290757,-1,-2,13,49,8,3,2,-3
1501937300291752,-2,-3,-8,-23,-15,-7,-5,-4
1501937300291752,2,9,28,72,15,7,2,1
1501937300304770,-2,-4,0,-31,-24,-6,-1,1
1501937300304770,-4,-11,-12,85,21,-1,-4,-3
1501937300312809,-1,0,-20,-53,-28,-4,0,0
1501937300312809,-3,-3,8,-12,1,0,-1,-2
1501937300327817,1,4,8,-67,-25,-6,-1,-1
1501937300327817,3,3,14,-33,-2,0,-1,0
1501937300329753,-5,-7,-11,-24,7,3,0,-1
1501937300329753,-1,2,12,43,-5,-3,-3,-1
1501937300350819,-4,-5,-7,24,-38,-5,-2,0
1501937300350819,-1,5,32,50,-9,0,2,0
1501937300351768,-2,-5,-36,-17,1,-4,-3,-1
1501937300351768,1,3,9,59,7,2,1,0
1501937300364767,1,2,-1,-99,5,1,1,1
1501937300364767,1,3,31,16,4,-2,-1,2
1501937300372768,-1,-3,12,-4,6,-1,-3,0
1501937300372768,0,-4,-19,6,3,6,0,-1
1501937300387813,-1,2,24,24,18,4,-1,-3
1501937300387813,2,0,-19,-32,-4,1,1,0
1501937300389770,-1,-2,8,-31,13,-1,1,-3
1501937300389770,-3,-7,-24,-97,-27,-5,-4,-1
1501937300410801,3,4,22,55,13,4,1,-1
1501937300410801,-1,-2,-1,-24,-6,-2,-1,0
1501937300411760,2,4,16,13,20,3,1,0
1501937300411760,-5,-9,-20,-28,-10,-9,-4,-4
1501937300424760,0,1,4,-56,-9,-2,-1,-2
1501937300424760,0,0,-4,11,10,8,3,6
1501937300432803,0,0,0,49,-25,-3,-1,1
1501937300432803,2,5,38,-45,-15,-5,0,-1
1501937300447802,-4,-9,-76,70,32,7,1,-2
1501937300447802,-1,-2,-8,-108,-52,-5,-4,0
1501937300449771,1,2,24,4,25,3,2,0
1501937300449771,1,-2,-12,12,11,2,0,1
1501937300470772,-4,-2,24,71,-7,-5,-2,-3
1501937300470772,-2,0,5,61,12,-4,-2,-2
1501937300471764,2,1,-7,70,-16,2,0,-2
1501937300471764,0,3,12,-7,7,-2,0,0
1501937300484776,0,-2,-12,-13,-6,3,2,-1
1501937300484776,-3,-2,2,-50,-16,-3,-2,-3
1501937300493763,0,-3,-14,-51,-7,-8,-3,-2
1501937300493763,-3,-6,-31,-16,8,-3,-3,-3
1501937300507835,1,2,10,-5,-14,-2,0,1
1501937300507835,1,-1,-8,23,13,-1,-2,3
1501937300509776,-2,-2,-16,-41,-9,1,0,-7
1501937300509776,1,2,-5,-37,-27,-1,0,2
1501937300530832,-3,-4,7,15,9,-3,-4,-3
1501937300530832,2,1,-6,-25,6,0,1,1
1501937300531766,1,0,11,93,37,1,-2,1
1501937300531766,-1,-1,0,6,-20,1,1,1
1501937300552813,-3,0,16,1,5,-3,-1,-2
1501937300552813,0,0,19,42,8,1,-4,-3
1501937300552813,0,1,-12,-69,-35,-2,0,4
1501937300552813,-3,-3,11,64,22,-1,0,-5
1501937300567835,2,3,7,-20,-4,0,-1,0
1501937300567835,-3,-7,-24,6,-11,-7,-2,-3
1501937300567835,-3,-1,4,-74,0,4,-1,1
1501937300567835,0,3,13,74,27,6,0,1
1501937300589807,-1,-7,-16,-128,-47,-16,-3,-1
1501937300589807,1,2,8,31,19,5,-1,-3
1501937300590780,0,0,13,39,3,-6,-1,1
1501937300590780,-3,-8,-40,-44,-17,-5,-3,-3
1501937300612835,-1,1,13,5,15,5,1,-4
1501937300612835,0,2,-8,-40,1,-1,1,-1
1501937300612835,-3,-2,-2,18,-9,-2,-2,-1
1501937300612835,2,3,5,55,31,5,1,3
1501937300627795,0,1,-2,0,-4,0,0,1
1501937300627795,-1,-1,2,-20,8,1,2,0
1501937300627795,-5,-7,-49,-41,-10,-6,-4,-4
1501937300627795,-2,-1,5,-51,-3,2,-1,0
1501937300649840,-2,-3,-5,-46,-11,-1,-2,0
1501937300649840,-2,-1,0,17,-15,-4,-2,-2
1501937300650806,-2,2,17,-23,24,4,-3,-1
1501937300650806,-5,-4,7,98,-13,-8,-5,-2
1501937300672791,-1,-3,-26,34,6,1,1,0
1501937300672791,1,5,13,-31,0,4,0,-1
1501937300672791,-1,-1,7,44,4,-3,-2,-3
1501937300672791,-1,-2,-6,-75,-14,-1,-3,-4
1501937300688780,0,3,0,-18,5,3,0,1
1501937300688780,1,-1,-6,92,10,-4,-2,5
1501937300689776,-2,-2,16,25,-3,-2,1,-4
1501937300689776,0,0,-19,-32,-5,3,1,1
1501937300709842,0,2,8,106,32,5,1,0
1501937300709842,-4,-5,-30,-55,-52,-11,-2,-2
1501937300710813,1,1,-6,6,-18,-2,-1,1
1501937300710813,0,4,12,-45,-3,-1,-2,0
1501937300732793,-2,-2,-8,45,23,-4,-4,-2
1501937300732793,2,0,2,-18,12,7,1,2
1501937300732793,-3,2,11,19,-1,2,0,-6
1501937300732793,-4,-11,-20,27,5,-4,-3,-4
1501937300747831,2,0,15,93,48,6,0,0
1501937300747831,-1,1,10,12,-21,-5,1,-3
1501937300747831,-2,-9,-40,-31,-10,-4,-2,1
1501937300747831,2,3,9,-15,5,4,0,1
1501937300769781,-1,-2,-7,-40,-10,-3,-1,2
1501937300769781,-2,-4,-18,-30,6,1,-2,-6
1501937300770779,1,2,23,62,-4,1,2,3
1501937300770779,-3,0,-4,-42,-3,-2,-1,-3
1501937300792843,-2,-8,-17,-6,-19,-6,-4,-2
1501937300792843,-1,0,5,43,5,0,0,-2
1501937300792843,-4,-5,-7,4,12,-4,-3,-2
1501937300792843,2,3,8,-32,-14,-3,1,1
1501937300807830,1,1,1,-14,3,2,0,-1
1501937300807830,0,1,19,81,13,-3,-1,0
1501937300807830,1,2,12,63,-4,3,0,1
1501937300807830,2,1,6,-1,4,-2,1,1
1501937300829821,0,0,19,66,-6,5,-1,-1
1501937300829821,-1,-2,-30,-51,-9,0,0,-6
1501937300830794,-2,-2,-1,-94,-22,0,1,0
1501937300830794,0,-3,-22,-39,11,-2,0,2
1501937300852829,-5,-1,8,-6,-42,-12,-6,-10
1501937300852829,-4,-7,-23,-8,9,-3,-5,-2
1501937300852829,1,0,6,-32,-7,0,-1,0
1501937300852829,-1,2,9,-29,12,5,-1,-2
1501937300867799,-2,-1,-14,-105,-27,-5,0,0
1501937300867799,2,3,12,-10,5,1,-1,1
1501937300867799,0,0,12,-18,10,-3,-2,-1
1501937300867799,-2,-2,-2,67,4,-2,-3,-3
1501937300889823,-2,-1,2,-6,7,1,-1,2
1501937300889823,1,6,23,-1,6,6,1,1
1501937300890797,0,2,6,-79,-17,-2,0,-2
1501937300890797,1,1,-7,8,-2,-1,0,1
1501937300912853,0,1,13,22,5,2,0,0
1501937300912853,-4,-3,14,-12,25,-3,-4,-4
1501937300912853,-1,-2,-9,61,14,0,-2,-2
1501937300912853,0,0,-9,-70,-22,0,1,0
1501937300927787,1,3,26,-27,-8,3,1,-1
1501937300927787,4,1,-6,37,-4,1,1,1
1501937300927787,-2,0,20,77,23,-3,-2,-1
1501937300927787,0,0,-9,34,-19,5,2,-2
1501937300949835,1,0,-10,-22,4,5,3,1
1501937300949835,-8,-8,3,38,3,-10,-3,-4
1501937300950802,4,5,3,-26,-5,-1,2,1
1501937300950802,-1,-3,-2,63,14,1,-2,0
1501937300972827,0,-4,-19,-32,2,-2,-1,0
1501937300972827,-1,-2,7,36,10,-1,0,-1
1501937300972827,1,1,-6,-19,7,5,3,2
1501937300972827,-5,-5,22,56,1,-8,-4,-3
1501937300987859,-2,1,0,36,1,-2,0,-2
1501937300987859,1,1,1,-11,4,5,1,1
1501937300987859,-2,-7,-39,25,3,-1,-6,-2
1501937300987859,-2,1,6,-63,-1,0,-2,-1
1501937301009830,-3,-3,-13,4,0,-6,-3,-1
1501937301009830,-3,-3,1,59,28,1,0,-3
1501937301010804,-1,3,25,85,1,-3,-1,-2
1501937301010804,-5,-10,-24,83,-4,-7,-6,-7
1501937301032855,0,0,-8,-35,-4,0,1,0
1501937301032855,-3,-3,-22,-75,-34,-6,-3,-2
1501937301032855,0,1,12,-31,9,5,1,-1
1501937301032855,-1,1,20,54,12,-3,-2,0
1501937301046834,0,2,19,54,26,1,-1,1
1501937301046834,-1,-3,-32,-61,-45,-2,-1,1
1501937301054835,-3,-7,-33,-69,-5,-4,-1,2
1501937301054835,1,3,-4,-24,-33,-2,-1,-3
1501937301069843,3,8,30,15,16,3,4,1
1501937301069843,-3,-6,7,-76,-15,3,-1,-2
1501937301070810,-3,2,18,24,-8,-6,-3,-1
1501937301070810,2,2,-9,68,25,3,-1,1
1501937301092831,-5,-3,1,-34,-19,-8,-2,-4
1501937301092831,-2,-3,-14,19,-1,6,2,1
1501937301092831,-1,-1,3,36,-6,-4,-1,-3
1501937301092831,2,3,17,24,24,3,4,1
1501937301106867,-4,-11,-42,-108,-58,-10,-7,-4
1501937301106867,0,1,31,28,4,1,-1,0
1501937301114844,-1,-5,-19,-54,7,2,-1,-3
1501937301114844,-2,-2,-13,-40,-3,-3,0,5
1501937301129819,-1,-1,-1,26,12,4,-2,-6
1501937301129819,2,2,4,-27,-2,-3,1,1
1501937301130806,-2,-1,-11,38,-11,-7,-3,-3
1501937301130806,0,3,15,-78,-17,-2,1,1
1501937301152812,-1,-2,-9,-75,-11,2,0,3
1501937301152812,-1,1,-8,7,-2,-3,-1,-2
1501937301152812,0,4,14,11,14,2,1,1
1501937301152812,-1,-2,-14,-41,-8,-2,-1,-1
1501937301166800,-2,-4,-6,107,13,-2,-2,0
1501937301166800,1,9,39,-50,4,0,0,-1
1501937301174863,-3,-8,-10,33,-14,-5,-1,-3
1501937301174863,0,1,12,80,49,8,-1,-1
1501937301189837,1,-1,-8,-28,-29,-1,0,2
1501937301189837,-2,-4,-3,73,16,-1,0,-1
1501937301190813,-2,-1,-8,-21,-29,-4,0,-1
1501937301190813,0,2,19,51,2,2,0,-1
1501937301212829,-1,0,5,14,7,0,1,-3
1501937301212829,-4,-9,-62,59,-4,-3,-3,-3
1501937301212829,-1,1,16,-116,-2,0,0,-2
1501937301212829,-1,-6,-34,-21,-22,-3,-1,0
1501937301226873,-1,1,4,18,8,1,0,-6
1501937301226873,-2,-3,1,-31,7,0,-1,-3
1501937301234847,0,1,-8,-6,12,2,-1,0
1501937301234847,-2,-4,-10,15,-4,-4,-3,2
1501937301249847,-1,0,14,-13,-16,2,0,-2
1501937301249847,-2,-2,-10,11,-8,-10,-4,-1
1501937301250833,0,-4,-16,44,6,2,1,-1
1501937301250833,-1,0,12,-80,4,1,1,-1
1501937301272830,-2,-4,-19,-17,25,4,-2,2
1501937301272830,1,2,-2,-69,-27,-5,-2,1
1501937301272830,2,7,21,29,6,3,1,3
1501937301272830,-5,-6,-4,47,-7,-6,-5,-8
1501937301286874,-2,-6,-16,37,26,0,-3,-3
1501937301286874,0,1,2,-44,4,-1,-3,-1
1501937301294865,-2,0,22,54,16,1,-1,0
1501937301294865,0,-2,-32,-41,-14,1,2,1
1501937301309877,1,3,33,110,18,3,1,2
1501937301309877,-6,-5,20,44,-12,-12,-1,-4
1501937301310809,-1,-6,-42,-52,-36,-3,-3,-2
1501937301310809,0,1,11,23,9,1,-3,-2
1501937301332873,1,1,-8,17,-1,1,3,2
1501937301332873,1,0,-5,-12,1,2,0,0
1501937301332873,0,-1,7,-47,-2,-5,-2,-1
1501937301332873,-3,0,3,-49,-17,1,2,-2
1501937301355815,1,2,-6,8,-4,-2,-3,-3
1501937301355815,2,1,2,-39,-1,2,4,0
1501937301356812,-3,-5,-8,-2,11,1,-2,-4
1501937301356812,0,-4,-12,-4,6,0,0,-1
1501937301369857,-3,-2,-2,-18,-11,-2,-2,1
1501937301369857,2,-1,-4,65,31,7,0,0
1501937301370823,-1,-2,-9,-87,-53,-8,-2,-1
1501937301370823,-2,-1,19,84,3,-5,-2,1
1501937301392835,-5,-3,-16,-21,-20,-4,-3,-4
1501937301392835,1,3,-7,40,-6,1,-1,-1
1501937301392835,-4,-8,-32,-68,-12,-2,-2,-1
1501937301392835,0,2,28,64,9,2,0,0
1501937301406878,2,1,-3,-56,-31,-3,-1,0
1501937301406878,-1,1,2,-57,2,0,-1,0
1501937301414862,-2,0,20,122,23,-4,-1,-2
1501937301414862,1,3,-7,-16,-5,2,0,-1
1501937301429883,-2,-5,-19,-36,25,-4,-4,-3
1501937301429883,1,0,0,-64,-9,4,2,2
1501937301430852,-1,-3,-7,44,14,-5,-2,-1
1501937301430852,-2,-2,-3,-34,-7,2,-1,0
1501937301452832,1,3,26,66,23,2,-2,-2
1501937301452832,-1,-4,3,44,-15,-5,-2,1
1501937301452832,-1,2,-10,7,4,2,0,-7
1501937301452832,-1,-2,-6,-62,-13,-3,-4,-3
1501937301466859,0,-2,-11,-17,17,1,-1,0
1501937301466859,-2,3,13,-39,9,0,2,-3
1501937301474858,-4,-5,9,79,-10,-5,-3,-1
1501937301474858,0,3,-8,-79,-14,-2,0,1
1501937301489857,-1,-5,-5,2,6,1,-1,-1
1501937301489857,1,4,31,-51,-25,-6,-3,0
1501937301490818,-2,-6,-41,-30,4,-1,-2,-1
1501937301490818,-1,-2,-17,63,24,-1,0,0
1501937301512836,-4,-1,-2,-24,-33,-8,-1,0
1501937301512836,-2,-3,-5,41,13,3,-2,-2
1501937301512836,2,8,42,13,10,6,2,4
1501937301512836,0,-2,-11,-5,-5,-5,-1,-2
1501937301535890,1,1,-18,-71,4,4,3,2
1501937301535890,-3,-5,-3,-12,-3,-1,-5,-3
1501937301536823,-2,1,-4,-6,10,5,2,1
1501937301536823,0,-1,3,17,3,3,-1,0
1501937301549884,-1,1,25,-15,-22,-6,-2,-1
1501937301549884,2,2,-15,-1,-28,-2,-1,-1
1501937301550859,-3,-4,-11,14,-7,-3,-3,-2
1501937301550859,-5,-7,-10,-5,7,-5,-5,-5
1501937301572831,-1,-2,-7,82,-4,-2,-2,-1
1501937301572831,1,4,27,58,3,0,-2,0
1501937301572831,-1,-1,6,-31,-15,-4,0,0
1501937301572831,1,-1,-1,-50,-20,1,0,0
1501937301595890,-2,3,35,32,38,9,1,-2
1501937301595890,1,0,-14,-33,2,-2,1,1
1501937301596826,1,2,9,13,1,0,-2,0
1501937301596826,1,-1,6,-2,3,-2,-2,0
1501937301609867,-3,-4,-16,-14,-2,0,-1,0
1501937301609867,-3,-4,6,61,5,-3,-2,-3
1501937301610840,2,-1,3,-4,3,3,-1,-2
1501937301610840,1,3,9,83,18,2,1,0
1501937301632827,-1,-2,-8,-35,-19,-8,-5,-3
1501937301632827,-3,0,9,-68,-20,0,0,-1
1501937301632827,-3,-4,-15,24,5,-2,0,-1
1501937301632827,-3,-6,-13,-18,-7,-9,-5,-5
1501937301655834,-2,-2,-11,68,-10,-1,0,0
1501937301655834,2,1,3,51,29,8,0,0
1501937301656827,0,0,-10,-31,0,1,1,2
1501937301656827,1,3,0,-33,12,6,-1,1
1501937301669870,-5,-4,18,-20,-17,-11,-4,-5
1501937301669870,-1,-4,-25,58,2,-5,-1,2
1501937301670842,3,5,20,-73,6,11,2,-5
1501937301670842,-2,-3,-5,-25,-21,-9,-3,-2
1501937301692839,-1,-3,-3,-13,7,-2,-1,0
1501937301692839,-1,-2,-30,-15,-1,1,-2,0
1501937301692839,-4,-5,-4,17,17,-3,-1,-5
1501937301692839,0,2,0,-60,-4,1,2,0
1501937301715871,1,4,24,-17,-8,0,2,1
1501937301715871,-4,-7,-11,31,6,-4,-2,-4
1501937301716835,3,5,4,-12,2,-1,-1,4
1501937301716835,-3,-4,-2,73,4,2,0,-1
1501937301729876,1,4,2,39,28,1,0,0
1501937301729876,-3,-5,-11,-76,-33,-2,-1,-1
1501937301730847,-2,-1,-2,22,-8,-2,-1,1
1501937301730847,2,7,43,84,38,7,-1,2
1501937301752844,-5,-9,-64,-62,-50,-8,-1,-5
1501937301752844,-3,1,18,-83,-8,0,1,-3
1501937301752844,-2,-6,-7,57,6,0,-1,0
1501937301752844,-6,-10,-22,-2,-13,-15,-5,-5
1501937301775900,4,5,13,62,16,9,2,3
1501937301775900,-5,-5,4,80,34,-1,-3,-4
1501937301776835,1,4,19,24,-18,-4,-1,1
1501937301776835,1,1,-12,-109,-35,0,4,1
1501937301789861,-2,-7,-13,-42,-7,-6,-4,-3
1501937301789861,2,5,0,13,13,3,2,0
1501937301790834,-1,-4,-12,34,-1,-2,-2,0
1501937301790834,-2,-2,-3,-33,-24,-7,-2,-4
1501937301812845,0,2,10,-34,-1,0,-1,-1
1501937301812845,0,0,5,12,-7,-1,-2,-1
1501937301812845,0,0,11,56,19,3,-1,0
1501937301812845,-1,-1,-6,2,-7,3,1,0
1501937301835881,-3,-2,5,19,12,-3,-3,-3
1501937301835881,1,-1,-16,-7,19,0,1,0
1501937301836837,-1,3,28,-69,-18,-3,-2,2
1501937301836837,-2,-1,10,127,12,-4,-2,-6
1501937301849884,-1,-9,-25,27,14,5,0,1
1501937301849884,1,-1,2,61,-10,-2,1,5
1501937301850852,0,4,-9,-45,-6,-2,-2,-4
1501937301850852,-1,-4,4,8,-10,-5,-1,0
1501937301872851,0,2,7,56,20,6,-1,0
1501937301872851,-3,-5,11,27,-9,-9,-3,-4
1501937301872851,1,1,-7,-75,-5,4,3,1
1501937301872851,1,4,39,37,25,6,0,0
1501937301895884,2,7,9,-5,-23,-5,2,-1
1501937301895884,-2,-6,-18,65,15,-4,-5,-4
1501937301896843,1,-1,-2,-37,-25,-2,0,0
1501937301896843,2,1,0,-91,-5,1,1,2
1501937301909882,0,0,5,-33,19,1,0,1
1501937301909882,-3,-2,-6,-10,-14,-2,-1,-4
1501937301910857,-3,-3,-14,-61,-13,-7,-1,-3
1501937301910857,0,2,-1,-1,5,0,-1,2
1501937301932854,-2,-4,-9,78,-2,-5,-1,-2
1501937301932854,-1,-3,-9,-47,3,2,0,-1
1501937301932854,-3,-4,-16,-6,-7,-7,-4,-3
1501937301932854,0,2,13,0,3,-1,-2,-1
1501937301955857,-2,-1,20,-18,-14,2,0,0
1501937301955857,-2,-6,-44,-62,0,-3,-3,-1
1501937301956846,-5,-7,-3,127,18,-5,-5,-4
1501937301956846,1,0,-1,-15,-3,-1,3,2
1501937301969887,1,4,17,-104,-55,-4,2,0
1501937301969887,-2,0,30,-13,-10,-2,-4,-1
1501937301970856,-3,-7,-21,4,9,-1,-3,0
1501937301970856,-1,1,7,67,3,1,2,-1
1501937301992858,-3,-2,10,1,16,1,-2,-1
1501937301992858,-4,-5,-1,5,3,-3,1,-2
1501937301992858,5,6,-1,-63,-11,3,0,2
1501937301992858,-5,-8,-15,55,7,-4,-5,-1
1501937302015910,-3,-3,-31,-27,19,1,-1,-5
1501937302015910,-1,6,19,-42,0,3,1,-3
1501937302016849,-6,-8,-11,9,-20,-11,-4,-4
1501937302016849,0,-3,-20,11,5,3,0,0
1501937302029897,1,-1,3,65,26,1,0,0
1501937302029897,1,0,-8,-46,-16,5,1,1
1501937302030863,1,1,-1,75,18,5,2,1
1501937302030863,-3,0,24,35,11,-7,-5,-4
1501937302052878,1,-2,-12,-46,-16,-6,-2,1
1501937302052878,4,6,11,51,6,-2,1,0
1501937302052878,2,6,16,-107,-16,5,4,2
1501937302052878,-3,-8,-20,-44,7,3,0,-2
1501937302075893,-2,0,17,102,2,-3,-2,1
1501937302075893,-2,-4,-16,-1,11,0,-2,-4
1501937302076854,4,7,3,-50,15,3,0,2
1501937302076854,-7,-11,-17,7,-23,-4,-3,-7
1501937302089886,-1,0,4,21,-4,-4,-4,-1
1501937302089886,1,0,9,-2,-15,1,2,2
1501937302090852,0,-1,-2,4,10,0,1,0
1501937302090852,1,5,1,-75,-29,-4,-2,0
1501937302112867,-1,-2,-9,-16,5,3,-1,-1
1501937302112867,2,0,3,4,-8,-4,-2,0
1501937302112867,1,1,6,7,6,5,0,1
1501937302112867,-1,1,1,-43,2,3,1,-1
1501937302135896,-1,-1,-7,-77,-10,-2,-2,0
1501937302135896,1,1,-2,-19,-19,-2,1,0
1501937302136857,-1,0,10,62,8,0,0,-2
1501937302136857,-3,-5,-12,76,4,-2,-2,-1
1501937302148914,-3,-3,10,29,14,-4,-2,-2
1501937302148914,-1,-1,14,111,19,3,1,-2
1501937302157863,-1,-2,3,39,8,-1,-1,-3
1501937302157863,-3,-3,-13,-42,-26,-13,-2,-2
1501937302172866,-1,-2,-20,-28,3,3,0,-1
1501937302172866,0,-1,-3,14,6,-2,-5,-1
1501937302172866,-3,-1,10,-1,-31,-5,-1,0
1501937302172866,2,4,34,53,41,7,-1,0
1501937302195898,-5,-9,-25,-79,-10,-1,0,-3
1501937302195898,-2,-4,-15,26,-18,-5,-3,-1
1501937302196858,-3,-5,0,2,-2,-1,-3,-3
1501937302196858,3,8,4,-79,-13,1,2,3
1501937302208924,-1,2,11,23,-6,-6,-3,0
1501937302208924,-1,2,-13,4,16,4,0,-1
1501937302217874,-1,-4,-11,-21,-10,0,-1,-1
1501937302217874,-3,-7,-12,69,21,1,-2,-4
1501937302232876,3,2,-14,-65,3,-1,-1,4
1501937302232876,0,1,10,-1,-1,-2,-1,-6
1501937302232876,-2,-5,-17,27,13,3,-1,-2
1501937302232876,-1,-1,9,15,-38,-5,-1,-1
1501937302255863,2,1,5,45,8,4,-1,0
1501937302255863,-1,-3,15,-44,-11,-7,-4,0
1501937302256863,-4,-4,-5,25,5,0,-2,-3
1501937302256863,2,3,11,71,19,2,1,1
1501937302268900,0,0,14,53,2,1,0,-2
1501937302268900,0,2,-4,9,-7,0,-1,2
1501937302277872,-5,-6,-13,-7,-4,-7,-4,-4
1501937302277872,1,1,8,-108,-3,4,-1,-1
1501937302291903,-3,-3,-14,4,-9,-2,1,-1
1501937302291903,0,2,-4,-84,-11,-1,-1,0
1501937302292895,-3,-2,17,20,1,-5,-4,0
1501937302292895,-2,-2,-9,-1,2,-1,1,0
1501937302314904,2,2,-2,-59,-19,1,0,1
1501937302314904,-1,-2,-6,13,16,3,0,1
1501937302315869,2,3,10,36,4,-2,0,-1
1501937302315869,-1,3,6,17,-11,1,-1,-1
1501937302328929,-8,-12,-17,19,-36,-13,-6,-5
1501937302328929,-4,-6,-16,51,1,-1,1,-2
1501937302337881,3,3,6,11,-6,0,0,0
1501937302337881,2,0,-17,-29,22,-1,-1,1
1501937302352878,2,3,1,-2,9,6,5,0
1501937302352878,-3,-5,-5,16,-21,-5,-5,-2
1501937302352878,1,0,11,-12,-3,-1,2,1
1501937302352878,-7,-3,-7,-92,-18,-7,-4,-3
1501937302374909,-2,-5,-11,-22,1,-1,-1,-1
1501937302374909,2,3,6,-2,10,-1,0,0
1501937302375868,-5,-5,-8,-32,-5,0,-3,-4
1501937302375868,0,-3,-34,37,-6,0,2,-1
1501937302388908,1,6,24,9,4,-1,-2,1
1501937302388908,0,1,20,-30,-3,2,1,0
1501937302397885,2,3,-4,4,17,2,1,1
1501937302397885,1,0,-3,-49,-5,3,0,0
1501937302412887,1,2,12,72,-1,-2,0,0
1501937302412887,-4,-1,13,-6,-23,-4,-4,-5
1501937302412887,2,3,4,30,4,4,0,3
1501937302412887,-1,3,11,-19,4,1,2,-1
1501937302434933,-1,-3,-8,13,2,-3,-3,-2
1501937302434933,0,5,16,-15,19,3,2,-1
1501937302435883,-7,-16,-44,-123,-16,-11,-5,-4
1501937302435883,1,4,18,29,-6,-1,0,-1
1501937302457937,0,2,0,-43,18,4,-1,-3
1501937302457937,-1,-3,-5,12,1,-3,-2,-2
1501937302458884,0,3,22,84,22,6,0,0
1501937302458884,2,2,-2,6,-6,0,0,1
