timestamp,emg1,emg2,emg3,emg4,emg5,emg6,emg7,emg8
1501928907749550,3,8,40,60,17,15,1,2
1501928907749550,3,4,-20,-48,-15,11,9,3
1501928907750533,-5,-7,-32,-37,-4,-7,-6,0
1501928907750533,-5,-11,-6,64,-25,-10,-4,-4
1501928907754570,3,9,30,-31,-21,-8,-1,-1
1501928907754570,-2,0,39,50,6,-7,-3,-2
1501928907756570,1,1,-28,-34,-2,5,1,1
1501928907756570,-6,-11,-19,1,-13,-19,-14,-6
1501928907760601,3,10,-8,38,33,15,9,5
1501928907760601,0,4,28,-76,-51,-2,-3,-3
1501928907769529,-3,-7,10,59,-12,-11,-3,-4
1501928907769529,0,5,14,-55,37,1,-1,0
1501928907784536,-7,-19,-47,-57,-58,-15,-6,-7
1501928907784536,8,19,42,67,75,23,12,7
1501928907791548,-8,-17,-18,123,-20,-5,-7,-8
1501928907791548,3,-3,30,27,-24,-9,-5,-9
1501928907799544,-15,-5,4,-12,5,2,-2,-3
1501928907799544,9,0,-39,10,2,0,3,11
1501928907821595,-5,7,39,24,15,4,1,-7
1501928907821595,6,-2,-15,-83,-30,6,2,4
1501928907823569,7,4,-17,70,28,2,3,18
1501928907823569,-2,-2,31,-4,-5,-5,-4,-12
1501928907868568,-2,-3,-5,65,7,7,-2,-10
1501928907868568,3,-15,-58,-80,-28,-8,-8,11
1501928907869537,-5,-12,-9,68,-2,-2,-2,-5
1501928907869537,-1,-1,-18,-24,-4,-6,-3,-1
1501928907870573,-10,-7,4,58,-28,-13,-6,-7
1501928907870573,-5,-14,-59,-57,5,-11,-4,-4
1501928907873606,-3,-4,-21,-84,-36,0,1,-3
1501928907873606,-1,9,68,51,32,3,0,2
1501928907880612,2,1,20,90,41,5,4,5
1501928907880612,-6,0,-67,-20,-39,-2,-2,-6
1501928907887581,6,3,9,-2,10,3,3,8
1501928907887581,-4,-13,-31,57,5,-3,-2,-3
1501928907896547,7,5,-35,60,-23,2,4,6
1501928907896547,-4,-12,17,-4,-43,-26,-16,-11
1501928907910611,-8,11,40,-21,-2,9,3,0
1501928907910611,-4,-7,-37,41,-2,-8,-7,-4
1501928907917550,0,-2,-31,-99,1,7,4,2
1501928907917550,1,2,18,46,33,1,-1,0
1501928907941608,9,14,58,109,13,9,5,7
1501928907941608,0,-3,6,-62,-21,-3,0,0
1501928907943553,-3,0,33,-72,-20,-5,-3,-5
1501928907943553,1,7,38,38,16,2,2,-2
1501928907955561,7,11,-10,1,16,11,6,5
1501928907955561,-1,0,-20,-18,-2,8,3,2
1501928907962583,-14,-28,-42,78,-13,-25,-16,-11
1501928907962583,4,9,58,-62,1,6,4,1
1501928907978606,-1,-1,-14,77,11,-4,-1,-5
1501928907978606,6,7,10,-32,10,5,4,5
1501928907980543,-10,-23,-56,17,-66,-16,-13,-10
1501928907980543,10,0,0,-10,-12,4,2,2
1501928908001614,-18,-14,-45,-43,10,-12,-7,-5
1501928908001614,2,7,36,-28,18,4,0,-2
1501928908003558,7,18,51,-27,25,11,8,5
1501928908003558,5,13,4,64,51,17,9,6
1501928908015606,1,-5,29,18,2,-5,-6,0
1501928908015606,3,5,17,-82,-10,1,3,3
1501928908022588,6,8,-16,-47,37,9,5,3
1501928908022588,-5,-5,2,99,-13,2,2,-2
1501928908038613,3,2,19,52,23,3,1,0
1501928908038613,-8,-15,-78,-40,-59,-15,-10,-6
1501928908040546,6,11,22,12,49,18,8,6
1501928908040546,-1,10,64,36,13,2,2,2
1501928908061612,-6,-16,-31,-81,-22,-12,-9,-7
1501928908061612,3,0,-16,40,-21,4,2,2
1501928908063558,-1,-3,13,24,5,-4,-2,-2
1501928908063558,-1,2,12,-79,23,3,1,0
1501928908075591,2,2,-33,-33,-12,5,4,1
1501928908075591,-1,-1,14,40,12,-1,0,-3
1501928908082595,-2,-8,-4,41,-13,-20,-9,-5
1501928908082595,-7,-1,-13,5,26,15,4,12
1501928908098618,-1,6,23,-22,9,1,3,-8
1501928908098618,2,-5,-11,-55,-3,-1,-4,2
1501928908100550,0,0,-3,88,20,1,2,2
1501928908100550,10,16,58,-56,8,12,9,6
1501928908121625,-9,-22,-46,-92,-46,-21,-14,-8
1501928908121625,-3,-3,0,106,16,0,2,-3
1501928908123551,6,18,66,-38,38,8,4,2
1501928908123551,-7,-24,-90,-41,-13,0,-3,-9
1501928908135600,2,8,46,34,-9,7,3,2
1501928908135600,-3,1,25,-44,-11,-10,-5,-6
1501928908142593,1,0,-17,-58,0,7,3,3
1501928908142593,1,11,33,123,37,0,-3,-3
1501928908159565,3,3,-10,-62,-1,-5,-1,4
1501928908159565,-7,-6,24,15,14,2,-1,-6
1501928908160557,0,7,35,-7,2,-2,0,-2
1501928908160557,-5,-15,-57,-41,-44,-9,-7,-1
1501928908181628,2,2,-8,-25,9,8,1,4
1501928908181628,-1,2,0,-19,11,1,-1,-3
1501928908183555,-10,-17,-46,-82,-42,-10,-5,-3
1501928908183555,0,3,17,102,19,-3,-1,-4
1501928908195624,1,-2,7,104,-9,-4,-2,1
1501928908195624,-3,-6,-33,-79,-1,-2,-2,1
1501928908204557,-1,-6,-12,69,-20,-4,-1,-3
1501928908204557,-4,-6,-2,-6,-20,-10,-3,-5
1501928908219577,-5,-7,-27,-72,-5,-6,-6,-4
1501928908219577,1,0,-16,92,6,1,0,-1
1501928908220558,0,2,43,24,-13,-3,-2,0
1501928908220558,-8,-14,-27,-125,-34,-15,-10,-7
1501928908241620,-1,3,19,-19,12,7,2,-2
1501928908241620,4,6,29,113,19,0,0,2
1501928908243560,2,2,-3,-10,10,7,1,4
1501928908243560,-6,-4,34,31,-40,-12,-8,-8
1501928908255607,-4,-13,-31,-5,-13,-14,-7,-1
1501928908255607,-2,-4,-19,115,11,-2,0,-4
1501928908264559,-6,9,40,-53,-13,8,4,-5
1501928908264559,6,-6,0,116,18,-5,0,6
1501928908278632,5,5,32,-44,7,14,7,5
1501928908278632,-6,-5,20,17,-16,-12,-9,-5
1501928908280593,5,11,1,-10,20,11,5,4
1501928908280593,3,-7,6,-11,-10,-8,-3,-4
1501928908301600,-11,-5,-43,2,4,-4,-1,-3
1501928908301600,5,7,-41,-121,-12,12,7,8
1501928908303563,-10,-10,2,47,5,-17,-10,-11
1501928908303563,4,8,14,34,14,13,5,1
1501928908315634,2,-5,-14,77,-6,-3,-1,-4
1501928908315634,-4,-2,-2,-19,-1,-5,-5,-5
1501928908324577,12,18,3,4,-3,3,3,12
1501928908324577,-10,-9,-27,-61,-20,8,3,-10
1501928908339578,3,7,25,26,6,-4,-2,-1
1501928908339578,5,4,16,51,6,12,5,4
1501928908340579,-6,-13,-15,-3,9,-12,-8,0
1501928908340579,5,12,-11,46,1,6,5,6
1501928908361600,-4,-2,30,68,-8,-1,0,-4
1501928908361600,-2,-1,-2,-128,-36,-5,-2,-3
1501928908363571,1,5,10,-11,-2,0,-2,2
1501928908363571,-3,-2,-6,-5,6,-9,-4,-1
1501928908375611,-2,-6,-34,-53,-2,-6,-5,-1
1501928908375611,3,4,28,70,29,13,4,4
1501928908384569,-7,-11,-37,-128,-44,-1,-3,-4
1501928908384569,-6,-2,25,52,5,-8,-7,-3
1501928908398632,6,10,27,-7,7,-1,3,1
1501928908398632,-1,-10,-40,1,-2,-5,-4,0
1501928908405584,-1,-4,10,-30,-27,-2,3,-3
1501928908405584,-1,1,-16,83,0,5,5,1
1501928908421642,-7,-11,-7,-98,-30,-12,-9,-6
1501928908421642,-2,4,-2,-51,-10,-2,-1,1
1501928908423569,-1,-3,9,40,-1,-5,-3,-7
1501928908423569,1,5,-5,22,14,5,-2,0
1501928908435640,2,6,12,122,30,8,5,2
1501928908435640,-10,-21,-43,36,-27,-17,-12,-7
1501928908444605,-3,-3,5,54,25,-7,-5,-3
1501928908444605,1,6,20,-85,-35,2,3,1
1501928908458572,-1,-6,-46,78,10,0,-1,0
1501928908458572,1,6,17,81,39,6,3,1
1501928908460604,2,3,-2,-82,-23,-6,1,1
1501928908460604,-7,-14,-24,-30,-3,-1,-3,-5
1501928908481638,5,9,28,50,15,10,6,4
1501928908481638,1,-3,-47,-16,-9,-5,0,0
1501928908487613,-3,-7,-10,-8,4,-2,-1,-6
1501928908487613,1,2,19,-1,12,4,-1,-1
1501928908503574,-1,1,-9,-2,-5,-2,0,0
1501928908503574,-5,-2,46,5,54,4,-2,-2
1501928908505575,2,4,14,13,0,2,-1,0
1501928908505575,-2,-7,-42,-121,-15,-12,0,-5
1501928908519595,0,3,6,-47,4,11,3,2
1501928908519595,1,5,48,-31,8,5,3,1
1501928908520576,3,-1,-76,-115,5,7,1,5
1501928908520576,-12,-18,23,109,-18,-18,-12,-6
1501928908541609,-2,-2,8,5,2,-7,-4,-4
1501928908541609,4,4,-31,-74,-19,8,7,4
1501928908543579,-2,-3,36,-32,-31,-2,-4,-1
1501928908543579,6,13,-6,-16,26,9,6,4
1501928908555604,-8,-16,-39,21,-12,-15,-10,-7
1501928908555604,-4,2,63,42,-5,-6,-6,-3
1501928908564578,1,-1,-12,127,21,4,1,0
1501928908564578,4,7,2,-24,1,2,0,8
1501928908578585,-6,-3,-5,97,-13,-17,-8,-9
1501928908578585,5,8,31,27,-13,11,6,1
1501928908580579,1,-5,-2,-2,24,4,5,4
1501928908580579,-7,-6,11,-53,-13,-12,-9,-4
1501928908601607,3,8,42,-33,9,7,3,0
1501928908601607,0,-2,-48,28,4,0,1,0
1501928908603580,1,6,46,60,2,4,0,2
1501928908603580,-1,-4,-15,33,-5,-6,-4,-3
1501928908615636,2,3,10,-79,-14,6,3,1
1501928908615636,-1,-2,14,-18,-26,-7,-3,-4
1501928908624580,-8,-15,-61,-68,-22,-9,-6,-6
1501928908624580,8,10,-15,-55,17,13,7,6
1501928908638619,-4,-1,38,-10,9,-11,-8,-3
1501928908638619,-2,-1,38,35,6,-6,-3,-2
1501928908645608,2,5,1,14,-3,3,1,2
1501928908645608,0,-1,-2,-41,-5,4,2,-1
1501928908661648,5,4,-10,34,37,14,4,3
1501928908661648,-2,-10,-22,-67,-54,-12,-7,-2
1501928908663583,-3,2,24,124,20,0,-1,0
1501928908663583,-4,-7,-8,-1,2,-2,-2,-3
1501928908683634,2,4,13,39,15,4,4,1
1501928908683634,2,6,14,-33,6,-2,4,2
1501928908685617,-2,-3,-11,-55,-18,-3,-4,-2
1501928908685617,3,4,9,54,4,6,4,2
1501928908698624,-4,-10,-48,-81,-28,-11,-6,-5
1501928908698624,0,-1,-36,-58,-23,4,2,1
1501928908700585,-3,0,19,-26,3,-5,-3,-4
1501928908700585,-1,4,52,31,11,-6,-6,-3
1501928908720633,-3,-8,-38,-120,-33,-17,-6,-5
1501928908720633,0,3,7,19,13,13,5,1
1501928908729587,3,5,-5,30,14,6,3,4
1501928908729587,-1,3,23,54,12,-3,-2,-1
1501928908743632,0,-7,14,127,21,0,1,1
1501928908743632,-5,-10,-43,-97,-37,-12,-7,-5
1501928908745589,4,-4,-39,-47,-7,8,8,5
1501928908745589,-1,-8,10,37,11,-2,0,-1
1501928908758626,-3,-4,-33,-113,-42,-5,-3,-2
1501928908758626,-3,1,-20,20,18,-6,-5,-5
1501928908760624,0,2,-7,-88,-20,6,-1,0
1501928908760624,0,2,-23,9,13,5,3,0
1501928908781656,5,8,47,-1,1,10,3,6
1501928908781656,-10,-17,-63,-81,0,-12,-6,-8
1501928908783590,-3,-15,0,59,-2,-15,-4,-2
1501928908783590,0,6,15,-103,-7,7,2,2
1501928908803650,-1,0,-18,-16,-9,2,-1,-2
1501928908803650,4,5,27,127,15,-16,-4,3
1501928908805591,0,0,-28,27,-10,20,3,1
1501928908805591,1,2,2,41,12,-3,0,0
1501928908818635,2,2,0,-81,7,3,4,4
1501928908818635,-4,-6,26,64,11,-1,-3,-2
1501928908825635,-7,-11,-32,122,5,-19,-9,-8
1501928908825635,0,7,27,-40,-24,-1,-1,0
1501928908840606,1,2,-18,41,3,9,3,-1
1501928908840606,0,0,3,7,28,5,-1,2
1501928908849606,0,3,36,72,14,3,2,-2
1501928908849606,4,5,16,-8,24,6,1,4
1501928908863636,-12,-21,-17,29,-41,-23,-13,-9
1501928908863636,1,0,-20,-48,-11,4,3,1
1501928908865596,0,2,22,71,8,-3,0,-1
1501928908865596,1,1,-25,-16,-15,-6,-2,2
1501928908886635,-2,5,18,-1,15,3,1,-5
1501928908886635,2,9,60,106,25,11,4,2
1501928908888596,-6,-8,-43,-125,-39,-10,-5,-3
1501928908888596,-3,-6,-25,-32,-4,-16,-2,-3
1501928908900598,-3,-3,-1,-23,8,11,0,1
1501928908900598,3,7,38,125,14,8,6,2
1501928908909631,-2,1,26,-115,-33,-10,-7,-3
1501928908909631,-3,-3,4,57,9,1,-2,-2
1501928908923664,2,4,-10,3,-3,-1,-1,0
1501928908923664,2,1,-13,-92,-22,-3,-1,-1
1501928908925630,-1,2,14,73,52,7,1,-1
1501928908925630,-4,-6,-5,-25,-23,-2,-1,-3
1501928908946659,0,2,-24,0,-1,-1,-2,-1
1501928908946659,1,2,11,18,6,3,0,3
1501928908948623,1,0,-7,-12,7,-3,-1,1
1501928908948623,-5,-10,-44,4,-4,-2,-6,-5
1501928908960633,4,12,62,91,37,-1,3,2
1501928908960633,-7,-12,-54,-76,-45,-3,-6,-5
1501928908969601,4,11,37,-27,19,16,9,6
1501928908969601,-3,-3,12,-19,6,-3,1,-3
1501928908983664,0,-1,6,18,-5,-4,-2,-3
1501928908983664,-5,-12,-35,-53,-17,-12,-8,-6
1501928908985601,3,6,0,45,4,2,2,-1
1501928908985601,1,0,-2,-89,-6,6,2,2
1501928909006604,-2,-4,5,4,4,-11,-4,-3
1501928909006604,2,4,9,55,13,11,1,1
1501928909008614,3,5,29,-58,12,8,6,1
1501928909008614,-9,-14,-53,-23,-20,-14,-9,-7
1501928909020614,-3,-6,-6,-19,-7,-3,-3,-4
1501928909020614,-1,-1,-1,-17,-6,-6,0,0
1501928909029639,1,0,-1,6,6,3,0,-2
1501928909029639,0,0,-2,-30,-16,-6,-1,0
1501928909043648,-1,2,3,21,5,3,0,2
1501928909043648,1,3,26,9,0,4,1,0
1501928909045623,2,7,-22,-69,15,-2,4,5
1501928909045623,-8,-13,5,127,14,-6,-7,-6
1501928909066620,-2,-6,-19,61,-18,-5,-3,0
1501928909066620,1,4,2,-31,-5,-5,-1,0
1501928909068606,-5,-11,-32,-17,-13,-10,-7,-4
1501928909068606,4,8,21,52,16,7,4,4
1501928909080607,-1,-2,-10,-85,-4,-8,-2,-1
1501928909080607,-2,-1,14,16,24,24,2,0
1501928909089643,-1,-3,-17,76,17,4,4,0
1501928909089643,-3,0,18,58,-32,-13,-6,-4
1501928909103607,-4,-6,-9,-119,-4,2,-3,-3
1501928909103607,-2,-5,-30,85,-12,-16,-7,-4
1501928909105609,-1,0,23,71,0,-5,-2,-2
1501928909105609,2,2,-1,-1,-5,14,4,0
1501928909126643,1,5,4,-3,19,-3,1,3
1501928909126643,-5,-5,1,-21,-21,-8,-3,-4
1501928909128610,-5,-6,14,-61,-24,-7,-6,-4
1501928909128610,4,2,-6,109,12,3,2,1
1501928909148612,1,5,25,74,3,8,3,1
1501928909148612,-3,-4,-22,-9,5,-9,-5,-1
1501928909150613,-2,-1,6,20,-4,-4,-5,0
1501928909150613,2,4,1,-105,-6,5,2,2
1501928909163623,-3,-4,0,74,0,-7,-4,-5
1501928909163623,0,2,-1,-71,3,7,4,0
1501928909165622,-4,-4,-5,-61,-22,-11,-5,-4
1501928909165622,-2,0,14,-18,17,5,-3,-1
1501928909187630,2,-2,-19,-25,-1,-1,4,-1
1501928909187630,0,-1,0,26,0,6,-2,-1
1501928909188612,-3,-5,-9,-12,-9,-6,0,-2
1501928909188612,1,3,-16,-109,1,4,2,1
1501928909209655,-2,-4,-6,-54,-14,-5,-2,-1
1501928909209655,-1,1,36,88,5,-7,0,0
1501928909210647,-2,-3,-20,-19,-17,-2,-2,-3
1501928909210647,0,1,12,43,-14,-3,1,-2
1501928909223688,-1,-2,-9,9,-8,3,-2,0
1501928909223688,-1,0,11,-15,9,-5,-2,-1
1501928909225615,0,-2,-18,100,-3,2,-1,1
1501928909225615,-2,-5,-24,38,10,-3,0,-3
1501928909246681,-1,2,26,33,19,3,0,-1
1501928909246681,6,8,13,52,15,5,5,5
1501928909248617,-5,-8,-24,-77,-52,-10,-5,-4
1501928909248617,4,8,7,-69,0,1,1,2
1501928909275661,1,2,-6,27,21,8,0,0
1501928909275661,-1,-4,17,38,1,-4,-3,-2
1501928909286619,-1,3,29,106,30,1,-3,0
1501928909286619,-2,-5,-10,-66,0,-4,-1,-1
1501928909286619,-2,-2,-2,-10,-30,-3,-1,1
1501928909286619,-2,-4,-8,-66,4,-5,-1,-2
1501928909290635,-1,-1,-2,-59,0,-2,-2,-3
1501928909290635,-2,0,12,70,-1,0,-2,-3
1501928909306649,1,-2,-10,-13,10,4,0,0
1501928909306649,0,2,-25,-96,19,10,5,2
1501928909308621,-9,-14,-23,-14,-26,-19,-12,-8
1501928909308621,1,1,5,9,8,2,1,-1
1501928909328681,-3,0,-15,11,-6,-2,-2,-1
1501928909328681,-3,-3,-8,-45,-16,-7,-2,-3
1501928909330621,1,3,14,16,25,1,1,2
1501928909330621,-2,-2,8,-65,-16,-5,-2,-1
1501928909343685,6,5,-1,-36,-3,12,6,5
1501928909343685,-7,-15,-46,-41,-6,-6,-5,-7
1501928909350640,4,7,15,-78,-5,9,5,3
1501928909350640,-7,-13,-1,105,-14,-14,-12,-7
1501928909366662,2,4,27,-65,14,5,3,0
1501928909366662,-3,-7,-50,-100,-29,-9,-5,-3
1501928909368623,2,3,17,89,28,9,3,1
1501928909368623,-1,-3,-11,83,0,-1,1,1
1501928909388691,-5,-5,11,-4,-16,-22,-11,-4
1501928909388691,3,3,25,48,6,14,0,0
1501928909390625,7,11,19,50,30,19,15,5
1501928909390625,-4,-5,20,-14,-4,-4,-3,-5
1501928909403664,-2,-6,-16,84,-11,-7,-5,-4
1501928909403664,-3,-2,-1,75,-9,-13,-6,-2
1501928909410637,0,2,-1,-33,1,3,-1,0
1501928909410637,0,-2,-25,24,15,7,3,1
1501928909426689,-2,-4,-8,-78,-9,-7,-3,-2
1501928909426689,-3,0,34,18,-16,0,-1,-1
1501928909428635,3,6,8,64,3,4,0,0
1501928909428635,-2,3,-12,-51,16,2,1,0
1501928909448670,-7,-7,6,8,-6,-6,-3,-3
1501928909448670,1,1,-34,16,7,-2,1,2
1501928909450628,-5,-6,19,98,-13,-11,-7,-4
1501928909450628,1,-3,-31,-20,-8,-4,-2,-2
1501928909463670,2,0,-9,-14,-6,10,3,0
1501928909463670,2,8,28,13,21,4,1,0
1501928909470647,-3,-10,-42,-10,3,1,1,-1
1501928909470647,-2,1,20,-35,-28,-9,-3,-1
1501928909486673,2,3,4,46,6,3,1,0
1501928909486673,1,3,13,32,11,4,5,1
1501928909488631,-7,-7,17,34,-22,-23,-16,-9
1501928909488631,3,5,9,-44,11,13,4,2
1501928909508672,-1,-4,-12,61,4,0,3,-1
1501928909508672,2,9,48,18,9,5,2,2
1501928909510665,-5,-10,-63,-93,-4,-6,-3,-3
1501928909510665,-2,-4,11,41,-10,0,-2,-3
1501928909523697,2,7,19,-42,3,3,2,3
1501928909523697,-4,-11,-45,45,-7,-16,-8,-4
1501928909530633,1,5,14,10,4,18,7,3
1501928909530633,-1,-3,-11,-16,2,-5,-5,-2
1501928909546667,-3,-6,-21,39,2,2,-1,-1
1501928909546667,6,11,27,-78,2,6,7,5
1501928909547636,-6,-17,-29,-68,-34,-14,-9,-10
1501928909547636,1,3,15,18,6,-1,0,-2
1501928909568689,-4,-4,-3,46,-5,-2,-1,-1
1501928909568689,0,-3,-5,-5,5,0,0,-3
1501928909570634,3,4,-6,-59,3,-1,2,4
1501928909570634,0,0,-12,-20,3,6,2,0
1501928909583680,0,-2,44,116,45,-3,-2,1
1501928909583680,-8,-10,-18,-44,-50,-10,-8,-4
1501928909590637,0,2,10,-17,8,5,2,-1
1501928909590637,-1,-2,-17,30,1,-9,0,-2
1501928909606639,4,7,18,9,15,14,4,3
1501928909606639,-5,-10,-23,69,-5,-6,-4,-4
1501928909608639,4,6,49,117,14,2,2,3
1501928909608639,2,3,-18,-55,-25,0,3,2
1501928909628710,-1,-1,-14,-43,-28,-2,-2,-1
1501928909628710,0,2,32,22,13,2,0,0
1501928909630649,1,4,-25,23,5,3,1,0
1501928909630649,0,2,9,16,25,3,2,1
1501928909643692,-2,-1,12,-51,-19,-7,-4,-2
1501928909643692,-1,0,20,57,12,3,2,-2
1501928909650656,3,7,13,-66,-5,1,0,4
1501928909650656,-1,-5,-20,26,3,-5,-4,-1
1501928909666706,-4,-4,-9,-70,-6,0,-1,-3
1501928909666706,-3,-2,-9,-24,-6,-4,-1,-2
1501928909668649,-1,3,6,23,16,6,0,1
1501928909668649,0,-2,6,15,3,-1,-1,-1
1501928909688709,-1,1,-4,-81,-4,0,1,0
1501928909688709,-3,-9,-42,50,-16,-8,-4,-4
1501928909690642,-2,-7,-20,-15,-1,-1,-2,-3
1501928909690642,-2,-5,-5,127,11,2,0,0
1501928909702709,1,4,3,-92,-41,-6,-3,1
1501928909702709,5,9,7,-61,17,6,4,5
1501928909711652,-3,1,15,36,-11,-7,-3,-4
1501928909711652,-5,-7,19,-64,-8,-5,-4,-6
1501928909726712,1,-6,-34,5,13,4,-1,-3
1501928909726712,5,7,34,116,32,11,7,1
1501928909728645,-7,-12,-36,-70,-71,-19,-11,-6
1501928909728645,0,4,12,1,10,9,4,2
1501928909748712,-1,2,15,119,10,-3,-1,-2
1501928909748712,-2,-5,5,-62,-14,-7,-5,-1
1501928909750674,-5,-11,-50,43,6,-4,-1,-2
1501928909750674,-1,3,6,18,-2,8,3,2
1501928909762708,-3,-6,-40,-80,-14,-12,-5,-3
1501928909762708,-2,0,-8,1,9,-4,-2,-3
1501928909771661,4,1,24,-62,-2,3,2,1
1501928909771661,1,1,-3,-101,-18,-5,-2,-1
1501928909793693,1,2,14,79,11,1,0,2
1501928909793693,0,1,-14,-42,-13,-5,-2,1
1501928909795648,-1,-6,-10,-6,5,0,-2,-2
1501928909795648,4,6,37,25,10,2,1,1
1501928909808690,-5,-6,-4,-69,-46,0,-3,-4
1501928909808690,-2,0,-1,36,-5,0,-1,-1
1501928909810686,1,4,8,31,12,1,1,0
1501928909810686,-5,-10,-14,-42,-8,-5,-2,-3
1501928909822693,2,5,10,127,21,3,5,4
1501928909822693,-2,-4,5,-72,-25,-6,-4,-2
1501928909837693,1,8,14,21,13,3,1,0
1501928909837693,1,2,0,0,13,0,-2,-1
1501928909846714,-3,-1,-3,74,6,-1,-3,-2
1501928909846714,-6,-11,0,117,10,-6,-7,-5
1501928909847690,1,2,0,-84,-15,0,0,0
1501928909847690,1,2,10,91,4,-4,-2,0
1501928909868697,-3,-9,-39,-2,-2,-3,-3,-3
1501928909868697,1,4,48,-38,5,10,5,2
1501928909870652,0,1,16,64,10,-7,-1,1
1501928909870652,0,0,-23,59,0,5,1,0
1501928909882697,2,3,-12,-48,15,8,2,0
1501928909882697,-5,-6,-5,-57,-19,-10,-5,-5
1501928909891667,0,-7,-52,-42,3,5,3,-1
1501928909891667,-2,-3,13,-64,-10,-7,-4,-3
1501928909906735,3,7,40,14,21,7,4,0
1501928909906735,1,-3,-37,-49,2,5,0,0
1501928909908656,-2,0,18,2,14,-4,-5,-3
1501928909908656,-3,-11,-59,28,-23,-8,-4,-1
1501928909928720,-4,-6,11,34,1,-2,-3,-1
1501928909928720,0,0,-23,-78,3,4,0,0
1501928909930668,-5,-6,26,40,-1,-10,-7,-4
1501928909930668,0,-1,-5,-85,-5,1,-1,-2
1501928909942731,-1,0,14,-34,-2,-4,-3,-3
1501928909942731,1,5,-6,8,-1,1,3,2
1501928909951666,-1,-1,6,97,-2,2,0,-3
1501928909951666,-1,-3,-11,-74,-10,0,-1,-1
1501928909966726,-1,2,-5,72,-1,-7,-3,-2
1501928909966726,2,2,33,-9,1,5,0,0
1501928909967658,-2,1,3,62,13,0,-2,-2
1501928909967658,0,1,-5,-55,-32,-1,2,0
1501928909988706,-3,-2,-7,15,-4,-2,-1,-2
1501928909988706,0,0,-22,-20,5,-3,-3,-3
1501928909990692,1,3,17,-7,-2,1,0,2
1501928909990692,-3,1,6,-1,-7,-2,-2,-4
1501928910002705,-2,-7,-15,-25,-3,-2,0,-1
1501928910002705,1,2,-27,17,2,-5,-1,2
1501928910011675,-2,-3,5,-78,-13,1,3,0
1501928910011675,1,6,19,127,31,6,1,1
1501928910026727,-3,-2,11,-76,11,-4,-4,-2
1501928910026727,-4,-12,-26,109,-7,-8,-6,-4
1501928910027664,0,-2,-21,40,-4,0,1,1
1501928910027664,-4,-1,2,-58,8,0,-1,-1
1501928910048708,1,0,1,11,-4,-12,-3,-1
1501928910048708,2,6,33,-47,-10,9,6,0
1501928910050665,-3,-5,11,50,22,-2,-5,-4
1501928910050665,-2,-2,26,33,-34,-13,-10,-1
1501928910062712,-3,-8,-42,54,9,-2,-2,-4
1501928910062712,-1,1,28,10,-1,-3,-1,-3
1501928910071664,4,8,19,56,31,11,8,3
1501928910071664,-5,-4,2,-38,-8,-7,-4,-4
1501928910086691,1,2,5,43,-6,0,-1,2
1501928910086691,1,6,5,68,5,3,1,0
1501928910087666,2,0,-8,-37,29,5,3,0
1501928910087666,-1,-1,-7,49,-1,1,1,-2
1501928910107699,3,3,11,-74,-8,3,-1,1
1501928910107699,-1,2,3,127,17,-4,-3,0
1501928910117668,-1,-3,-26,-128,-42,-2,-1,1
1501928910117668,-1,-3,-15,30,7,-7,-1,-2
1501928910130667,1,3,-1,-92,-18,2,2,1
1501928910130667,2,-4,-21,-52,0,3,2,-1
1501928910131670,-5,-2,17,46,-42,-9,-5,-6
1501928910131670,-2,-2,5,30,10,-3,-2,-3
1501928910145679,-3,-8,-61,-21,-16,-9,-4,-5
1501928910145679,0,-4,-15,-65,1,6,1,-1
1501928910146668,-1,1,7,-2,-4,0,1,2
1501928910146668,1,-1,-5,-13,1,0,0,0
1501928910168671,3,5,17,-33,19,7,3,3
1501928910168671,-4,-8,-15,2,-6,-13,-8,-5
1501928910168671,0,-4,-7,27,-27,-7,-3,-3
1501928910168671,3,7,3,-13,12,9,4,0
1501928910190681,-1,0,-2,-68,-12,2,4,-1
1501928910190681,0,2,17,34,5,0,0,0
1501928910191671,-2,-3,9,5,0,-3,-5,-1
1501928910191671,-2,-4,-18,29,10,-4,-4,-2
1501928910205688,0,1,0,0,3,5,2,1
1501928910205688,-3,0,8,39,-2,-5,-1,-2
1501928910206672,3,0,-16,-34,14,6,0,1
1501928910206672,-3,-4,9,-72,-26,-6,-5,-2
1501928910228718,-5,-2,10,13,4,0,0,-3
1501928910228718,-5,-13,-33,-10,-5,-9,-4,-3
1501928910229679,3,9,-3,121,33,5,3,3
1501928910229679,0,0,16,44,-10,2,1,1
1501928910250675,0,4,24,64,-2,-1,-2,-2
1501928910250675,-5,-8,-17,-62,-19,-9,-5,-4
1501928910251684,-1,2,24,78,3,-3,-2,-1
1501928910251684,2,0,-4,79,20,7,1,0
1501928910265742,-1,-2,-18,-68,-29,-5,-4,0
1501928910265742,-3,-4,4,74,2,-5,-5,-4
1501928910266711,0,0,14,-59,13,4,0,2
1501928910266711,0,-6,-27,24,-6,5,5,3
1501928910288699,-8,-13,-44,-52,-22,-20,-10,-8
1501928910288699,-1,-1,22,82,-5,-1,-1,-1
1501928910288699,-3,-5,-20,-61,3,-5,-3,-4
1501928910288699,0,2,13,22,-2,4,1,0
1501928910310727,2,1,9,-8,-2,2,0,0
1501928910310727,-1,0,-13,-68,-10,1,2,0
1501928910311679,-3,-2,15,46,-6,-7,-5,-3
1501928910311679,2,6,46,-10,18,2,1,2
1501928910333746,-6,-12,-25,24,-18,-11,-2,-5
1501928910333746,-2,4,-3,-26,16,10,-1,-1
1501928910334683,0,0,-7,-33,-12,1,3,1
1501928910334683,-4,-5,12,78,5,-10,-6,-4
1501928910348686,5,7,17,0,15,12,5,4
1501928910348686,0,4,24,-42,-10,-6,0,-1
1501928910348686,-1,2,5,32,6,1,2,0
1501928910348686,-4,-6,-14,25,-8,-6,-4,-2
1501928910370721,3,8,27,36,18,3,-1,-1
1501928910370721,1,1,-3,54,6,0,-1,0
1501928910371693,1,-1,-22,-128,-8,3,2,2
1501928910371693,1,5,18,-36,10,-1,1,1
1501928910395683,-2,-2,-5,57,13,0,-1,-1
1501928910395683,-1,-1,-15,-2,2,3,1,0
1501928910396683,-1,-4,-18,-55,-18,-10,-5,-2
1501928910396683,1,3,-11,-61,-1,6,4,1
1501928910408713,-4,-9,-5,-16,2,-10,-5,-4
1501928910408713,2,4,2,10,9,8,5,0
1501928910408713,-3,-8,-7,29,-9,-7,-3,-5
1501928910408713,-5,-7,-40,-98,-24,-9,-3,-4
1501928910430703,0,2,13,99,10,5,0,1
1501928910430703,-2,1,21,11,-9,-4,-3,-1
1501928910431718,-2,-4,0,8,3,-4,-5,-5
1501928910431718,-2,-2,3,20,6,-2,-2,-2
1501928910445733,1,1,-8,37,1,3,3,4
1501928910445733,-3,-5,-2,-36,-8,-4,0,1
1501928910446718,-3,1,12,-11,10,1,-1,1
1501928910446718,-3,-6,-26,-2,14,-2,-4,-3
1501928910468736,-1,2,19,-59,-10,-7,-4,-3
1501928910468736,0,-5,-28,-24,0,9,3,-1
1501928910468736,3,8,25,58,15,7,2,2
1501928910468736,-2,-5,-8,-48,-8,-5,-5,-4
1501928910490687,-2,-1,10,49,5,-3,-3,-2
1501928910490687,-1,-1,13,-7,-1,-2,1,1
1501928910491720,1,1,-21,-33,-7,4,2,2
1501928910491720,-3,-3,-29,-15,-23,-9,-3,-2
1501928910505715,1,0,-4,-15,8,12,1,1
1501928910505715,0,1,24,29,-3,-1,1,-2
1501928910513737,-5,-5,-11,72,8,-4,-2,-4
1501928910513737,3,7,7,-82,-18,1,0,0
1501928910528733,-1,1,22,65,9,-3,0,-1
1501928910528733,-2,-1,-15,-22,5,-4,-4,-3
1501928910528733,1,3,1,-60,-5,6,1,0
1501928910528733,1,4,11,-35,-1,4,-1,2
1501928910550730,-5,-10,-27,41,-4,-8,-5,-2
1501928910550730,1,0,1,-23,-3,3,-1,-1
1501928910551704,-5,-10,-23,-67,-17,-11,-7,-4
1501928910551704,1,3,14,96,8,1,3,0
1501928910564761,1,2,2,-121,-17,2,0,0
1501928910564761,-1,1,1,19,-3,-3,-3,-1
1501928910573741,0,-1,10,15,14,2,0,0
1501928910573741,5,4,-17,-14,-2,8,5,3
1501928910588776,-4,-4,13,-3,-1,-5,-4,-4
1501928910588776,-2,-3,-22,-26,-2,-1,3,-1
1501928910588776,4,6,-8,-87,-5,4,0,2
1501928910588776,-2,-2,24,101,9,-3,-4,-3
1501928910610762,2,8,8,69,17,5,7,1
1501928910610762,0,-1,8,5,-14,-6,-4,-3
1501928910611722,1,0,-18,45,0,4,5,1
1501928910611722,-2,-2,11,-53,-5,-1,-3,-2
1501928910625723,-3,-6,-5,55,13,-7,-5,-6
1501928910625723,3,10,44,127,24,6,0,1
1501928910633762,-5,-9,-11,49,-23,-13,-5,-4
1501928910633762,1,0,8,76,12,10,2,-1
1501928910648762,-1,-1,-11,-6,-4,1,0,1
1501928910648762,2,5,11,-72,-12,2,3,3
1501928910648762,2,2,4,0,3,4,1,3
1501928910648762,-3,-9,-25,-63,9,-13,-4,0
1501928910670742,-6,-5,-7,45,-7,3,-3,-5
1501928910670742,2,2,-21,73,11,4,3,3
1501928910671713,-1,1,21,-36,-1,-4,2,-2
1501928910671713,-1,-2,-5,-41,-8,1,1,-2
1501928910685723,2,3,4,-40,5,-7,-2,1
1501928910685723,-1,-2,-8,-70,-17,-6,-1,-2
1501928910693742,-6,-12,-32,127,20,-2,-5,-3
1501928910693742,-1,2,14,-28,-14,-2,1,0
1501928910708702,1,1,10,43,12,6,3,1
1501928910708702,-4,-2,6,-54,-7,-6,-5,-3
1501928910709701,-4,-5,-5,1,-11,-8,-6,-3
1501928910709701,-2,0,-7,106,18,1,2,0
1501928910730773,2,1,-20,-108,-41,-1,-1,1
1501928910730773,-6,-9,-19,-25,-5,-5,-6,-4
1501928910731736,2,5,9,50,0,4,2,1
1501928910731736,-2,0,9,29,1,-1,-1,0
1501928910744767,-2,-3,0,-53,-12,-4,-3,-2
1501928910744767,0,1,13,12,-1,8,-2,-1
1501928910753778,3,5,15,-63,0,6,6,3
1501928910753778,-4,-6,12,-10,-2,-7,-7,-6
1501928910768742,2,3,-5,59,22,7,5,3
1501928910768742,-4,-9,-31,54,-13,-17,-8,-3
1501928910768742,0,0,5,-21,-7,-3,-1,1
1501928910768742,1,2,-7,74,-10,9,0,3
1501928910790754,-4,-7,0,-98,-10,-9,-5,-4
1501928910790754,0,3,36,46,11,2,1,0
1501928910791706,-2,-4,-28,15,-7,-4,-5,-4
1501928910791706,-1,1,10,69,3,1,2,0
1501928910804748,1,0,-8,21,-7,-8,1,0
1501928910804748,1,-4,-11,36,0,2,-3,-1
1501928910813756,1,4,19,-107,-6,-3,0,3
1501928910813756,-2,-4,-15,-51,4,-1,-2,-2
1501928910828727,1,2,-5,-49,-23,5,0,0
1501928910828727,-1,0,-18,-103,-8,-5,-1,0
1501928910828727,-1,2,26,127,23,3,-2,1
1501928910828727,-2,-2,6,12,0,0,-2,-3
1501928910850750,1,-2,-10,12,8,4,2,2
1501928910850750,0,-3,-3,55,7,-1,-1,-2
1501928910851709,2,6,31,14,-3,2,-1,-1
1501928910851709,-1,-5,-43,-55,-9,-5,0,2
1501928910864778,-2,-3,10,83,1,-1,-4,-2
1501928910864778,1,3,15,10,1,2,4,1
1501928910873763,-3,-4,-40,-42,-8,-4,-2,-2
1501928910873763,-2,3,37,67,37,7,0,0
1501928910888783,0,6,18,-6,-5,-1,0,0
1501928910888783,-4,-5,-3,118,21,-3,-5,-2
1501928910888783,-4,-6,-33,-19,-8,-13,-5,-3
1501928910888783,0,-1,-3,-55,-5,5,0,0
1501928910910750,1,0,6,56,40,8,4,-1
1501928910910750,0,0,-9,-38,-24,-1,1,0
1501928910911725,1,2,29,27,9,1,-2,-1
1501928910911725,-1,-7,-25,12,-9,-3,0,0
1501928910925729,-3,-1,16,81,10,-11,-5,-4
1501928910925729,2,3,15,53,8,10,3,-1
1501928910933786,-2,-1,-1,48,1,-13,-4,-3
1501928910933786,-1,3,17,57,7,11,4,-1
1501928910948788,-1,1,6,-70,-7,2,1,-1
1501928910948788,1,3,-5,-41,-1,0,1,3
1501928910948788,-3,-5,2,10,-4,2,-3,-2
1501928910948788,-1,1,-12,50,-8,-14,-8,-1
1501928910970789,-2,-2,-3,-34,-1,3,-1,-1
1501928910970789,0,0,26,-5,12,-1,-3,0
1501928910971749,2,2,-12,-86,-10,7,4,2
1501928910971749,-1,-2,-8,-111,-3,-8,-4,-3
1501928910984794,0,-2,-14,7,-6,2,-1,-1
1501928910984794,-2,-4,-10,9,5,-5,0,0
1501928910993756,3,2,-16,-30,6,12,5,1
1501928910993756,-1,-1,42,65,-2,-6,-1,-2
1501928911008718,-2,-6,-15,-85,-20,-6,-3,-1
1501928911008718,-2,-2,-17,-26,-5,-2,-3,-4
1501928911008718,0,-1,10,-19,-2,2,1,0
1501928911008718,1,-4,-32,-11,-3,-4,-2,-3
1501928911030758,-1,-1,8,68,16,-7,-1,-1
1501928911030758,1,3,6,51,-11,4,2,0
1501928911031720,-4,-7,-11,-79,-11,0,-3,-2
1501928911031720,0,2,13,-14,2,-1,-2,-2
1501928911053721,0,2,-12,69,-1,-17,-4,-1
1501928911053721,-3,-9,6,42,-14,5,-6,-4
1501928911054728,1,2,-4,89,-1,-3,3,0
1501928911054728,-3,-5,-1,60,4,3,1,-3
1501928911068743,4,9,48,-74,-32,7,5,4
1501928911068743,-6,-5,2,54,17,-10,-7,-2
1501928911068743,-1,-3,-7,-40,-15,-6,-6,-2
1501928911068743,0,-5,-32,-19,6,-2,-2,-1
1501928911090795,-2,0,-2,44,0,3,0,-4
1501928911090795,4,5,-4,-120,-7,2,2,2
1501928911091737,-2,2,50,83,27,6,1,-3
1501928911091737,-2,-6,-33,-111,-27,-13,-8,-3
1501928911113771,-1,-4,-17,34,9,0,-6,-2
1501928911113771,2,3,-23,-109,-15,3,4,1
1501928911114732,-1,-5,-17,50,11,1,1,-2
1501928911114732,-1,3,20,-34,-16,-2,-1,0
1501928911128788,0,0,-17,-14,3,10,1,1
1501928911128788,-1,-4,-12,-81,-7,-14,-4,0
1501928911128788,-1,1,1,13,-3,5,-2,-1
1501928911128788,0,0,-4,13,-3,5,6,2
1501928911150794,1,0,0,-25,16,0,-1,-1
1501928911150794,-1,-4,-15,37,7,-3,1,-1
1501928911151739,-1,-2,12,-1,1,-4,-3,-2
1501928911151739,0,-2,-26,-45,-2,-1,1,-2
1501928911174775,2,7,38,24,22,5,0,2
1501928911174775,-5,-6,-30,25,-11,-5,-2,-3
1501928911175738,-6,-12,-16,57,-22,-25,-8,-5
1501928911175738,2,7,24,15,22,26,6,1
1501928911188763,-1,-3,1,-34,-10,-1,4,0
1501928911188763,-3,-4,-20,-76,-10,-7,-6,-2
1501928911188763,1,0,-9,85,17,1,-2,-1
1501928911188763,1,2,7,11,-12,-12,-2,0
1501928911210801,-4,-9,-53,-94,-30,3,-3,-3
1501928911210801,1,3,8,21,4,5,4,0
1501928911211758,2,4,15,-18,9,-5,-3,-1
1501928911211758,-3,-6,-7,51,3,-10,-5,-2
1501928911233776,0,-1,0,34,8,4,1,-1
1501928911233776,-3,0,-3,25,-17,-4,-3,-3
1501928911234735,0,0,3,-63,3,2,1,-1
1501928911234735,2,9,0,1,10,7,2,2
1501928911248787,-11,-18,-22,32,-33,-20,-14,-9
1501928911248787,2,6,14,-64,16,8,1,3
1501928911248787,-4,-3,-13,43,-1,-2,1,-1
1501928911248787,-2,-3,6,-91,-16,-6,-6,-3
1501928911270776,0,1,-7,92,24,1,2,2
1501928911270776,0,1,8,-91,-5,0,-1,0
1501928911271769,-1,-4,-40,10,-20,-1,-1,-3
1501928911271769,3,7,25,12,18,3,5,4
1501928911293776,-6,-13,-2,85,4,-15,-11,-7
1501928911293776,3,1,-4,-16,7,6,7,2
1501928911294756,-3,-3,7,-57,-7,4,-1,2
1501928911294756,-4,-5,3,43,-3,-10,-5,-5
1501928911308746,3,8,-1,-42,-2,5,6,3
1501928911308746,1,1,17,64,4,-2,-1,-2
1501928911308746,-1,0,-11,-33,-7,7,3,0
1501928911308746,-3,-2,-9,-8,-2,-8,-4,-2
1501928911330803,1,-1,10,-24,-21,2,-1,2
1501928911330803,-4,-3,-1,-44,0,-3,-5,-2
1501928911331748,1,1,-1,53,2,-7,-1,0
1501928911331748,0,-3,-8,7,-20,4,0,-1
1501928911353751,-2,0,8,-7,-10,-5,0,-4
1501928911353751,0,0,17,46,9,5,0,-1
1501928911354780,-3,-5,-28,72,13,-8,-2,-4
1501928911354780,-2,-1,1,-69,15,4,-1,-3
1501928911368764,0,1,-3,-50,4,0,2,2
1501928911368764,-2,-1,5,107,10,-2,0,1
1501928911368764,-2,-3,-8,-33,-15,1,0,1
1501928911368764,2,1,0,58,13,8,1,-1
1501928911390809,2,4,-11,-100,-12,8,5,0
1501928911390809,-5,-8,4,50,7,-12,-7,-5
1501928911391775,0,5,22,-7,-3,2,-1,-2
1501928911391775,-5,-11,-34,8,4,-10,-4,-3
1501928911413784,2,5,20,23,7,10,2,-1
1501928911413784,0,-9,-58,-90,-34,-8,-3,2
1501928911414756,-1,3,25,-68,0,-2,-3,-2
1501928911414756,1,4,9,-48,-8,-2,1,3
1501928911427781,-3,-9,-48,-60,-18,-8,-3,-2
1501928911427781,0,2,-13,-40,-30,-2,-1,-1
1501928911435783,-3,-4,6,51,8,0,-2,-3
1501928911435783,2,3,8,-25,1,5,-2,-1
1501928911450786,0,-2,-13,35,-7,-3,0,-1
1501928911450786,0,0,40,-51,-10,-3,0,0
1501928911451746,0,-4,-63,-128,-27,-2,2,0
1501928911451746,-2,-4,18,127,8,-3,-2,-1
1501928911473817,-1,1,15,0,13,-2,-1,-2
1501928911473817,-1,-1,18,117,20,5,0,-1
1501928911474753,3,5,20,-2,4,0,2,3
1501928911474753,-3,-3,-10,-102,-15,-17,-6,-3
1501928911488762,-2,-1,8,96,16,10,0,-2
1501928911488762,-1,1,-20,-32,-18,0,0,0
1501928911488762,-5,-3,23,-36,9,-1,-2,-3
1501928911488762,-1,-1,-22,-25,1,1,2,0
1501928911510790,-1,-1,-2,-26,3,-9,-4,0
1501928911510790,2,5,17,-40,-1,6,1,-1
1501928911511748,1,-2,-15,-10,4,5,2,0
1501928911511748,-1,0,0,45,-6,-4,-1,-1
1501928911533783,0,0,7,-43,-7,-2,-1,0
1501928911533783,3,3,1,70,18,4,-1,4
1501928911534784,-2,-4,-2,69,3,-3,-4,-4
1501928911534784,0,0,2,53,-1,4,1,0
1501928911548768,-1,-1,7,66,8,-13,-4,0
1501928911548768,-2,-2,-3,-83,-29,8,-3,-2
1501928911548768,3,5,27,39,-10,1,6,1
1501928911548768,1,2,-2,16,9,4,1,-2
1501928911570818,-2,-1,-12,23,-2,-2,0,-1
1501928911570818,-2,-1,5,7,10,-10,-3,-3
1501928911571751,0,2,-3,76,4,-3,-2,1
1501928911571751,-7,-12,-5,-76,-18,-10,-8,-5
1501928911593793,1,-2,-2,12,-15,8,2,2
1501928911593793,-1,-2,-2,81,18,-6,-4,-2
1501928911594789,-2,-2,-6,-58,-8,2,-1,-2
1501928911594789,1,2,-12,-74,-3,-4,1,0
1501928911608754,1,0,-13,28,5,-1,-2,-1
1501928911608754,-1,0,18,-46,2,-10,-3,-3
1501928911608754,-4,-2,-4,6,4,11,2,0
1501928911608754,3,7,14,55,46,10,3,2
1501928911630823,-3,-1,24,16,-12,-6,-5,-2
1501928911630823,-1,2,5,-55,2,5,5,0
1501928911631785,-1,-7,-60,-25,-12,-7,-3,0
1501928911631785,-2,-2,14,-17,4,2,-1,-2
1501928911653766,0,-2,12,-25,15,2,-1,-1
1501928911653766,-1,-2,-14,-4,5,-1,-2,-2
1501928911654767,-1,0,28,82,11,0,-2,1
1501928911654767,-1,-3,-4,-30,-25,-5,-4,0
1501928911667794,1,1,-11,-31,1,5,5,0
1501928911667794,-1,-5,-37,70,6,-1,2,1
1501928911675795,1,2,27,-108,-15,0,-1,-2
1501928911675795,1,3,35,127,-7,-2,-1,1
1501928911690804,-2,-2,-14,23,-2,-14,-6,-2
1501928911690804,-2,-6,0,39,10,15,3,-3
1501928911691761,-1,0,-4,38,-5,-4,-3,-3
1501928911691761,-2,-1,4,96,3,-2,-1,-1
1501928911713772,1,-2,9,-45,2,-3,0,-1
1501928911713772,-2,1,4,-7,-4,-3,-3,0
1501928911713772,0,-2,-4,76,13,-2,-2,0
1501928911713772,-2,-2,-25,-93,-17,-1,-3,-1
1501928911727798,-1,-2,-13,41,-7,-3,-5,-1
1501928911727798,1,-2,-26,43,10,7,3,0
1501928911735776,-6,-8,13,-76,-8,-11,-6,-5
1501928911735776,0,2,1,-18,1,0,1,-1
1501928911750823,2,4,7,39,8,13,7,3
1501928911750823,-5,-7,-33,16,-3,-9,-4,-2
1501928911751764,-1,-3,9,-44,1,-1,-2,-1
1501928911751764,0,-1,-7,-90,-17,2,0,0
1501928911781829,-2,-3,-7,6,3,-4,-4,-2
1501928911781829,0,4,28,-18,-8,-10,-4,0
1501928911782763,-1,2,-8,20,-4,11,-1,-1
1501928911782763,-2,-5,0,12,2,-5,0,-3
1501928911787799,1,4,13,3,3,4,1,1
1501928911787799,-1,-2,14,-30,-4,-19,-7,-2
1501928911795770,3,8,27,14,24,20,6,3
1501928911795770,0,-3,-50,-44,-2,-3,-2,-1
1501928911810829,-2,0,14,44,-2,-3,0,-2
1501928911810829,3,7,15,34,18,9,5,2
1501928911811775,-2,-3,33,93,3,-16,-7,-5
1501928911811775,-3,-6,-17,9,-11,-1,-2,-3
1501928911833766,-3,-5,-4,-66,-20,-8,-1,-2
1501928911833766,-3,-1,-23,-67,-11,-2,-2,-4
1501928911833766,5,9,33,115,32,6,3,3
1501928911833766,-5,-5,10,-11,-38,2,0,-1
1501928911847788,-2,0,0,63,0,-5,-6,-2
1501928911847788,-5,-3,3,-21,-7,-7,-6,-3
1501928911855809,-1,-3,-5,-38,-17,-10,-4,-3
1501928911855809,-1,1,4,-20,8,5,2,1
1501928911870833,-2,-1,-2,-17,-2,7,1,-2
1501928911870833,2,0,4,4,0,2,3,1
1501928911871805,3,3,-14,-128,-17,-3,0,1
1501928911871805,-3,-1,10,25,11,-10,-6,-4
1501928911893787,-1,0,-12,37,10,2,0,-2
1501928911893787,-3,0,-12,-50,-13,-14,-2,0
1501928911893787,-2,0,-1,27,-1,19,2,-1
1501928911893787,3,5,21,9,-4,-5,0,3
1501928911907811,-2,-5,-5,-2,5,-3,-6,-3
1501928911907811,1,3,16,41,-1,-1,0,0
1501928911915836,-2,-4,-22,-79,-9,-13,-5,-1
1501928911915836,2,1,11,87,-8,10,5,3
1501928911930833,-7,-7,-39,-25,-11,-2,0,-3
1501928911930833,-4,-6,-2,-17,-7,-6,-7,-3
1501928911931782,-2,-4,-14,-84,-16,-9,1,-2
1501928911931782,-1,-1,8,83,32,12,0,0
1501928911953784,3,5,17,-68,0,1,5,2
1501928911953784,-2,-6,-20,9,-4,0,-3,-3
1501928911953784,-4,-4,-21,2,6,-4,-2,-3
1501928911953784,-1,-1,1,-5,-21,-19,-7,-4
1501928911967775,0,-2,0,-69,-7,2,-1,0
1501928911967775,-1,0,10,80,19,7,0,-1
1501928911975814,-1,1,16,12,-9,-4,-2,0
1501928911975814,-2,-3,-32,-9,1,-1,-2,-1
1501928911990835,-1,5,11,-25,10,-1,-1,-1
1501928911990835,1,6,42,127,19,8,3,0
1501928911991786,-3,-4,-29,-43,-17,0,-1,-2
1501928911991786,1,0,10,47,15,-2,1,0
1501928912013795,1,0,-4,2,-7,5,-3,0
1501928912013795,-1,-3,-25,-61,6,6,5,2
1501928912013795,-2,-3,5,127,-2,-10,-4,-4
1501928912013795,2,5,25,-53,9,5,0,1
1501928912036834,-1,-4,-18,86,7,-10,-3,-3
1501928912036834,-2,-2,-20,-68,-8,7,1,-1
1501928912037779,2,4,26,69,-1,1,-1,0
1501928912037779,-3,-9,-37,-63,-26,-9,-3,-4
1501928912050816,-1,-3,-9,14,-9,-3,0,1
1501928912050816,-1,-2,6,9,-1,6,0,0
1501928912051780,-2,-6,-12,60,5,-7,-3,-2
1501928912051780,1,4,13,47,12,5,1,1
1501928912073813,-3,-8,-37,-113,-9,-4,-5,-2
1501928912073813,-3,-8,-9,65,-2,-9,-6,-3
1501928912073813,1,1,-6,-38,-3,2,1,1
1501928912073813,0,5,16,29,19,4,1,-2
1501928912096859,0,-3,1,27,-26,2,-3,0
1501928912096859,-1,0,-10,-49,6,-5,-1,-1
1501928912097781,-5,-7,-14,-50,-15,-9,-5,-4
1501928912097781,-3,-2,3,101,11,7,1,-1
1501928912110819,-1,2,33,-96,-7,-15,-2,-1
1501928912110819,1,0,7,11,7,13,-3,-2
1501928912111796,1,0,-22,-6,0,7,6,2
1501928912111796,-4,-5,-27,-67,-13,-6,-2,-2
1501928912133800,-1,-2,5,91,25,-2,-3,0
1501928912133800,-1,-1,4,-55,6,-5,-2,-2
1501928912133800,2,7,7,36,9,2,2,4
1501928912133800,1,-3,-4,51,0,4,1,1
1501928912156849,2,1,-1,19,-4,5,2,1
1501928912156849,-1,1,19,127,40,-2,0,-2
1501928912157784,1,-2,-7,-69,-34,1,0,1
1501928912157784,-1,0,0,-27,-3,-9,-3,0
1501928912170846,2,10,39,71,10,12,6,1
1501928912170846,-4,-6,-26,-47,-18,-8,-3,-3
1501928912171785,0,1,19,101,27,5,2,1
1501928912171785,-1,-1,6,-31,-18,-20,-5,-2
1501928912193797,3,6,21,51,19,27,7,4
1501928912193797,-1,-1,20,20,-25,-6,-1,0
1501928912193797,-3,-4,-29,3,-4,-8,-7,-4
1501928912193797,-4,-4,-11,-44,-14,-1,-2,-2
1501928912216866,-1,-2,8,46,20,-11,-1,-2
1501928912216866,2,2,-10,-64,-23,5,4,2
1501928912216866,-1,3,26,73,26,2,-1,-1
1501928912216866,-3,-4,-13,-76,8,3,-2,-1
1501928912230847,-4,-7,-21,-127,-46,-15,-7,-7
1501928912230847,0,2,-2,37,0,0,-1,1
1501928912231803,-3,-5,-8,-128,-10,1,1,-2
1501928912231803,1,2,12,108,12,3,0,0
1501928912253803,-1,1,15,-11,0,1,1,1
1501928912253803,-2,-5,-22,-25,-8,-11,-7,-3
1501928912253803,0,-1,0,-75,-1,4,2,0
1501928912253803,-2,-1,12,71,14,2,-2,-1
1501928912276845,2,5,12,3,15,3,2,3
1501928912276845,-4,-4,20,36,18,-1,-1,-2
1501928912276845,0,-1,-3,-16,-11,4,2,1
1501928912276845,-4,-7,-35,-18,-15,-6,-5,-3
1501928912290836,-1,2,19,61,7,3,2,-1
1501928912290836,5,6,16,40,37,6,4,3
1501928912291818,-1,-1,-21,72,-18,-6,-4,-3
1501928912291818,-1,0,23,66,6,1,3,-1
1501928912313804,-3,-4,-21,-21,-14,-21,-8,-2
1501928912313804,2,3,24,43,1,16,8,1
1501928912313804,0,-3,-29,39,17,1,0,1
1501928912313804,0,2,14,21,-9,-2,-2,-3
1501928912336871,-3,-7,-23,47,11,-2,-2,-3
1501928912336871,-1,3,18,-72,-38,-6,1,-1
1501928912337797,-2,-3,-16,-87,-28,-5,-5,-2
1501928912337797,0,2,10,-36,6,-3,-2,1
1501928912350838,2,2,10,4,11,9,5,3
1501928912350838,-5,-8,-36,19,4,-5,-6,-3
1501928912351797,-1,-2,-4,-5,-1,-6,-3,-2
1501928912351797,2,0,-8,47,7,6,4,1
1501928912373816,-3,-6,-27,-128,-20,-7,-6,-3
1501928912373816,1,-1,8,51,-15,5,-1,-1
1501928912373816,1,3,-18,-39,2,-6,-1,1
1501928912373816,-3,-6,17,63,5,-3,-5,-5
1501928912396849,0,-1,-52,-71,3,-2,0,-1
1501928912396849,0,-1,-9,39,-18,-6,-2,-1
1501928912396849,-1,-1,48,114,14,2,1,0
1501928912396849,2,6,6,-117,-15,-3,-1,1
1501928912410871,-2,-5,-27,-49,-31,0,-1,-1
1501928912410871,-1,1,16,83,9,-2,-2,-1
1501928912411831,-1,-1,10,41,-8,-12,-2,-3
1501928912411831,2,1,-3,-46,5,21,4,3
1501928912433832,-2,-2,26,107,22,-4,-1,0
1501928912433832,-2,-5,-21,-125,-25,-2,-5,-3
1501928912433832,2,3,19,29,16,3,0,1
1501928912433832,0,1,6,-18,-7,-4,1,-1
1501928912456874,-1,2,9,68,-10,-1,-1,-2
1501928912456874,-3,-2,-21,-54,-5,3,0,-1
1501928912457802,0,1,-4,9,1,5,-1,1
1501928912457802,-4,-5,-23,-4,-3,-11,-3,-2
1501928912470842,2,5,8,-6,14,10,2,0
1501928912470842,-2,-5,-15,67,-2,-13,-3,-2
1501928912471815,-1,-1,3,-75,-5,2,-1,-1
1501928912471815,1,1,-28,-45,-12,3,1,0
1501928912493817,0,-1,15,124,7,-4,-3,-2
1501928912493817,0,3,7,-104,-27,-8,-2,-2
1501928912493817,0,0,3,30,4,7,0,-1
1501928912493817,-3,-5,-5,48,-5,-9,-2,-2
1501928912516879,-2,0,0,-39,2,-8,-4,-1
1501928912516879,1,1,-3,-26,12,16,3,0
1501928912516879,-2,-5,-22,8,-6,-6,-3,-2
1501928912516879,1,4,8,-106,7,3,2,2
1501928912530865,-2,-3,5,0,-27,-14,-5,-3
1501928912530865,0,0,-13,23,10,1,0,-1
1501928912531806,-1,0,13,-6,-5,2,-2,-1
1501928912531806,-2,-3,-12,86,-6,-3,1,-1
1501928912553825,-3,-3,-7,-9,-1,0,-2,-2
1501928912553825,2,2,8,-2,2,-4,-1,1
1501928912553825,-3,-4,-19,2,6,-3,-3,-3
1501928912553825,0,1,15,46,-5,-4,-3,0
1501928912576893,-3,-6,-17,9,-17,-5,-7,-3
1501928912576893,-2,0,-12,10,-8,4,3,0
1501928912576893,-2,-3,-2,56,22,7,4,0
1501928912576893,-5,-7,9,-26,-21,-7,-9,-6
1501928912589879,-2,-2,3,-78,2,1,0,-2
1501928912589879,-2,-1,-3,-8,1,-21,-5,-2
1501928912598828,1,1,6,16,1,15,0,-1
1501928912598828,4,5,17,69,20,6,5,3
1501928912612853,-5,-13,-51,-69,-35,-11,-7,-5
1501928912612853,2,-1,-4,6,-13,1,1,2
1501928912613843,0,-1,5,-4,0,-5,1,-2
1501928912613843,-3,2,-1,-3,-1,-7,-2,-1
1501928912636864,1,3,-1,119,28,15,4,2
1501928912636864,-1,-3,-12,-84,-4,-3,-1,-1
1501928912636864,-3,-5,-15,37,-2,-6,-5,-2
1501928912636864,0,2,5,-62,-16,5,1,2
1501928912649824,2,4,19,44,14,5,5,1
1501928912649824,0,1,5,-42,-6,0,0,0
1501928912658835,1,1,9,-29,4,-3,1,-1
1501928912658835,-5,-11,-45,-48,-1,-7,-5,-4
1501928912673835,1,2,18,-1,9,-1,0,1
1501928912673835,-5,-6,-21,48,-1,-2,-5,-3
1501928912673835,-2,2,13,-108,-7,-18,-8,-1
1501928912673835,2,5,9,51,22,23,8,3
1501928912696849,1,-2,-25,-83,-5,-1,2,0
1501928912696849,2,3,20,84,18,2,1,2
1501928912696849,1,3,12,36,-18,-6,-4,0
1501928912696849,0,2,7,-30,-2,-14,-5,0
1501928912709855,1,0,13,13,4,16,5,0
1501928912709855,-1,-2,-10,-9,3,-1,-3,-1
1501928912718829,-1,1,-1,18,0,-1,0,-1
1501928912718829,-2,-2,-19,-65,-11,-4,-2,-2
1501928912733856,-1,-1,-1,24,-5,-5,-3,-2
1501928912733856,-2,-2,6,73,9,-1,-2,-3
1501928912733856,-2,-4,-14,27,-4,-6,-3,-1
1501928912733856,0,-3,14,-51,-13,-3,-2,-2
1501928912756862,-2,-1,-1,-38,0,-3,-3,-2
1501928912756862,-2,1,5,-16,2,5,3,0
1501928912756862,0,-1,2,64,0,4,4,1
1501928912756862,-1,5,24,64,17,1,1,-1
1501928912769865,-5,-9,-23,19,-9,-9,-7,-4
1501928912769865,1,5,43,-2,8,2,0,0
1501928912777836,-2,-3,2,-9,-11,-12,-4,-4
1501928912777836,-1,0,-7,64,19,19,2,0
1501928912793840,1,1,27,-42,-18,-9,-1,0
1501928912793840,-1,1,-5,-87,-2,2,-3,0
1501928912793840,-3,-2,-5,26,9,1,1,0
1501928912793840,0,-3,-7,4,-12,-8,-3,-2
1501928912816897,0,3,-19,-31,16,5,4,2
1501928912816897,-4,-9,9,-63,-30,-10,-7,-4
1501928912816897,2,6,30,-9,9,6,3,2
1501928912816897,-2,-7,-35,-28,-10,-5,-1,-3
1501928912829864,0,1,2,63,16,6,-2,1
1501928912829864,3,0,-3,5,-4,-4,1,1
1501928912838838,-1,-1,15,-107,-18,5,-2,-3
1501928912838838,1,0,-11,-39,16,0,0,2
1501928912853852,-2,2,25,103,1,0,1,-2
1501928912853852,-2,-5,-20,98,8,-4,-2,-1
1501928912853852,-1,-2,-20,-36,-20,-5,-1,-2
1501928912853852,-2,-3,5,30,3,-2,-3,-3
1501928912877866,1,-1,2,15,-1,-3,-2,0
1501928912877866,0,0,-3,14,-2,-4,-6,-1
1501928912877866,1,0,-16,-25,6,14,9,3
1501928912877866,-5,-9,-29,-32,-4,-5,-2,-5
1501928912889841,3,7,13,-6,-6,5,1,3
1501928912889841,-3,-5,-27,28,-4,-5,-2,-2
1501928912898845,2,5,2,8,18,0,-3,0
1501928912898845,-1,-4,-5,-53,-21,-6,-1,-1
1501928912912894,-1,-1,12,48,-1,1,3,0
1501928912912894,-1,-1,0,4,-6,-1,-1,-2
1501928912913861,1,4,22,14,2,4,1,1
1501928912913861,-1,1,-8,23,14,1,-2,1
1501928912936876,-5,-7,-6,-128,-14,-7,-3,-2
1501928912936876,-5,-4,-21,-9,-6,0,0,-2
1501928912936876,0,-4,-18,62,12,1,-2,0
1501928912936876,-1,4,32,-4,-23,-4,-3,0
1501928912958896,1,-1,-25,-68,-4,0,0,-1
1501928912958896,1,2,26,123,37,10,3,1
1501928912959833,-3,-5,1,-72,-51,-25,-6,-4
1501928912959833,1,3,4,43,9,1,2,1
1501928912972872,-2,2,16,23,13,15,3,-2
1501928912972872,-4,-8,-36,-54,-21,-7,-2,-2
1501928912973867,-2,-4,-35,-4,14,0,-1,-2
1501928912973867,4,4,8,42,14,1,4,3
1501928912996900,-3,-4,18,32,10,-8,-7,-4
1501928912996900,2,4,35,-61,-23,-3,0,1
1501928912996900,-2,-5,-15,7,4,9,5,0
1501928912996900,-3,-6,-11,-22,-5,-3,-6,-3
1501928913018903,-1,1,-10,23,6,3,0,0
1501928913018903,-2,-6,-7,89,-1,-1,-2,-3
1501928913019868,0,-1,-2,-119,-3,-8,-5,-1
1501928913019868,-4,-3,9,-58,-4,5,2,-2
1501928913033859,2,-1,-11,-9,-4,-2,3,2
1501928913033859,1,2,9,-5,8,2,0,1
1501928913033859,1,0,4,2,1,2,1,0
1501928913033859,0,-3,6,127,17,-3,-6,-3
1501928913056908,-3,-4,3,-95,-25,-4,-7,-3
1501928913056908,0,1,-11,-46,-4,2,2,1
1501928913056908,-3,0,9,69,18,6,2,-2
1501928913056908,0,1,5,21,2,-3,-1,-1
1501928913078907,1,1,2,-59,-4,4,-2,-1
1501928913078907,0,-1,3,3,8,2,2,-2
1501928913079850,-2,-3,-12,41,-9,-5,-4,-2
1501928913079850,-1,-1,3,38,2,-3,2,0
1501928913092854,-1,0,-17,-81,-31,-8,-2,-1
1501928913092854,0,4,24,18,25,3,2,1
1501928913093872,-2,-6,-3,-8,-6,-3,-4,-2
1501928913093872,2,7,21,16,-1,-1,0,0
1501928913116891,-1,-3,-17,-31,7,6,2,0
1501928913116891,-5,-7,-22,-22,-30,-11,-6,-4
1501928913116891,0,4,15,40,0,1,0,-1
1501928913116891,-1,-3,-16,-36,-5,1,-2,-1
1501928913138914,-1,-1,9,80,14,-2,0,-1
1501928913138914,2,8,34,3,8,4,0,2
1501928913139877,-4,-9,-26,45,16,-7,-4,-2
1501928913139877,-3,-4,12,67,-15,1,0,-2
1501928913153882,1,1,-13,-1,2,1,3,2
1501928913153882,0,4,16,61,17,-1,-3,-1
1501928913160906,0,-1,10,96,8,4,4,2
1501928913160906,-4,-5,-30,-108,-24,-6,-4,-5
1501928913176848,-1,-4,-3,64,2,-7,-3,-1
1501928913176848,0,2,20,-91,-23,-17,-6,-2
1501928913176848,0,0,6,-24,9,22,7,1
1501928913176848,-2,-5,-36,-2,5,-5,-4,1
1501928913198910,-1,0,23,82,-2,-4,-4,-2
1501928913198910,0,2,-3,-10,2,0,1,-1
1501928913199845,-6,-8,-8,38,-11,-13,-8,-4
1501928913199845,0,0,6,-113,-10,4,1,-2
1501928913212885,-1,1,-3,1,12,-2,0,0
1501928913212885,1,-1,-21,-40,6,6,3,1
1501928913213885,0,5,11,-32,-13,-3,0,-2
1501928913213885,-3,-3,-8,62,-1,2,-1,-1
1501928913236929,1,-1,-13,1,6,-6,-1,-1
1501928913236929,-1,-1,-22,-11,-4,6,1,0
1501928913236929,1,1,14,9,-7,-8,-2,-2
1501928913236929,0,2,14,51,18,4,0,1
1501928913258881,2,3,10,-73,-5,9,3,2
1501928913258881,-3,1,40,63,-17,-2,-1,0
1501928913259849,-1,-4,-4,31,-4,-4,0,0
1501928913259849,-1,2,-20,93,2,-2,-1,-1
1501928913273851,-1,-2,13,-34,-8,-1,-1,-1
1501928913273851,-1,-4,-17,16,-2,-5,-3,-3
1501928913273851,-1,2,-5,-54,2,-1,-3,-2
1501928913273851,2,4,25,-10,-4,-4,2,2
1501928913296913,0,0,-8,18,1,8,2,0
1501928913296913,-4,-8,-30,-81,-7,-6,-4,-3
1501928913296913,1,3,26,72,5,0,1,1
1501928913296913,1,1,-4,-70,-11,-6,-2,-2
1501928913318892,-3,-2,-1,32,7,-5,-2,-1
1501928913318892,-3,-6,-9,31,2,0,0,-3
1501928913319886,2,2,-4,45,16,3,0,-1
1501928913319886,-3,-2,-3,-90,-21,-4,-2,-2
1501928913332920,-2,-1,-10,40,4,-4,-2,-2
1501928913332920,1,-1,-7,8,2,1,1,-1
1501928913333886,-3,-4,-8,-43,-12,4,-2,-1
1501928913333886,2,6,33,-33,10,4,5,-1
1501928913356916,-2,0,4,-47,-2,-5,-3,-2
1501928913356916,1,-3,-3,78,-21,-1,-2,1
1501928913356916,-2,-4,-13,-37,3,-2,-3,0
1501928913356916,-1,-1,0,-61,-13,-2,2,-1
1501928913378926,-3,0,28,43,-9,1,-1,0
1501928913378926,-1,-2,-3,-36,2,-4,-3,-2
1501928913379856,1,5,18,-72,-16,-6,-2,0
1501928913379856,-2,0,14,40,3,-2,-4,-1
1501928913392922,1,-4,-13,-6,-4,-4,1,-1
1501928913392922,1,1,-9,-25,2,3,1,2
1501928913393858,-4,-7,-14,4,-1,-5,-6,-5
1501928913393858,1,0,-17,44,3,4,1,-1
1501928913416937,-2,-3,-13,19,-11,-10,-6,-3
1501928913416937,3,4,20,86,21,11,2,1
1501928913416937,-4,-7,-25,-84,-32,-14,-2,-1
1501928913416937,-2,-1,-11,15,16,12,3,0
1501928913438917,2,3,21,40,2,3,-1,0
1501928913438917,-6,-7,-15,66,-4,-10,-4,-4
1501928913439859,1,4,8,2,16,3,0,0
1501928913439859,-4,-6,-1,90,-4,-5,-3,-2
1501928913452927,-1,2,21,-17,-10,-6,-2,-1
1501928913452927,-2,-1,-41,-128,-17,1,1,-1
1501928913453903,-3,-3,-28,74,7,-2,0,-3
1501928913453903,-1,0,8,-27,-8,-7,-4,-4
1501928913476913,2,-1,-6,72,3,3,0,0
1501928913476913,0,2,24,-26,8,0,2,2
1501928913476913,0,2,-20,-11,-12,5,2,1
1501928913476913,1,-2,-12,-36,6,2,2,2
