timestamp,emg1,emg2,emg3,emg4,emg5,emg6,emg7,emg8
1501936021883880,-6,-11,-17,6,-2,-2,-2,-5
1501936021883880,0,-6,4,70,19,4,0,0
1501936021884852,-4,-4,-27,-55,0,-8,-4,-4
1501936021884852,-2,-1,8,-59,-4,5,0,-2
1501936021885830,1,2,10,44,-3,-5,-2,-2
1501936021885830,1,0,-5,-103,-27,-1,2,0
1501936021886850,0,-3,0,-58,-14,-5,0,0
1501936021886850,6,9,9,-30,22,9,0,2
1501936021897891,-2,-3,-17,33,35,8,5,4
1501936021897891,4,15,48,-11,-26,-8,-1,0
1501936021906900,4,4,-7,100,31,11,2,2
1501936021906900,-6,-14,-45,18,-40,-15,-5,-5
1501936021912876,-5,-6,-32,-17,-8,-5,-4,-3
1501936021912876,-1,-4,-8,55,11,0,1,-1
1501936021926877,-1,5,18,10,-8,3,2,1
1501936021926877,1,0,-9,-28,15,3,0,1
1501936021936872,-2,-3,11,127,17,-6,1,0
1501936021936872,-5,-11,-47,-63,10,5,-5,-4
1501936021950839,-4,-1,39,29,8,-6,-3,-4
1501936021950839,-4,-7,-8,54,-10,-14,-7,-5
1501936021957879,2,8,24,-64,-11,7,2,2
1501936021957879,7,8,-21,-36,48,19,7,4
1501936021971902,-6,-10,6,66,4,-7,-2,-1
1501936021971902,1,5,33,57,5,-6,-2,-1
1501936022012838,-3,1,12,8,-15,-3,3,4
1501936022012838,-1,-3,1,8,-13,-3,-2,0
1501936022013873,-6,-11,-12,8,-30,-8,-4,-2
1501936022013873,-2,-4,-21,-7,3,1,0,-4
1501936022014877,5,5,3,18,12,7,3,3
1501936022014877,-2,-2,18,94,27,3,-2,-3
1501936022017900,1,0,-34,-83,-63,-10,0,3
1501936022017900,0,5,28,71,3,-1,1,-1
1501936022024901,-3,-11,-48,6,-15,-7,-5,-4
1501936022024901,-1,-4,-39,-75,-17,-4,-3,-1
1501936022032874,2,5,18,69,22,7,0,1
1501936022032874,-2,-2,-2,31,2,-4,-4,-2
1501936022039860,0,-1,-14,-17,26,6,3,1
1501936022039860,-4,-2,8,30,-20,-7,1,1
1501936022054858,3,6,11,-15,10,9,5,3
1501936022054858,1,3,13,21,-14,2,0,3
1501936022061867,-5,-5,-6,-61,-17,-10,-4,-4
1501936022061867,3,0,-5,13,-7,-4,1,0
1501936022085880,-1,-3,-4,79,28,5,0,-4
1501936022085880,2,3,10,21,8,2,0,0
1501936022087847,0,-1,2,68,-15,-6,0,1
1501936022087847,-4,-1,-25,-78,-2,4,-2,-3
1501936022099893,-4,-5,0,-61,-6,-2,-3,-3
1501936022099893,1,5,25,69,10,-2,-3,-1
1501936022108846,-3,-5,-13,86,-8,2,-2,-3
1501936022108846,4,8,19,19,6,0,1,3
1501936022123860,3,3,1,11,28,9,-1,-3
1501936022123860,-3,-5,-8,53,9,-2,2,1
1501936022124855,2,8,52,-59,-34,-1,-1,1
1501936022124855,-1,2,20,14,21,2,-1,0
1501936022145890,-1,-5,-18,-55,0,0,-4,-5
1501936022145890,-4,-4,-5,-21,-28,-8,-2,-1
1501936022147881,3,6,22,4,22,3,1,0
1501936022147881,2,2,-1,-5,6,7,4,2
1501936022159899,-3,0,4,-22,-16,-6,-1,-3
1501936022159899,-5,-6,-20,-123,-20,-10,-4,-3
1501936022166855,0,1,3,-1,11,2,2,0
1501936022166855,2,1,-7,0,-21,-2,-3,-2
1501936022183868,-7,-15,-59,-72,-11,-12,-4,-1
1501936022183868,4,4,5,-54,15,5,1,-2
1501936022184857,-1,0,-12,-13,-3,3,1,-1
1501936022184857,-1,-1,0,-4,-2,-1,-1,-2
1501936022205853,9,14,34,71,43,16,3,0
1501936022205853,-3,-4,-5,65,7,-1,-4,-2
1501936022207852,6,8,17,46,34,5,2,2
1501936022207852,-2,-1,4,-77,-47,-14,-3,-3
1501936022219883,-1,0,-9,0,-1,-2,0,1
1501936022219883,1,-1,-12,21,27,6,-2,-2
1501936022226916,-9,-12,13,-53,-7,-5,-4,-4
1501936022226916,3,3,15,-2,12,3,3,4
1501936022243869,-3,2,21,-21,-18,-8,-2,-1
1501936022243869,-4,-4,-17,44,0,-2,-1,-3
1501936022244855,0,1,3,29,8,3,-1,-1
1501936022244855,-4,-8,-7,-75,-10,-3,-3,-4
1501936022265858,-1,0,-1,-3,-9,-4,0,0
1501936022265858,4,7,32,-28,11,10,3,3
1501936022267856,-4,-4,8,38,-11,-7,-3,-2
1501936022267856,-1,-1,-19,92,26,1,0,-3
1501936022279855,1,7,35,86,11,2,0,-1
1501936022279855,-5,-5,2,1,-2,-1,1,-1
1501936022286920,3,1,-5,6,10,5,-2,-2
1501936022286920,-7,-6,-7,127,7,-5,-5,-4
1501936022303875,-2,-5,2,-36,12,-1,2,1
1501936022303875,3,0,-16,75,-18,1,-2,-1
1501936022304858,-4,-7,-20,-23,1,-8,-3,-3
1501936022304858,3,4,25,9,11,8,2,1
1501936022325898,-1,-1,-24,-30,-2,-2,-4,-3
1501936022325898,-2,-3,-6,-32,-41,-7,-2,1
1501936022327892,0,1,-18,-103,-6,0,-1,-1
1501936022327892,-5,-7,10,-30,-11,-6,-2,-4
1501936022339867,-1,-5,-1,91,-4,0,4,0
1501936022339867,1,1,10,4,1,-1,-1,-1
1501936022346907,-2,-4,-36,49,-7,-4,-3,-1
1501936022346907,1,-2,-10,-18,-8,-2,-2,0
1501936022363861,-4,-3,5,-63,-16,-8,-3,1
1501936022363861,2,0,-8,-69,11,5,1,-2
1501936022364861,-1,1,19,12,6,3,0,-2
1501936022364861,-1,-5,-25,-77,-18,-5,-4,0
1501936022385903,-3,-1,16,49,1,-2,2,3
1501936022385903,2,2,-2,-86,15,5,1,0
1501936022387871,-6,-9,12,99,-4,-8,-6,-3
1501936022387871,-4,-4,-29,-70,5,-1,-2,-2
1501936022399902,-1,0,8,120,-1,-4,-2,1
1501936022399902,-4,-2,-15,-7,15,3,-1,-4
1501936022406923,-1,-2,-13,-70,-7,0,-1,-1
1501936022406923,4,6,23,57,13,9,4,1
1501936022423875,-3,-9,-26,-61,-24,-10,-5,-4
1501936022423875,-4,-1,16,13,-3,-2,-3,-3
1501936022424873,-3,-3,-25,5,8,1,-1,-2
1501936022424873,0,2,17,40,6,4,2,0
1501936022446941,10,6,-12,-94,-8,4,3,0
1501936022446941,-11,-10,-15,51,-5,-11,-7,-3
1501936022447867,-2,1,15,67,14,2,0,-1
1501936022447867,0,1,4,-66,-19,-3,0,-1
1501936022459923,-3,-4,0,95,4,3,-2,-2
1501936022459923,-2,-5,-6,-21,-11,-12,-2,0
1501936022468881,3,4,11,45,7,3,1,0
1501936022468881,-3,-4,-12,101,24,0,-1,-2
1501936022483881,-2,-2,5,-58,21,4,-4,-4
1501936022483881,7,9,11,38,10,6,3,3
1501936022484870,-3,0,15,41,-11,-6,-1,1
1501936022484870,-1,-8,-23,-3,-8,-5,-2,-2
1501936022505870,-2,-1,2,21,5,1,-5,-5
1501936022505870,0,-2,-5,70,15,6,2,0
1501936022507902,3,5,22,-35,-26,-3,0,0
1501936022507902,-6,-5,6,36,18,-5,-2,-1
1501936022519940,-2,1,14,24,7,-6,2,0
1501936022519940,-1,1,16,26,-9,0,0,-3
1501936022528884,2,-1,-18,18,-8,0,0,1
1501936022528884,-2,-3,-11,-54,-28,-2,-3,2
1501936022543889,-2,2,7,-33,-13,-5,-2,-2
1501936022543889,-5,-7,-12,-27,-19,-9,-2,-1
1501936022544872,1,0,-7,-84,5,5,-3,-4
1501936022544872,1,2,19,-68,-5,0,-1,0
1501936022565894,-2,-2,-6,5,-11,-7,-3,-2
1501936022565894,0,-8,-37,-77,-14,-4,-3,-2
1501936022567884,0,-3,-11,-47,13,3,0,1
1501936022567884,0,3,19,114,21,1,0,-2
1501936022579939,-1,0,11,6,-19,-2,1,-1
1501936022579939,0,-1,13,-33,-4,5,1,-2
1501936022588878,-5,-5,1,93,25,-4,-4,-4
1501936022588878,2,1,-32,-72,-14,-4,-3,-4
1501936022603906,-1,-2,-4,-6,10,1,1,0
1501936022603906,1,3,1,-9,-17,-2,1,1
1501936022604884,0,-4,-12,-37,-11,0,-1,1
1501936022604884,4,7,17,-55,9,7,2,0
1501936022625919,-3,-6,-23,30,-1,1,-3,-3
1501936022625919,-1,-1,0,9,8,-2,-1,1
1501936022627876,2,2,-10,-128,-33,-5,-1,-2
1501936022627876,0,2,11,70,2,-1,0,-2
1501936022639925,-1,-2,-4,-55,-9,-2,-2,-1
1501936022639925,-2,-5,6,-4,7,-2,-4,-2
1501936022648892,-5,-8,-19,17,7,0,1,-3
1501936022648892,-1,0,18,46,11,-2,-1,1
1501936022663898,4,9,14,-100,-5,7,2,0
1501936022663898,-5,-8,-13,81,-8,-14,-4,-6
1501936022664879,1,6,14,-38,-10,6,1,3
1501936022664879,-7,-9,-23,-48,1,-2,-2,-3
1501936022685922,2,3,-1,-2,-14,1,2,2
1501936022685922,0,1,-17,-24,-4,-1,0,-2
1501936022687889,-2,-2,19,-88,-45,-10,-4,-2
1501936022687889,0,-1,-15,26,-8,-3,0,0
1501936022699920,-2,-3,-8,43,9,0,-2,-1
1501936022699920,-1,-1,9,-41,-8,3,1,1
1501936022708894,-2,-4,-2,64,-4,-8,-2,-3
1501936022708894,1,2,7,-14,1,5,0,-1
1501936022723881,1,-2,-28,-4,10,3,1,-1
1501936022723881,-4,-3,19,-23,-3,-5,-3,0
1501936022724892,4,7,16,-33,14,7,1,0
1501936022724892,-6,-12,8,94,15,-6,-3,-5
1501936022745882,5,2,13,5,-9,-7,-1,3
1501936022745882,-4,0,-11,-36,-8,-1,-2,-2
1501936022747883,0,4,-18,-46,11,6,4,0
1501936022747883,-1,-3,-14,-8,11,-1,-4,-2
1501936022759935,-3,-3,13,36,-20,-5,2,1
1501936022759935,-3,-4,5,-48,12,0,-6,-5
1501936022768898,-1,-3,1,110,16,-5,-1,-1
1501936022768898,-1,4,8,-72,-56,-3,1,-1
1501936022783915,3,1,3,9,16,-1,-2,1
1501936022783915,1,0,-7,41,-3,0,1,0
1501936022784888,-5,-7,2,2,0,-2,-7,-5
1501936022784888,1,2,-1,73,5,1,0,1
1501936022805926,-6,-1,10,12,5,3,-1,-4
1501936022805926,3,5,-2,-42,6,1,2,2
1501936022807887,1,1,0,-47,0,0,1,0
1501936022807887,-6,-8,-16,18,-6,-7,-4,-5
1501936022819937,-1,4,13,-90,9,6,3,0
1501936022819937,2,0,8,48,-5,-4,0,0
1501936022828905,-4,-11,-72,51,-13,-3,-2,-2
1501936022828905,4,4,5,-67,19,5,-1,-1
1501936022843901,-4,-4,1,124,-11,-9,-4,-2
1501936022843901,3,2,0,-93,1,4,2,-1
1501936022844891,-1,-1,1,-16,-7,-2,-3,-1
1501936022844891,-1,0,20,-50,-2,-1,0,-2
1501936022865910,-2,-4,-13,1,0,-7,-4,-1
1501936022865910,-7,-11,-58,-13,-14,-4,-3,-2
1501936022867892,2,4,14,1,5,1,2,-1
1501936022867892,1,2,-13,-28,4,4,2,5
1501936022888913,-3,2,11,-87,-8,2,0,-4
1501936022888913,0,-2,-9,-1,0,-4,-3,-3
1501936022889890,-3,-1,3,68,24,4,-1,-1
1501936022889890,1,-2,-8,-13,-6,-3,-1,3
1501936022903902,0,-1,5,30,1,0,0,1
1501936022903902,3,5,15,-91,7,5,0,0
1501936022904891,-3,-6,-35,82,-38,-13,-2,0
1501936022904891,-2,-3,12,-17,0,2,0,-1
1501936022925958,-2,-6,-13,80,8,3,-1,-3
1501936022925958,1,6,2,-5,-17,-5,0,3
1501936022927893,0,3,25,38,31,5,2,1
1501936022927893,-5,-6,-9,81,-3,-7,-3,-5
1501936022947935,-7,-11,-44,-37,2,-7,-7,-6
1501936022947935,4,5,7,-23,-25,0,1,2
1501936022948894,0,6,32,31,13,4,5,2
1501936022948894,2,4,11,16,2,1,0,0
1501936022962936,0,-1,-5,-17,4,-2,-1,-2
1501936022962936,0,0,19,50,23,6,1,3
1501936022963896,-3,-2,0,4,1,-3,-2,-7
1501936022963896,0,1,8,-33,-4,0,0,-3
1501936022992938,1,4,14,123,30,7,0,0
1501936022992938,-6,-8,-19,-63,-55,-12,-3,0
1501936022993930,2,3,13,-1,-5,-2,-3,-1
1501936022993930,0,2,7,3,5,2,0,0
1501936023007939,5,5,10,59,13,3,1,0
1501936023007939,-2,-2,12,2,17,0,-1,-2
1501936023008899,-1,-1,9,7,21,1,1,-1
1501936023008899,-1,-3,-19,-34,-23,-4,-2,0
1501936023029938,-1,1,6,13,4,-1,3,1
1501936023029938,-2,-3,9,3,2,4,-1,-4
1501936023030909,0,-1,-5,24,-1,-1,-2,1
1501936023030909,-1,2,-11,-65,8,2,0,1
1501936023060950,3,1,-17,84,26,1,3,4
1501936023060950,-4,-3,1,-20,-52,-5,-2,-3
1501936023061903,-2,0,17,-14,-17,-9,-3,-2
1501936023061903,0,1,1,26,10,3,-2,-2
1501936023067942,0,-1,-7,-128,-30,-1,-1,2
1501936023067942,1,0,-5,80,32,1,0,-2
1501936023068901,-2,-5,-33,-78,-11,-1,-4,-4
1501936023068901,0,3,18,58,-15,-2,2,2
1501936023089942,-2,-1,4,-65,2,-3,-4,-2
1501936023089942,0,2,7,53,17,2,2,0
1501936023090902,0,0,1,-28,0,-2,-2,1
1501936023090902,1,0,11,78,30,4,2,1
1501936023112903,-4,-6,-9,-82,-51,-13,-5,-3
1501936023112903,0,0,-1,71,3,4,1,1
1501936023113936,2,1,6,-41,2,6,1,1
1501936023113936,-5,-6,-12,104,9,-5,-1,-2
1501936023127947,-1,-2,14,-99,-21,4,1,0
1501936023127947,3,8,34,96,33,4,-3,-2
1501936023128906,-6,-9,-1,41,-31,-8,-1,-3
1501936023128906,0,-1,-16,-74,-29,-11,-4,-2
1501936023149943,0,1,7,52,15,3,-1,-2
1501936023149943,1,-1,-2,70,22,5,1,0
1501936023150908,-6,-3,11,30,-18,-13,-2,-2
1501936023150908,-3,-3,-6,-102,-25,-3,-1,-1
1501936023172948,-2,0,12,56,6,-1,0,-1
1501936023172948,-2,-4,1,48,11,0,-4,-3
1501936023173908,2,2,0,13,9,2,0,0
1501936023173908,-4,-5,-10,-5,1,-4,-5,-3
1501936023187949,2,3,-2,23,8,3,1,2
1501936023187949,-3,-1,-1,38,-6,-1,0,-2
1501936023188908,0,-3,0,-22,-3,2,-2,-2
1501936023188908,1,2,24,88,37,1,-1,0
1501936023209973,0,-3,-24,-79,-40,-1,-1,-1
1501936023209973,-4,-4,14,-53,3,-2,0,0
1501936023210917,-2,2,-3,14,-7,-2,-2,0
1501936023210917,3,3,-8,-53,-6,5,4,8
1501936023232918,1,4,13,51,36,3,-4,-7
1501936023232918,-3,-5,-7,-84,-11,-7,-1,-1
1501936023233910,-1,-5,-21,-47,-19,-1,-1,0
1501936023233910,4,6,29,5,8,5,1,0
1501936023247921,-4,-3,6,9,6,-7,-4,-1
1501936023247921,0,-1,-23,-32,-9,-2,-1,-1
1501936023248913,-1,-1,-2,-10,12,4,2,0
1501936023248913,0,1,6,7,-12,-4,-1,-2
1501936023269941,-5,-8,1,69,-2,-4,-1,0
1501936023269941,0,0,-13,19,8,0,-4,-2
1501936023270915,2,3,9,21,-11,0,-1,1
1501936023270915,-1,-1,-5,-79,-27,-3,-4,-5
1501936023292946,1,0,-19,-47,-9,-2,1,2
1501936023292946,-3,-3,2,-21,-9,-4,-3,0
1501936023293913,-1,2,18,32,16,5,1,-1
1501936023293913,-3,-7,-44,-62,-25,-4,-2,-2
1501936023307923,-3,-1,-5,3,-2,-5,-3,-2
1501936023307923,4,6,11,-76,6,4,3,1
1501936023308915,-3,-2,-16,61,49,-5,-4,-4
1501936023308915,0,1,6,-58,-20,2,3,1
1501936023329958,0,-2,0,14,-3,-2,-2,-1
1501936023329958,0,2,-3,-49,-17,-2,1,0
1501936023337959,0,-4,-6,53,28,4,-2,-3
1501936023337959,-2,1,12,118,6,0,1,1
1501936023352959,-4,-5,3,69,10,-4,-4,-1
1501936023352959,-3,-3,-24,-103,-24,-8,-3,0
1501936023353917,0,0,-1,-27,3,1,1,1
1501936023353917,-3,-1,-3,14,8,4,-4,-2
1501936023367965,2,0,-4,36,0,2,0,1
1501936023367965,-1,1,13,12,9,0,2,-1
1501936023368919,1,1,13,-39,-9,-1,-2,-1
1501936023368919,-3,-6,-33,-16,6,-4,-1,-3
1501936023389931,-5,-6,-6,75,-9,-5,-4,-4
1501936023389931,1,-1,6,43,11,0,-1,-1
1501936023390932,1,3,-6,-14,-13,-1,0,-1
1501936023390932,-2,-6,-33,-12,-1,-6,-1,1
1501936023412961,-3,-2,-4,-33,-1,2,0,-1
1501936023412961,-1,0,13,113,9,3,-1,-2
1501936023413921,-1,-6,-39,-66,-22,-3,0,-1
1501936023413921,0,0,17,46,19,1,0,0
1501936023427963,-2,3,19,28,2,-1,-1,0
1501936023427963,1,0,-12,-12,-25,1,3,0
1501936023428925,0,-3,-22,40,9,-4,-1,0
1501936023428925,2,1,12,-9,-2,-4,-2,1
1501936023449956,-2,2,1,-128,-8,0,2,-1
1501936023449956,-2,-5,-28,-42,6,5,-2,-1
1501936023450923,1,5,30,87,-3,-2,0,-1
1501936023450923,-1,-5,-3,21,-4,-3,-2,-3
1501936023472960,1,1,6,-31,0,-1,-5,-1
1501936023472960,-1,-2,-12,3,4,-1,1,-2
1501936023473953,-1,-1,19,-55,2,4,-1,-1
1501936023473953,-2,-2,-11,37,6,-2,-2,-2
1501936023487933,-2,-5,-19,-31,-3,-2,0,-1
1501936023487933,2,4,22,87,25,3,-1,0
1501936023488925,-9,-13,-52,-76,-43,-16,-4,-4
1501936023488925,0,0,20,44,3,4,0,1
1501936023509966,0,0,-9,-33,-10,-2,0,-3
1501936023509966,-3,-5,-4,56,-2,-2,-3,-2
1501936023510941,3,6,14,49,20,6,3,4
1501936023510941,-2,-5,-20,81,0,-3,-5,-4
1501936023532964,-2,-1,22,13,-25,-7,0,2
1501936023532964,-1,-3,-21,-24,-4,0,-2,-2
1501936023533932,1,3,24,-21,16,4,-1,-1
1501936023533932,-2,-2,-1,-22,0,-2,-1,-2
1501936023547929,1,-2,-13,-63,1,1,-1,0
1501936023547929,0,2,6,2,6,-2,-2,-1
1501936023548928,-4,-5,12,62,3,-3,-1,-3
1501936023548928,-1,-1,-9,-114,-11,3,3,0
1501936023569930,1,0,-6,3,9,0,2,0
1501936023569930,-2,0,13,-68,-5,-5,-2,-2
1501936023570931,-2,-2,3,-68,-9,-6,-2,-2
1501936023570931,-3,0,5,-45,5,5,1,-1
1501936023592933,-1,-4,-18,37,-1,-2,-1,-2
1501936023592933,-1,-4,-14,-22,4,-4,-7,-1
1501936023593932,1,1,18,12,4,5,1,-2
1501936023593932,4,6,-4,87,16,8,3,1
1501936023607931,-7,-8,-13,-85,-31,-10,-4,-4
1501936023607931,-3,-6,-37,-9,-16,-6,0,1
1501936023608931,-3,-1,-8,3,-2,-6,-4,-1
1501936023608931,-1,4,17,26,9,2,-1,-1
1501936023630006,2,-3,-34,-21,4,8,1,0
1501936023630006,1,0,5,-28,6,0,-1,-2
1501936023630952,-3,-5,15,-12,-26,-9,-1,0
1501936023630952,1,2,6,115,18,0,0,-2
1501936023652978,-1,1,26,-25,-5,-2,-3,0
1501936023652978,0,3,29,111,9,3,3,0
1501936023653935,0,1,-1,-1,-3,1,-2,-1
1501936023653935,1,-1,0,-97,-14,0,0,-2
1501936023667977,2,3,20,21,10,-4,-1,-1
1501936023667977,-2,-2,-9,-8,1,0,0,-1
1501936023668936,0,-1,-16,3,8,3,0,1
1501936023668936,-3,-4,-18,16,-13,-4,-2,-3
1501936023689988,1,2,30,127,11,0,-2,0
1501936023689988,0,1,2,-33,-9,0,3,2
1501936023690959,-2,-7,-31,3,-9,-4,-4,-4
1501936023690959,-2,-3,10,-40,-6,-6,-3,-1
1501936023712971,-1,-1,-22,-11,4,6,0,1
1501936023712971,-2,-3,-6,18,-6,-2,-2,-1
1501936023713939,1,2,-5,-20,12,3,1,1
1501936023713939,-2,-2,5,-23,-2,-3,-1,-2
1501936023727982,2,2,-4,26,10,1,-1,-1
1501936023727982,0,-1,-5,33,2,0,-1,-2
1501936023728939,-1,-1,-8,26,7,1,-1,-3
1501936023728939,-2,0,5,-38,4,-4,-3,-3
1501936023749985,3,6,31,-1,13,3,2,1
1501936023749985,-3,-1,-23,16,2,-1,-3,-2
1501936023750952,0,-1,-3,-47,-4,2,2,0
1501936023750952,1,1,8,38,-8,-2,-2,-1
1501936023773011,-7,-11,-37,-23,-19,-7,-5,-4
1501936023773011,1,4,13,17,11,5,2,0
1501936023773943,-3,0,22,-57,-42,-8,-3,-1
1501936023773943,-3,-6,0,40,-4,-6,-3,-4
1501936023787980,0,2,5,-27,13,3,0,-1
1501936023787980,0,-3,0,83,-2,0,0,-1
1501936023788952,-4,-3,-11,-7,-16,-6,-3,-2
1501936023788952,0,-2,-14,9,1,2,0,-1
1501936023809990,-2,1,7,-17,-16,-3,2,-1
1501936023809990,-2,-4,8,-10,6,-2,-3,0
1501936023810977,0,1,-6,65,20,6,0,0
1501936023810977,2,2,3,-3,3,-1,0,0
1501936023832955,1,1,2,21,5,1,-1,-1
1501936023832955,3,4,5,-89,7,-2,0,-1
1501936023833956,-3,-9,-28,-52,-5,-4,-2,-2
1501936023833956,-3,0,20,84,6,-2,-1,-1
1501936023847990,1,1,12,45,4,2,1,0
1501936023847990,-2,-1,23,1,-21,-8,-1,1
1501936023848947,-2,-8,-29,94,34,2,-3,-4
1501936023848947,0,2,-20,36,-16,-6,-1,2
1501936023869979,-3,-5,-13,79,6,-2,0,-3
1501936023869979,-1,1,2,27,-1,-1,-2,1
1501936023870947,0,4,27,10,-9,0,-1,-3
1501936023870947,1,0,-14,-101,-10,3,0,2
1501936023892990,1,0,-3,-19,3,-2,-2,-1
1501936023892990,-2,-1,1,22,-3,-5,-3,-5
1501936023893950,1,0,14,-4,4,0,-2,0
1501936023893950,-1,-2,11,-5,0,-1,1,-2
1501936023908019,3,5,11,-7,-4,1,2,1
1501936023908019,-2,-1,7,29,10,3,-1,-1
1501936023908950,1,2,13,18,-10,3,-1,-1
1501936023908950,1,-1,1,-26,-1,0,-1,1
1501936023929952,-1,-2,-6,-18,3,-1,-1,0
1501936023929952,-2,-3,-6,-33,0,-5,-4,-3
1501936023930951,0,7,22,-15,7,3,2,2
1501936023930951,-2,-4,-23,-20,-1,0,-2,-3
1501936023953014,3,4,18,85,16,8,0,0
1501936023953014,-5,-7,-16,-39,-43,-12,-3,-2
1501936023953951,0,1,-6,17,-2,-6,0,2
1501936023953951,1,5,21,-37,0,5,2,-1
1501936023967002,-4,-5,-4,15,1,-6,-6,-4
1501936023967002,0,-4,-22,-110,-17,-1,-2,-2
1501936023975020,1,2,5,25,4,0,0,1
1501936023975020,-3,-6,-8,47,11,1,-1,-2
1501936023989995,1,1,-8,-55,-17,-3,0,0
1501936023989995,-4,-2,-2,15,10,1,-1,-5
1501936023990972,0,-3,-16,-36,1,-2,0,-2
1501936023990972,-3,-3,5,2,-2,0,-2,0
1501936024012992,1,2,1,-20,-6,2,1,-2
1501936024012992,0,-2,-4,-19,-6,-6,1,3
1501936024013969,-1,-2,-3,92,15,4,0,-3
1501936024013969,-1,2,9,-43,-9,-2,-2,-3
1501936024027014,-2,-4,-7,47,2,-6,-4,-1
1501936024027014,1,5,18,14,-21,1,0,1
1501936024034999,0,-1,3,-30,-8,-2,0,0
1501936024034999,2,1,8,4,8,2,0,1
1501936024049998,-3,-4,12,-39,-10,-3,-2,-3
1501936024049998,-3,-10,-32,-62,10,-5,-4,-5
1501936024050988,-2,-5,-1,5,2,-1,-2,-3
1501936024050988,-2,-3,-26,-1,9,6,-1,-1
1501936024073002,0,3,7,-69,-13,-3,-1,2
1501936024073002,2,3,20,127,17,5,2,3
1501936024073959,-2,-4,-7,41,-9,-2,-2,-3
1501936024073959,-3,-4,-9,42,-6,-6,0,-2
1501936024087026,-4,-4,1,14,7,-3,-4,-3
1501936024087026,2,3,-1,-35,-3,6,1,1
1501936024095028,2,3,6,12,5,2,0,0
1501936024095028,0,0,18,106,17,-1,-4,-3
1501936024110004,-3,-4,-16,-63,-29,-3,0,-1
1501936024110004,5,2,-7,-74,8,3,1,0
1501936024110991,0,6,22,-31,-6,4,1,-2
1501936024110991,-6,-10,-6,-97,-12,-15,-6,-4
1501936024133001,-3,-1,-2,68,11,-1,0,-1
1501936024133001,-3,-4,-15,-13,4,2,-3,-4
1501936024133001,1,0,5,-27,-4,-1,1,4
1501936024133001,-1,-3,0,-23,-5,2,1,0
1501936024147032,-3,-2,-7,-47,-13,-3,-3,-2
1501936024147032,-2,1,25,127,7,-4,1,1
1501936024155012,0,-1,-2,64,0,-2,-3,-2
1501936024155012,-4,-2,-23,-88,-37,-8,-4,0
1501936024170005,2,0,5,85,26,4,1,1
1501936024170005,-2,2,6,59,-2,5,2,0
1501936024170976,0,0,-5,-75,-6,0,-2,0
1501936024170976,1,3,3,22,16,4,0,0
1501936024193008,-2,-4,7,-16,-5,-4,-2,0
1501936024193008,-1,-1,-7,-1,0,-1,-1,-2
1501936024193008,-3,-4,-3,-72,-23,-8,-1,0
1501936024193008,2,-1,-1,25,11,6,-1,2
1501936024207029,-3,0,3,-18,3,4,1,-4
1501936024207029,-1,-1,-4,13,-9,-3,-2,0
1501936024215036,-1,-1,-4,-33,-1,-2,-1,0
1501936024215036,0,-3,-28,21,2,-1,-1,-2
1501936024229992,4,2,-5,-11,-6,-5,-2,1
1501936024229992,-1,-1,8,51,10,-4,-2,-2
1501936024230975,1,1,4,70,27,10,2,0
1501936024230975,-5,-3,14,-11,-34,-11,-5,0
1501936024253002,-1,-1,-24,-36,0,0,2,3
1501936024253002,0,-3,10,16,-1,-2,-3,-5
1501936024253002,-1,1,4,29,4,-2,-3,-2
1501936024253002,1,-1,-10,-4,3,0,0,0
1501936024266975,1,1,8,96,16,3,-1,-1
1501936024266975,-4,1,1,-128,-44,-6,1,0
1501936024274982,0,0,2,-16,-6,-5,-2,0
1501936024274982,-4,-8,-30,-3,9,1,-2,-4
1501936024289980,0,-1,7,-16,-1,0,-1,-1
1501936024289980,1,-1,-11,14,13,0,-2,1
1501936024290978,-3,-3,-3,22,1,-5,-2,0
1501936024290978,1,4,29,-5,-3,3,4,-1
1501936024313006,-1,-3,-4,35,14,3,-3,-1
1501936024313006,-2,-2,-5,36,6,3,0,-2
1501936024313006,-1,-2,-21,-22,-11,-2,0,0
1501936024313006,0,1,2,-6,-11,-3,-3,1
1501936024336042,-2,1,10,36,-3,-3,0,-1
1501936024336042,0,-3,-12,-47,5,-4,-4,-1
1501936024336974,-4,-4,-18,-66,-10,-6,-2,-2
1501936024336974,3,-2,-2,53,-2,-1,0,0
1501936024349978,-1,3,11,-14,18,3,0,2
1501936024349978,-4,-3,8,-52,-24,-6,-3,-2
1501936024350982,2,3,5,-12,13,6,2,1
1501936024350982,0,1,-1,-81,0,1,-1,-2
1501936024373016,0,-4,-36,-50,-6,-3,-1,-1
1501936024373016,-3,0,-7,18,18,2,-1,1
1501936024373016,-4,-5,-7,-14,-1,-3,-2,-3
1501936024373016,0,2,19,62,12,0,1,-1
1501936024396026,-1,-1,1,-26,-13,1,0,-3
1501936024396026,-2,-3,-8,-59,-6,-1,-1,-1
1501936024396979,3,4,16,95,7,2,-2,0
1501936024396979,-3,-5,-5,-27,-4,-6,-1,-1
1501936024410020,0,-3,-15,-30,-8,-1,0,-1
1501936024410020,0,-3,-4,-27,3,1,-1,1
1501936024411016,1,3,33,78,1,1,0,1
1501936024411016,-3,-12,-53,-25,-10,-7,-3,-2
1501936024433017,2,3,3,88,29,7,0,0
1501936024433017,-4,-3,-11,-59,-19,-7,0,-1
1501936024433017,0,2,9,-16,-9,1,0,0
1501936024433017,-1,-2,-6,31,6,-1,-3,0
1501936024456023,-3,-3,-10,-83,-16,-1,-2,-5
1501936024456023,1,1,-10,80,6,-2,-2,1
1501936024456981,-1,1,-1,-8,-1,-2,-1,0
1501936024456981,-1,4,14,-68,-10,3,0,-1
1501936024470024,-4,-7,-24,-24,-10,-9,-3,0
1501936024470024,-2,1,1,55,6,2,1,0
1501936024470983,-3,-1,-4,-28,0,0,0,-3
1501936024470983,0,0,8,20,18,4,-1,0
1501936024493024,1,2,21,66,7,1,-3,0
1501936024493024,-4,-4,1,27,-1,-3,-1,-1
1501936024493983,-4,-5,-18,-64,-13,-3,-2,-3
1501936024493983,3,6,31,34,14,4,1,3
1501936024516002,-1,0,13,-8,-23,-5,-3,-1
1501936024516002,2,1,-5,12,20,6,-1,-2
1501936024516984,1,-1,11,17,-19,-3,-3,-1
1501936024516984,-6,-6,-9,-46,-23,-11,-3,-3
1501936024530051,-1,-2,-19,-21,4,1,0,-1
1501936024530051,1,3,19,43,2,1,-3,-1
1501936024530996,-3,-6,-13,1,-1,-2,-1,0
1501936024530996,2,3,8,8,4,2,0,-1
1501936024553035,-3,-5,16,102,-3,-7,-1,0
1501936024553035,-3,-4,-7,-10,-14,-7,-2,-3
1501936024553035,-2,-2,-13,-38,0,-1,-2,-3
1501936024553035,1,4,16,48,2,-1,0,1
1501936024576033,-2,-5,-29,-66,-6,0,-3,-2
1501936024576033,3,3,7,70,3,-1,-1,0
1501936024576991,-4,-1,14,-77,-6,-5,-1,-1
1501936024576991,-4,-7,-43,-25,-9,-1,-3,-3
1501936024590030,1,3,2,-51,-5,0,-1,-1
1501936024590030,1,2,5,-16,-10,-1,-2,0
1501936024591010,-1,-1,-23,45,9,-3,-1,-1
1501936024591010,-2,-6,-20,-21,1,1,-3,-2
1501936024613031,-1,2,11,4,13,3,1,1
1501936024613031,-2,-3,-18,-18,-14,-4,-2,-2
1501936024614000,0,-1,-2,104,32,7,-1,0
1501936024614000,0,-2,-4,-81,-29,-7,-2,-2
1501936024636035,-2,1,17,72,-8,-3,-3,-5
1501936024636035,1,1,-2,-26,8,2,-1,-2
1501936024636992,1,3,8,-36,-8,-2,-1,3
1501936024636992,-2,-3,-5,-14,6,1,-1,-2
1501936024650030,-1,1,10,2,-2,0,2,1
1501936024650030,1,-1,2,-41,0,-3,1,-1
1501936024650991,-1,0,9,-60,-14,4,0,0
1501936024650991,3,7,12,30,4,0,0,2
1501936024673075,-3,-5,-18,-43,-7,-6,-3,-1
1501936024673075,1,1,13,56,15,5,1,1
1501936024674003,0,-3,-25,-29,-1,-4,-4,-2
1501936024674003,1,2,21,-31,-18,-1,3,2
1501936024696035,-1,-1,16,-6,-10,-3,-1,1
1501936024696035,-3,-1,4,-5,9,4,-1,-4
1501936024696994,-2,-1,-20,86,15,-2,-3,-4
1501936024696994,-2,-3,-11,-13,-16,-5,-1,-1
1501936024710036,0,3,9,53,7,1,0,0
1501936024710036,1,1,3,-60,-8,-2,0,0
1501936024711007,1,0,11,-7,-11,1,0,1
1501936024711007,-1,0,5,14,19,3,-1,-1
1501936024733036,-1,-4,1,11,-3,-4,-2,0
1501936024733036,-4,-7,-35,41,20,4,-2,-2
1501936024734000,0,2,3,-73,-11,-4,-2,-2
1501936024734000,1,2,11,53,1,-1,1,1
1501936024756039,-2,-2,-18,-98,-9,-1,-4,-1
1501936024756039,1,2,15,-9,3,3,-1,-1
1501936024756998,1,1,10,26,2,-4,0,1
1501936024756998,-4,-11,-22,-12,0,0,-3,-5
1501936024770061,2,4,3,48,10,5,2,0
1501936024770061,-1,0,5,-76,-22,-5,0,0
1501936024771009,-1,-2,-7,-44,0,2,-1,-2
1501936024771009,3,7,25,44,21,4,1,2
1501936024793000,-1,-1,-1,88,0,-5,0,0
1501936024793000,-2,-4,-21,-8,-10,0,-3,1
1501936024793000,-1,-3,-4,7,1,-1,0,-3
1501936024793000,0,1,7,55,9,3,0,3
1501936024816041,1,1,-13,-36,17,5,-1,-1
1501936024816041,-4,-2,18,-1,-11,-9,-3,-1
1501936024817010,-4,-1,2,-31,-17,-6,0,2
1501936024817010,0,-2,-1,-7,1,0,-3,-4
1501936024830044,2,1,27,14,-2,1,0,1
1501936024830044,-1,-1,-1,60,18,-2,-4,-1
1501936024831014,-4,-5,-12,0,-15,0,-3,-2
1501936024831014,-3,-9,-27,31,-4,-4,-2,-2
1501936024853044,-2,1,8,-65,-25,-6,-5,-2
1501936024853044,3,0,9,-17,7,0,3,-1
1501936024853044,-2,-5,3,40,17,1,-3,-2
1501936024853044,1,5,16,54,-2,-4,-1,-1
1501936024876032,-2,-4,-2,3,19,5,0,-3
1501936024876032,0,1,7,49,-9,-2,-1,-1
1501936024876032,-1,-2,-7,-23,-1,1,0,-2
1501936024876032,-2,2,4,-23,-8,-4,-1,2
1501936024890006,-2,-5,-13,-3,-4,-3,-2,-2
1501936024890006,0,-2,3,42,10,3,1,0
1501936024891015,2,1,-3,43,-6,-3,-3,1
1501936024891015,3,6,23,71,17,6,1,-1
1501936024913053,-2,-4,-11,26,-3,-6,-3,-1
1501936024913053,-1,1,-8,-30,-9,-5,1,1
1501936024913053,-2,-5,-12,76,16,5,-1,-3
1501936024913053,-3,0,21,13,-3,-7,0,0
1501936024936042,-1,1,-6,-22,2,4,-1,-1
1501936024936042,-2,0,-4,38,2,-2,-2,-1
1501936024937023,1,1,3,63,-3,-1,1,1
1501936024937023,1,3,7,34,6,2,3,-2
1501936024950023,-3,-6,-16,2,0,0,-2,-1
1501936024950023,0,1,7,-8,-9,-3,-2,-1
1501936024958051,1,1,4,-63,-6,-2,-1,1
1501936024958051,-2,-6,-31,-22,-1,3,-2,-2
1501936024973057,-2,-2,0,73,7,-3,-1,-2
1501936024973057,1,1,6,-19,3,4,-1,0
1501936024973057,2,2,-8,66,12,-1,-1,-1
1501936024973057,-3,-8,-9,-11,0,2,2,1
1501936024996056,0,2,8,-3,-2,0,0,1
1501936024996056,-3,-4,-6,-60,-13,-3,0,0
1501936024997022,-1,0,3,-53,-20,-3,-1,-3
1501936024997022,-3,-1,-6,25,11,-1,-4,-2
1501936025009058,2,5,3,-105,-14,1,1,1
1501936025009058,-6,-12,-26,-5,-14,-6,-7,-5
1501936025018054,-2,1,7,-22,5,0,1,0
1501936025018054,1,2,-5,-43,-15,-3,-1,-1
1501936025033052,-2,0,15,-18,3,2,-2,-3
1501936025033052,0,1,-23,9,-8,-6,-1,0
1501936025033052,-4,-5,4,9,8,-2,-5,-3
1501936025033052,-1,-4,-14,31,-12,-5,-1,-2
1501936025056056,0,0,-9,-8,-2,3,0,0
1501936025056056,-2,2,36,65,-11,-1,1,-1
1501936025057017,-4,-8,-24,-87,-14,-5,0,0
1501936025057017,-4,-2,9,-70,12,0,-3,-4
1501936025070040,1,0,0,-19,-3,-3,0,-1
1501936025070040,1,1,10,5,-3,-1,-2,0
1501936025078064,-2,-2,-3,-38,-7,-1,-2,-3
1501936025078064,-1,-5,-21,31,12,-2,-3,-3
1501936025093087,1,0,-15,-50,-12,-3,2,1
1501936025093087,-6,-7,10,24,9,-3,-2,-3
1501936025093087,2,3,3,-2,1,4,0,-1
1501936025093087,3,2,4,-11,0,1,1,2
1501936025116051,-2,0,9,10,-2,-4,-3,0
1501936025116051,0,3,1,21,15,4,1,-5
1501936025117020,-4,-4,-6,43,-2,-6,-2,-1
1501936025117020,-3,-4,4,4,-18,-5,-1,1
1501936025129067,2,1,9,54,28,4,2,-1
1501936025129067,1,-1,-18,-68,-17,-2,-1,3
1501936025138067,0,0,3,-4,0,-2,-1,-2
1501936025138067,3,2,21,-21,2,5,0,0
1501936025153051,-1,-2,-14,-42,-18,-4,-2,-1
1501936025153051,-3,-4,-8,73,23,3,1,-1
1501936025153051,1,2,2,-9,-11,-1,0,0
1501936025153051,3,5,-10,-66,-9,4,1,1
1501936025176063,-3,-5,5,30,6,-3,-3,-2
1501936025176063,2,5,11,-36,-11,1,1,0
1501936025177033,-2,-5,-10,4,-11,-9,-2,-1
1501936025177033,-2,0,-11,-24,-7,-5,-4,-2
1501936025190030,-1,-1,-6,75,4,1,1,-1
1501936025190030,-4,-3,-4,-78,-10,-6,-5,-3
1501936025198072,1,4,1,-42,6,7,1,0
1501936025198072,-3,-8,-18,3,-9,-5,-4,-3
1501936025213094,0,1,5,18,0,1,1,-1
1501936025213094,2,1,6,108,29,3,1,-1
1501936025213094,-2,-1,10,50,-13,-8,-1,0
1501936025213094,-1,-1,3,13,-2,-2,0,-2
1501936025236036,-1,0,-4,-38,-4,-3,-1,2
1501936025236036,2,0,-1,-16,6,6,0,0
1501936025237025,-2,0,-2,-52,2,3,0,1
1501936025237025,-2,3,10,44,7,0,0,0
1501936025249068,0,2,14,67,3,-2,-1,-2
1501936025249068,-6,-8,-8,-49,-8,-9,-3,-3
1501936025258068,1,0,-3,0,-15,0,0,-1
1501936025258068,-2,-3,-3,5,1,1,1,-2
1501936025273035,-1,-4,-29,-91,-12,2,-1,-1
1501936025273035,1,3,6,-32,-6,0,-1,1
1501936025274028,-1,0,16,41,10,-2,-4,-3
1501936025274028,3,6,4,91,35,11,1,-1
1501936025296091,-7,-6,0,-66,-47,-14,0,0
1501936025296091,2,-1,-15,51,0,1,1,1
1501936025297034,-4,-2,0,-53,-15,-7,-3,-3
1501936025297034,-1,0,-2,-30,-25,1,-2,0
1501936025318073,-1,-2,-9,21,22,1,-3,-3
1501936025318073,-3,-3,5,22,-9,-8,1,0
1501936025319070,0,2,14,38,17,7,2,1
1501936025319070,-1,-4,0,-23,-5,-3,-1,-1
1501936025333060,-3,-2,-14,35,1,0,-4,-1
1501936025333060,-2,-1,22,45,3,-2,-2,-1
1501936025333060,0,-4,-23,-3,-11,-5,-4,-2
1501936025333060,-4,-6,3,20,9,-3,-3,0
1501936025356067,0,1,3,-47,-12,0,2,-1
1501936025356067,2,3,-14,-1,-7,3,0,2
1501936025357041,-1,0,9,41,25,1,-1,-1
1501936025357041,0,1,5,11,-12,-9,-1,1
1501936025378071,-1,-3,3,-34,5,1,-3,-1
1501936025378071,-1,-1,-13,4,3,0,-4,-3
1501936025379033,0,-2,-11,16,8,3,0,-1
1501936025379033,-2,-1,-7,-32,-19,-2,1,-2
1501936025393083,1,2,9,-15,11,-2,-1,-3
1501936025393083,0,0,9,83,6,3,0,0
1501936025393083,1,2,13,82,10,0,-3,-1
1501936025393083,-5,-6,-19,-91,-13,-4,-3,-4
1501936025416044,-1,2,5,30,1,-2,-2,-1
1501936025416044,-2,-3,-7,-68,-6,-1,0,-1
1501936025417037,0,0,10,-4,-1,0,1,-1
1501936025417037,0,4,-2,-22,9,3,-1,1
1501936025438083,0,0,-3,4,16,3,2,0
1501936025438083,-5,-10,-17,4,-16,-10,-6,-3
1501936025439036,-3,-3,-9,-15,3,-5,-2,1
1501936025439036,0,-3,-17,-17,-1,-1,-2,-2
1501936025453085,0,0,7,-11,-4,1,0,0
1501936025453085,0,2,-5,-24,4,4,0,-1
1501936025453085,-2,-3,-9,-30,4,3,-1,-1
1501936025453085,1,1,19,106,15,0,-1,1
1501936025476071,0,-2,-5,-84,-44,-4,0,0
1501936025476071,0,1,5,-6,-2,0,0,-1
1501936025477040,-2,-3,-3,78,0,0,-1,-1
1501936025477040,2,7,20,-16,12,4,4,2
1501936025498104,-2,-7,-26,-21,-6,-3,-4,-3
1501936025498104,-2,1,25,48,-3,-6,-1,0
1501936025499046,-4,-4,-4,-44,-11,-2,-3,-3
1501936025499046,1,-1,-3,-8,7,3,-1,-3
1501936025513054,0,1,20,48,6,3,0,2
1501936025513054,1,4,2,-101,15,5,-1,-2
1501936025513054,0,-4,-7,15,-6,-3,-1,-1
1501936025513054,-2,-1,12,4,5,-4,0,-1
1501936025536083,-3,-2,5,18,-3,-6,-2,-2
1501936025536083,0,-6,-32,-55,-17,-2,-1,-1
1501936025537043,-1,-1,-3,59,6,0,2,1
1501936025537043,-1,-6,-30,-12,-2,-3,-3,0
1501936025558087,-2,-1,-4,55,18,-2,-3,-3
1501936025558087,0,3,5,44,0,-2,2,2
1501936025559051,-1,0,-22,-106,-41,-8,-3,-2
1501936025559051,-2,-3,-3,9,-13,-6,-2,-2
1501936025573071,-2,-1,0,64,8,3,1,0
1501936025573071,-3,-2,-16,-57,-5,-4,-5,-2
1501936025573071,-1,-3,8,16,10,0,0,-1
1501936025573071,-1,1,3,16,-11,0,-2,-1
1501936025603092,-3,-4,-13,-36,-14,-6,-1,-2
1501936025603092,-2,-2,-5,-6,10,5,-1,-1
1501936025604046,1,3,-4,65,9,4,2,2
1501936025604046,0,1,13,-72,-19,-2,-2,-2
1501936025618091,1,2,9,-42,0,-7,0,4
1501936025618091,-2,-4,-8,6,-8,-3,-2,-4
1501936025619048,1,1,6,20,17,4,0,0
1501936025619048,-3,-3,-7,-26,-3,1,1,-1
1501936025633076,1,4,15,-5,-5,3,-1,0
1501936025633076,0,2,11,-8,-4,-2,-1,0
1501936025633076,-4,-2,-2,-46,-4,-6,-4,-2
1501936025633076,-2,-3,3,53,-2,-2,-4,-3
1501936025656091,-2,-2,-2,68,18,4,-1,-3
1501936025656091,2,1,-1,-77,-28,0,-1,2
1501936025657049,3,1,8,32,11,1,1,-1
1501936025657049,-6,-8,-5,-38,-6,-8,-2,-1
1501936025678098,0,0,-4,48,3,3,-1,-1
1501936025678098,1,2,-8,-23,5,2,1,0
1501936025679049,1,6,21,-21,-1,4,2,2
1501936025679049,-2,-5,-24,-43,-3,-2,-3,-3
1501936025693063,-1,-1,7,44,7,1,1,-1
1501936025693063,-1,-1,22,39,7,-4,-3,-3
1501936025693063,0,-3,-10,-25,6,-1,-1,-2
1501936025693063,1,1,5,28,-2,-1,0,2
1501936025716053,0,-2,-8,-13,2,-4,-5,0
1501936025716053,1,1,-3,4,9,7,1,0
1501936025717062,-1,3,11,-31,-2,-3,1,-1
1501936025717062,1,2,-10,-7,10,3,1,0
1501936025738098,-1,1,15,18,2,0,-2,-2
1501936025738098,-3,-5,-19,22,-2,-5,-1,-2
1501936025739053,0,0,-5,-18,-6,1,-1,-1
1501936025739053,2,2,5,50,17,3,0,-1
1501936025753104,-5,-6,-5,11,-16,-8,0,-2
1501936025753104,-1,0,2,17,2,-1,0,-1
1501936025753104,-1,-1,-1,-41,-2,2,-1,-1
1501936025753104,0,0,-3,7,3,-3,-3,-1
1501936025776099,0,2,-1,-22,-3,-2,0,-1
1501936025776099,-1,-1,-3,35,6,1,1,-1
1501936025777057,-1,-1,-1,21,5,3,-1,0
1501936025777057,0,5,2,-24,-38,-4,2,1
1501936025798099,-2,-3,-4,-4,-4,-1,-3,-2
1501936025798099,-2,-5,-31,-72,-4,0,-2,-2
1501936025799069,2,3,7,49,1,-2,-2,-1
1501936025799069,-6,-9,-19,13,26,1,-3,-4
1501936025813070,-1,-2,-6,57,-7,-7,-2,-2
1501936025813070,0,1,6,10,0,3,0,1
1501936025813070,-3,-8,-21,-33,-19,-9,-3,-1
1501936025813070,-1,1,10,14,6,-1,-1,-3
1501936025836102,0,0,-1,-48,-6,-1,2,-1
1501936025836102,-1,0,22,5,5,-2,-1,0
1501936025837060,-1,0,-7,54,10,4,0,-1
1501936025837060,1,2,15,57,-1,-1,1,1
1501936025858100,1,0,3,-49,-4,4,-1,-1
1501936025858100,-1,4,14,29,-3,-4,1,0
1501936025859061,-2,0,1,0,8,0,0,-1
1501936025859061,-1,-1,-8,-48,-12,-7,-2,-2
1501936025872132,2,2,3,92,11,6,-3,-1
1501936025872132,1,2,8,31,6,0,1,0
1501936025880104,0,-1,-3,21,-9,1,-2,-3
1501936025880104,-2,-4,-17,-85,-29,-6,0,1
1501936025896106,-2,-2,2,47,12,-5,0,0
1501936025896106,-1,-3,-3,-7,-6,0,-2,-1
1501936025897064,-2,-2,-10,-8,-2,-1,0,-2
1501936025897064,3,3,25,91,11,1,1,1
1501936025918112,-1,0,-3,-86,-21,-3,-1,0
1501936025918112,-1,-3,-10,-38,0,-1,0,0
1501936025919064,0,-1,12,-24,-7,-4,-2,-1
1501936025919064,1,-1,-1,-8,5,4,-1,1
1501936025932128,0,-1,6,28,18,3,-1,-1
1501936025932128,-2,-5,-7,-37,-37,-10,-3,-3
1501936025940108,1,2,14,-68,-2,4,1,-1
1501936025940108,-2,-1,-3,7,3,-1,0,0
1501936025956111,0,-1,-8,12,-2,-2,1,-1
1501936025956111,3,4,10,50,12,6,2,1
1501936025957070,-3,-2,-8,3,-4,-4,-1,-2
1501936025957070,-1,-1,-6,-41,10,3,-1,-2
1501936025978109,-2,-1,-2,-25,-9,-2,-1,-1
1501936025978109,0,-1,13,-11,11,-1,-2,-2
1501936025979085,-3,-5,-28,-34,-6,-2,-4,-2
1501936025979085,1,4,15,82,17,6,2,-3
1501936025992135,-3,-2,-9,-24,-7,-4,-2,-2
1501936025992135,-2,1,2,-35,-5,-1,-1,-1
1501936026000108,-1,-3,-15,21,5,1,-2,-1
1501936026000108,2,2,4,33,-1,1,0,0
1501936026015139,-3,-4,-3,-42,-9,-3,-1,-1
1501936026015139,1,1,1,-45,4,2,-1,0
1501936026016080,-1,0,15,43,16,-5,0,-2
1501936026016080,-1,-5,-31,-73,-14,-3,-2,1
1501936026038112,-3,-4,-1,67,3,0,-1,-3
1501936026038112,-2,-1,3,64,14,4,-1,-1
1501936026039070,-1,2,14,-3,9,-4,0,-1
1501936026039070,-5,-6,-11,-21,-12,-2,-4,-5
1501936026052142,0,1,-1,-13,1,-2,0,0
1501936026052142,0,-1,-4,-68,-14,-1,-2,0
1501936026060115,-3,-3,2,40,5,-4,-2,-1
1501936026060115,-3,-1,18,90,7,-7,-2,-1
1501936026075121,-1,-4,-23,-84,-28,3,0,1
1501936026075121,1,2,7,56,5,-1,1,-2
1501936026076078,-2,-6,-23,-53,-10,0,-2,-1
1501936026076078,2,3,8,-77,-13,-4,-1,2
1501936026098145,0,-3,-4,-5,9,2,-2,0
1501936026098145,-5,-5,-2,45,-8,-9,-3,0
1501936026099096,0,2,6,5,0,0,3,2
1501936026099096,0,2,3,41,9,8,0,-3
1501936026112136,0,0,4,52,13,-2,-3,-3
1501936026112136,-3,-2,-9,3,-11,-6,-4,-3
1501936026120117,0,2,6,-3,-5,0,0,0
1501936026120117,-4,-3,4,98,8,0,-2,-1
1501936026135136,-2,-1,-13,-75,-16,-2,0,-1
1501936026135136,-3,-2,-4,40,7,-3,-2,-2
1501936026136105,1,-2,-2,48,-10,-4,-1,0
1501936026136105,0,1,6,-14,-2,-2,0,0
1501936026158116,1,-1,-4,51,26,3,-2,-2
1501936026158116,-1,2,-1,-63,-30,-2,0,-1
1501936026159092,-3,-6,-3,-34,-7,-3,-2,-2
1501936026159092,1,-1,0,23,4,2,-2,-3
1501936026172149,-1,1,4,-11,-4,-2,-1,-1
1501936026172149,-2,-2,-3,-23,9,-3,-1,-2
1501936026180120,-1,2,-2,16,10,3,-2,-1
1501936026180120,0,2,4,-31,-4,-5,0,1
1501936026195123,-2,-5,-6,54,15,1,0,1
1501936026195123,-1,-2,-8,-2,-12,-2,1,1
1501936026196091,0,1,3,-10,-8,-2,-2,-2
1501936026196091,-4,-3,3,52,12,0,-1,-2
1501936026218123,1,4,4,-44,-20,-2,1,1
1501936026218123,0,-4,-17,65,32,8,-1,-1
1501936026219087,-1,0,7,14,-17,-5,0,1
1501936026219087,-1,-2,-3,12,-2,1,1,-2
1501936026241145,1,2,8,-75,-4,0,-1,1
1501936026241145,-2,-2,-3,110,26,3,0,-3
1501936026242084,-2,-1,-5,-106,-31,-5,2,1
1501936026242084,0,-1,-1,-21,5,0,-3,-3
1501936026255127,-1,0,3,37,-21,-3,2,1
1501936026255127,1,-1,-9,-17,6,2,-1,-1
1501936026256085,0,0,2,37,11,-1,-3,-2
1501936026256085,-1,-4,-4,-50,-11,0,0,0
1501936026278134,1,2,11,64,19,2,1,-3
1501936026278134,-3,-1,3,-37,-10,2,-2,-1
1501936026279085,-1,0,-2,97,14,-4,-4,-1
1501936026279085,-2,-3,-12,-76,-24,-5,-1,1
1501936026301157,-2,-3,-13,-70,-8,-1,-2,-1
1501936026301157,2,3,27,57,11,2,0,0
1501936026302088,-2,-3,-12,-67,-21,-3,-2,0
1501936026302088,-2,-2,3,-21,1,-6,-2,-2
1501936026315100,0,0,16,52,18,2,-4,-4
1501936026315100,0,1,4,-57,-37,-5,1,1
1501936026316087,-3,-6,-15,88,20,3,-1,-4
1501936026316087,1,1,2,-65,-2,0,-1,0
1501936026338158,-3,-2,-4,-49,-19,-10,-2,-1
1501936026338158,1,0,-1,-52,-8,2,0,0
1501936026339088,-1,1,16,40,9,2,2,-1
1501936026339088,-2,-4,-11,10,-7,1,-3,-1
1501936026361132,1,-2,-7,-3,5,-3,-2,0
1501936026361132,-1,-1,-5,-13,11,1,-1,-2
1501936026362091,0,-1,-5,-97,-22,-3,-1,0
1501936026362091,-1,0,17,95,20,2,-2,-1
1501936026375153,-3,-6,-28,-2,-25,-4,0,0
1501936026375153,0,-3,-6,42,6,-3,0,-1
1501936026376094,-1,0,5,70,21,8,-2,-1
1501936026376094,-1,0,-23,-84,-16,-4,2,0
1501936026398108,-2,1,18,11,5,0,-2,-2
1501936026398108,-2,-5,-9,-54,-11,-4,-3,0
1501936026399125,3,1,-18,22,4,1,0,0
1501936026399125,0,3,7,-8,-23,-1,0,2
1501936026421132,0,1,4,16,10,5,0,-1
1501936026421132,-2,-5,1,66,6,-3,-3,-2
1501936026422093,-1,1,2,-36,-10,-1,-1,-2
1501936026422093,0,-1,-5,38,7,-1,-1,-2
1501936026435093,0,-1,-8,-39,-2,6,2,2
1501936026435093,-1,-3,-1,11,4,-3,-5,-2
1501936026436104,-2,-2,21,-63,-16,-3,-1,0
1501936026436104,-1,-5,-32,13,1,-1,-2,-2
1501936026458112,-3,-2,10,113,9,0,0,-1
1501936026458112,-1,0,3,15,-5,-5,-2,0
1501936026459094,-1,0,8,-11,4,0,0,-2
1501936026459094,-1,0,8,43,7,4,0,-1
1501936026481145,-3,-1,2,-23,4,-1,-2,-3
1501936026481145,-2,0,-8,-27,3,1,-2,-1
1501936026482132,2,2,6,81,17,4,3,0
1501936026482132,-3,-5,-19,-40,-36,-7,-2,-1
1501936026495159,-2,-1,0,-17,10,1,2,-1
1501936026495159,1,-2,-15,-13,-6,-3,0,-1
1501936026496108,-4,-3,-11,-37,-3,-3,-2,-2
1501936026496108,1,1,20,-38,2,-1,1,-1
1501936026518139,-2,-7,-42,1,-7,-5,-2,-4
1501936026518139,1,1,-5,-28,-13,-2,1,1
1501936026519099,-2,-3,-1,19,1,2,-2,-1
1501936026519099,-1,-2,-7,-28,19,1,-3,-2
1501936026541143,1,1,10,-11,-8,-1,-3,0
1501936026541143,-2,2,8,38,10,0,-1,-1
1501936026542107,-3,-5,-23,-30,-10,-5,-2,-1
1501936026542107,-2,1,16,100,14,3,1,-1
1501936026555167,0,0,-11,-91,-20,-2,0,1
1501936026555167,0,-2,-4,-32,-3,-4,-1,-1
1501936026556112,0,0,8,-9,3,-1,-1,1
1501936026556112,0,-3,-9,-15,3,-2,-2,-3
1501936026578149,-2,-3,-10,30,14,2,-1,-1
1501936026578149,-2,-3,-1,17,-9,-1,0,2
1501936026579103,-1,-2,-12,-70,-6,1,0,-1
1501936026579103,-1,-1,11,48,5,-3,-1,0
1501936026601142,0,2,9,-5,-4,1,1,-2
1501936026601142,0,0,1,2,-3,-1,-2,-2
1501936026602113,1,2,10,79,11,-2,-3,-1
1501936026602113,-1,-2,-2,-51,-19,-4,1,0
1501936026615163,-1,2,25,80,5,-1,0,-1
1501936026615163,-3,-8,-52,-93,-20,-5,-3,-1
1501936026616110,-5,-2,-7,29,1,0,0,-3
1501936026616110,2,1,6,-31,15,5,-1,-2
1501936026638149,-2,-4,-3,-6,-9,-9,-4,-2
1501936026638149,3,7,22,49,4,6,2,-1
1501936026640134,0,-4,-7,-29,0,-3,-1,2
1501936026640134,-2,-2,2,30,-6,-2,-1,0
1501936026661127,2,2,13,3,-3,0,-1,1
1501936026661127,1,2,10,-2,12,4,1,-1
1501936026662106,-2,-3,-4,-8,-6,-3,-1,-4
1501936026662106,-1,2,8,2,11,1,-1,-3
1501936026674147,-3,-4,-16,4,-12,-5,-3,-1
1501936026674147,2,1,7,-10,-5,0,0,1
1501936026683118,-1,0,-8,-20,-6,1,-2,-2
1501936026683118,-1,0,-1,10,-3,1,1,0
1501936026698149,-1,0,-4,-49,1,2,-3,-2
1501936026698149,-2,-1,15,89,8,-3,0,2
1501936026700110,1,0,16,-15,2,3,1,0
1501936026700110,-1,-1,3,-14,-7,-3,-2,-2
1501936026721149,1,0,-5,-14,6,-1,-2,-1
1501936026721149,-2,-1,6,-15,-22,-5,-2,-3
1501936026722111,2,3,16,14,4,2,2,1
1501936026722111,-1,-5,-18,-79,-12,-7,-3,-1
1501936026734177,-2,-1,7,22,-1,0,3,-1
1501936026734177,-1,-2,0,-13,8,0,-1,-2
1501936026743135,-1,2,-2,5,-3,-2,-2,0
1501936026743135,1,3,7,1,3,3,0,-1
1501936026758155,-3,-5,8,92,12,1,-2,-3
1501936026758155,0,-1,-7,-23,9,1,1,0
1501936026760113,0,5,19,-6,-36,-7,-2,-2
1501936026760113,-2,-4,-20,-15,-7,-4,0,-1
1501936026781114,1,3,0,-18,2,2,0,2
1501936026781114,0,1,7,55,9,2,0,-2
1501936026782114,-3,-6,-8,-22,8,-2,-5,-2
1501936026782114,-2,1,4,31,6,3,-2,-1
1501936026794157,-1,0,0,-25,-9,-3,-1,-2
1501936026794157,-1,-3,-5,-37,-1,-1,-2,-1
1501936026803125,-1,-1,-5,23,12,1,1,-1
1501936026803125,3,3,0,28,-1,0,-3,0
1501936026818158,-4,-4,9,-29,0,-5,0,-2
1501936026818158,-2,-1,0,16,4,-1,-2,-1
1501936026820115,-1,-4,-20,-7,-3,2,-2,-1
1501936026820115,-3,-1,-1,17,2,-5,-2,0
1501936026841131,1,-1,-4,0,2,2,0,-2
1501936026841131,-3,-2,-6,-18,-7,-1,-3,-3
1501936026842118,-2,-1,8,15,17,-1,-2,-1
1501936026842118,-4,-2,-8,-49,-6,-4,0,-2
1501936026854166,1,1,-5,-13,-15,-3,1,2
1501936026854166,-1,-2,1,36,-4,-2,0,0
1501936026863129,3,3,11,-51,2,3,1,1
1501936026863129,-2,-2,-5,28,2,5,1,1
1501936026878161,-3,-2,0,20,7,-5,-1,-1
1501936026878161,-1,-2,-7,-18,-1,2,0,-1
1501936026880120,2,4,10,94,8,5,-1,0
1501936026880120,-3,-3,-5,-42,-10,-6,-1,0
1501936026901159,-1,-3,-17,66,25,6,1,-1
1501936026901159,-2,-2,1,-72,-33,-7,-2,0
1501936026902121,-2,-6,-23,-32,-8,-8,-1,0
1501936026902121,0,2,5,18,2,1,-2,-1
1501936026914169,0,-2,-8,30,-5,-7,-4,-2
1501936026914169,-2,-3,-5,3,4,0,-1,-2
1501936026923133,-2,-2,1,-19,-8,0,1,1
1501936026923133,1,2,15,52,11,2,0,-1
1501936026938185,-2,0,6,-10,4,-3,0,0
1501936026938185,2,1,3,35,16,3,-1,1
1501936026940131,-2,-2,-7,18,-8,-4,-1,-4
1501936026940131,0,-1,10,-8,-10,2,-2,-2
1501936026961191,0,0,-1,-50,-23,-5,0,0
1501936026961191,0,0,3,-1,3,1,-1,1
1501936026962125,-3,-4,-5,-26,3,-7,-1,0
1501936026962125,0,-2,7,-8,1,-3,-1,-2
1501936026974182,1,0,-13,-25,0,2,-1,-1
1501936026974182,-3,-3,-15,-30,-1,-3,-2,-1
1501936026983126,-2,-2,1,15,-17,-3,1,-2
1501936026983126,-3,-3,-12,12,0,-1,0,-2
1501936026998169,0,-3,1,-54,-10,0,-1,1
1501936026998169,1,0,8,27,12,0,1,1
1501936027000127,-3,-2,-10,-35,-4,-3,-2,-2
1501936027000127,-1,-2,-7,3,17,5,-2,-3
1501936027021175,-1,0,7,43,-5,0,2,-1
1501936027021175,0,-1,-1,-8,-4,-4,-2,-4
1501936027022129,-1,-1,0,-2,-3,-4,-4,-2
1501936027022129,-1,0,0,1,18,3,3,1
1501936027034180,-2,-2,7,-30,-14,-7,-3,-1
1501936027034180,-1,0,-3,-7,-4,-5,1,0
1501936027043140,-1,0,4,-1,8,5,2,0
1501936027043140,0,0,-3,73,8,2,-1,-2
1501936027058174,2,2,2,-82,-8,2,1,-1
1501936027058174,0,1,-7,-14,-3,0,-2,-1
1501936027060130,-4,-2,22,54,-5,-11,-2,-1
1501936027060130,-2,-2,-11,-50,-10,5,-8,-3
1501936027081202,-1,-3,-10,21,-1,0,5,0
1501936027081202,1,3,21,16,0,-2,2,1
1501936027082133,-5,-6,-24,-66,-7,-5,-6,-4
1501936027082133,-2,-1,4,19,-1,-3,1,1
1501936027094171,-1,1,0,-16,-3,5,-2,-3
1501936027094171,0,1,4,35,13,5,-1,1
1501936027103146,0,1,-10,64,11,5,4,2
1501936027103146,-3,-3,-6,-75,-34,-15,-4,-1
1501936027118179,-1,0,11,40,16,1,-3,-2
1501936027118179,-4,-6,-22,-1,-8,-2,-2,-3
1501936027120133,2,1,5,36,25,10,3,0
1501936027120133,0,1,-8,-27,-21,-3,-1,0
1501936027141175,-1,0,5,56,5,-1,1,1
1501936027141175,-1,-4,5,-65,-3,-2,-4,-2
1501936027143135,0,-2,-14,-11,-10,0,1,1
1501936027143135,1,0,19,80,9,-3,0,1
1501936027154178,-1,0,-6,-41,4,1,-1,-2
1501936027154178,-1,1,11,63,-4,-1,0,0
1501936027163146,1,-1,-11,16,11,-1,-2,-1
1501936027163146,-2,-2,6,17,-9,-5,0,-2
1501936027178178,-1,-3,0,9,7,-1,-3,0
1501936027178178,-4,-4,-5,-18,-19,-8,-3,-2
1501936027180137,0,3,10,-17,-3,-4,-2,0
1501936027180137,1,2,-7,-70,5,3,2,0
1501936027201200,-2,-4,-9,35,-1,-2,-3,-2
1501936027201200,-1,-3,-12,18,20,7,0,-2
1501936027202146,-1,-1,10,-12,-36,-7,-2,-1
1501936027202146,1,1,-4,-15,-3,2,1,0
1501936027223186,-1,-1,1,2,5,3,2,2
1501936027223186,1,2,-4,-56,0,3,0,-1
1501936027225138,1,1,-1,-14,6,-1,-1,0
1501936027225138,-1,-4,11,99,10,2,0,-2
1501936027237181,0,-1,6,47,13,-4,-3,0
1501936027237181,-1,-3,-13,-5,-14,-5,-3,-2
1501936027246141,-2,-1,1,-47,-9,1,0,-1
1501936027246141,-2,-2,-2,26,8,-1,-1,-2
1501936027261181,0,-2,-18,-37,-18,1,2,0
1501936027261181,-1,0,4,14,-1,-2,0,0
1501936027262143,0,-1,6,35,6,3,0,0
1501936027262143,0,-2,-19,-16,-11,-3,-1,-1
1501936027283179,-3,-4,7,23,-2,-8,-4,-2
1501936027283179,-2,-1,1,-41,-17,-3,0,1
1501936027285143,0,0,-3,-3,2,3,0,-2
1501936027285143,-1,0,-2,-11,4,2,-1,-1
1501936027298185,-2,-2,-7,-15,-6,-3,-1,-1
1501936027298185,-1,-1,-1,-3,2,3,-2,0
1501936027300156,-3,-2,-1,25,17,0,-2,-3
1501936027300156,-1,-1,-4,-12,-23,-9,-2,0
1501936027321188,0,1,5,-6,7,0,0,0
1501936027321188,-2,-5,-17,44,-7,-6,-2,-3
1501936027322144,-1,1,-3,-4,4,6,-1,2
1501936027322144,0,-1,4,-2,10,3,-2,0
1501936027343192,-3,1,-1,-10,-1,0,-2,-9
1501936027343192,0,1,2,-9,1,0,-1,3
1501936027345155,-1,-1,-4,-31,-4,-2,5,2
1501936027345155,-3,-2,5,42,-17,-14,-9,-7
1501936027358158,1,1,-4,-38,11,12,4,4
1501936027358158,-2,0,5,11,11,3,1,-1
1501936027364187,1,-1,-4,-11,-11,-8,-4,-1
1501936027364187,0,-2,5,-11,5,3,4,1
1501936027381150,1,-1,-5,-6,-7,0,1,-1
1501936027381150,0,-1,3,11,1,-2,0,0
1501936027382148,-2,-2,-3,-5,-3,-1,-1,4
1501936027382148,2,-1,0,37,10,1,-3,-4
