timestamp,emg1,emg2,emg3,emg4,emg5,emg6,emg7,emg8
1501936770760386,-13,-13,62,103,-20,-18,-13,-8
1501936770760386,-16,-26,-94,-76,-73,-56,-17,-12
1501936770761388,1,-1,8,48,23,18,6,-1
1501936770761388,-4,-7,-15,-18,18,0,-1,-2
1501936770765366,8,11,2,-67,20,15,2,1
1501936770765366,-1,-3,-25,4,13,2,4,0
1501936770765366,-3,4,5,82,-2,-13,-5,-2
1501936770765366,5,11,17,-128,-55,1,4,1
1501936770772424,-5,-14,-64,-29,-2,-2,-2,-4
1501936770772424,-5,-1,22,-28,32,3,-5,-4
1501936770781407,1,3,22,61,29,7,5,1
1501936770781407,-14,-17,-58,-52,15,-4,-9,-12
1501936770786410,0,5,30,-9,-45,-2,-5,-1
1501936770786410,12,23,78,110,27,22,5,5
1501936770810430,-9,-19,-54,-91,-78,-23,-9,-7
1501936770810430,-1,5,26,116,23,-12,-5,-3
1501936770813393,7,4,-18,48,43,10,7,5
1501936770813393,-6,-8,-35,8,-18,3,-1,-3
1501936770825409,4,2,44,-80,17,5,-1,2
1501936770825409,-1,-5,-21,68,20,3,1,1
1501936770832414,7,11,16,-50,35,10,6,4
1501936770832414,-2,-4,-8,-94,-23,-4,-4,-4
1501936770846435,0,2,-11,86,34,-11,-4,0
1501936770846435,9,14,50,-34,-21,12,2,4
1501936770888375,2,7,-14,110,86,5,0,-2
1501936770888375,3,5,28,13,-29,-2,3,2
1501936770888375,5,5,24,29,51,8,-1,0
1501936770888375,0,-6,-32,-1,31,2,-1,2
1501936770892415,-4,-1,12,11,4,-6,-2,-1
1501936770892415,2,8,36,-67,7,5,-1,-1
1501936770893378,-5,-20,-28,-36,-7,2,3,1
1501936770893378,13,17,27,-74,-26,19,9,4
1501936770898448,2,8,38,-88,7,0,-5,-1
1501936770898448,-13,-37,-117,-10,-15,-21,-9,-6
1501936770906402,8,8,41,-12,29,25,14,10
1501936770906402,-3,6,83,-99,-22,-12,-3,-4
1501936770915376,-7,-16,-40,-87,-45,-14,-7,-5
1501936770915376,3,9,9,73,-3,2,-1,-1
1501936770929421,8,15,-20,-7,19,26,6,4
1501936770929421,-12,-11,3,-8,7,-18,-9,-7
1501936770936424,2,5,31,63,-12,0,0,-1
1501936770936424,3,11,26,-114,-27,-4,0,3
1501936770960387,-4,-10,-92,34,-23,-13,-8,-6
1501936770960387,-9,-13,-18,-31,-31,-13,-7,-7
1501936770961408,2,8,18,12,-31,-1,0,2
1501936770961408,1,4,14,112,63,12,5,0
1501936770974452,-2,0,12,28,-26,-9,-1,-2
1501936770974452,0,-5,-51,68,63,12,0,2
1501936770981423,-3,-5,0,-80,-40,-5,-5,-4
1501936770981423,-5,-5,13,64,17,-10,-5,-2
1501936770997395,-4,1,32,-6,45,-7,-6,-6
1501936770997395,1,-6,-58,14,-1,-1,0,2
1501936771003382,0,1,24,9,-11,2,1,-1
1501936771003382,-1,0,-14,-10,23,13,4,0
1501936771020448,-6,-1,24,-14,-33,-17,-9,-7
1501936771020448,-4,-4,1,-50,-30,-5,-3,-4
1501936771021381,1,-5,-49,-36,13,0,2,0
1501936771021381,-3,-3,-6,-128,-11,-5,-6,-6
1501936771034449,-3,-6,-7,-44,-31,-8,-3,-2
1501936771034449,4,4,-12,121,19,13,9,2
1501936771041423,-6,-10,-20,-72,4,-3,-1,-3
1501936771041423,1,4,10,17,2,4,3,0
1501936771057423,-8,-9,-7,34,-53,-25,-8,-6
1501936771057423,-3,-5,7,62,13,1,-1,-2
1501936771059388,-2,-1,-13,14,5,-2,-2,-2
1501936771059388,4,11,50,27,32,7,5,2
1501936771080408,1,1,-3,67,21,3,-3,-1
1501936771080408,-7,-6,-14,-96,-23,-12,-9,-4
1501936771081385,7,8,15,102,21,16,8,5
1501936771081385,-8,-13,-30,26,-39,-12,-8,-6
1501936771094464,-9,-13,-39,56,-21,-21,-7,-7
1501936771094464,4,2,-17,-12,14,15,4,2
1501936771101386,12,21,43,51,55,25,8,5
1501936771101386,-9,-16,-20,-103,-95,-26,-10,-6
1501936771117434,2,1,-6,-21,3,6,0,0
1501936771117434,1,6,24,31,0,-2,2,2
1501936771119387,-2,-2,32,123,18,1,-1,-1
1501936771119387,-1,-4,-30,-13,-31,5,3,0
1501936771140386,2,4,12,-9,-4,4,0,1
1501936771140386,13,25,86,71,63,22,8,5
1501936771142399,-4,-3,-20,70,-44,-22,-6,-5
1501936771142399,3,5,4,34,24,3,1,1
1501936771154451,2,7,30,59,15,3,3,2
1501936771154451,3,4,-18,-22,7,9,4,0
1501936771161427,-5,-6,0,-5,6,-6,-2,-1
1501936771161427,3,7,-9,3,34,4,1,2
1501936771177457,-1,-1,15,-52,5,-16,-2,-2
1501936771177457,0,1,15,39,-9,11,3,1
1501936771179401,0,-6,-33,-49,11,7,1,1
1501936771179401,-2,4,26,72,-26,-8,-3,0
1501936771200430,-3,-9,-51,-28,-13,0,-1,-3
1501936771200430,-2,-3,-3,-96,3,-4,-5,-4
1501936771201402,-6,-11,-13,-57,-23,-16,-2,-4
1501936771201402,8,8,7,-24,16,13,3,7
1501936771214438,-7,-3,27,-40,0,-2,0,-5
1501936771214438,-3,-8,-35,-55,-76,-15,-4,-3
1501936771221431,3,6,13,15,11,11,2,0
1501936771221431,4,2,-3,12,6,6,2,3
1501936771237434,-2,-3,-3,50,13,-3,-1,-5
1501936771237434,11,16,26,88,65,36,10,7
1501936771239395,-14,-13,18,-83,-76,-52,-17,-11
1501936771239395,-9,-20,-67,-74,-30,-15,-5,-6
1501936771260461,4,6,-16,-55,19,8,2,4
1501936771260461,-6,-1,-11,-15,-1,-11,-3,-3
1501936771261404,4,0,-31,9,33,13,3,3
1501936771261404,-11,-15,-52,-86,-52,-23,-14,-11
1501936771273460,3,3,36,92,19,4,0,2
1501936771273460,-8,-10,13,-15,-15,-14,-6,-4
1501936771282406,0,2,-40,39,-5,6,2,0
1501936771282406,-1,4,52,4,25,6,1,2
1501936771297463,6,-2,10,4,27,14,2,0
1501936771297463,-6,-2,-2,44,-14,-21,-8,-2
1501936771299417,-9,-13,6,69,0,-6,-5,-4
1501936771299417,8,11,7,87,16,5,9,8
1501936771320439,-3,-1,-2,20,5,12,2,-3
1501936771320439,6,10,41,116,3,-3,0,1
1501936771321416,-2,-6,-37,-42,3,4,0,-1
1501936771321416,1,3,19,-16,15,-4,-1,-5
1501936771333443,0,3,26,50,-13,-5,-1,2
1501936771333443,-6,-13,-20,74,16,1,-3,-3
1501936771342419,-4,6,51,80,24,-2,-1,-1
1501936771342419,-10,-23,-72,-81,-71,-25,-10,-6
1501936771357460,-2,-2,7,-39,-21,-4,-2,-1
1501936771357460,-5,-7,-2,-34,29,-4,-8,-12
1501936771359412,0,-2,-13,-111,-32,2,-3,-2
1501936771359412,2,8,28,50,46,13,4,3
1501936771380440,-3,-4,5,36,-11,-2,2,-1
1501936771380440,2,10,46,17,-17,-6,-3,1
1501936771381410,-8,-17,-15,-17,-25,-8,-5,-3
1501936771381410,2,0,23,68,31,12,4,-1
1501936771393446,5,11,15,0,27,6,2,4
1501936771393446,-1,4,6,67,-33,0,5,3
1501936771402412,-2,-4,5,-88,-25,-9,-3,0
1501936771402412,-2,1,-5,52,30,10,2,-6
1501936771417445,-5,-8,-15,21,-1,-9,-4,-3
1501936771417445,2,2,11,-67,-12,-6,-2,1
1501936771419414,10,13,3,-18,-37,14,7,6
1501936771419414,-8,-19,-66,90,-48,-28,-7,-4
1501936771440443,0,0,-25,-27,-27,9,-2,0
1501936771440443,-1,-6,-6,30,23,9,5,-1
1501936771442416,3,7,-5,17,34,10,0,0
1501936771442416,8,17,46,26,29,16,3,4
1501936771453469,0,-2,-8,-5,8,0,-1,-3
1501936771453469,-4,-3,-14,-47,-33,-17,-7,-1
1501936771462424,4,-2,-33,-44,6,2,2,-3
1501936771462424,-4,0,-11,-50,7,8,1,-2
1501936771477467,-1,-11,-8,39,21,-6,-7,-5
1501936771477467,-10,-11,-52,-22,-8,-2,-4,-9
1501936771479408,0,-2,-7,77,38,4,1,0
1501936771479408,2,6,58,-2,-36,-8,-2,0
1501936771500423,2,-2,-31,42,25,8,4,5
1501936771500423,-5,-13,-3,28,5,-13,-7,-7
1501936771501409,2,6,30,71,20,1,-3,1
1501936771501409,3,6,4,15,-17,0,1,1
1501936771513448,4,8,29,29,37,11,4,4
1501936771513448,0,-5,-47,-98,-57,-7,-2,3
1501936771522423,5,9,41,-56,14,7,6,3
1501936771522423,-5,-8,-18,73,23,-1,-7,-5
1501936771537449,1,4,9,-128,-38,-5,2,0
1501936771537449,-1,1,33,103,18,-14,-9,-9
1501936771539411,-3,1,-1,-36,-4,10,6,10
1501936771539411,9,4,9,-34,13,10,6,-4
1501936771560454,-14,3,3,-37,-23,-12,-4,-12
1501936771560454,12,11,22,0,16,1,-3,15
1501936771562423,-7,-8,22,82,4,-7,-4,-4
1501936771562423,0,4,20,-50,14,2,-1,2
1501936771573422,3,-4,-10,40,7,1,0,5
1501936771573422,-10,-9,-13,-65,-55,-11,-5,-10
1501936771582413,2,4,-3,24,20,8,2,-5
1501936771582413,-2,-8,-26,-27,-6,-1,2,4
1501936771597422,7,14,26,30,-1,4,2,0
1501936771597422,-8,-13,-32,-52,-38,-19,-7,-5
1501936771599414,-1,-2,1,60,-6,2,0,-2
1501936771599414,-9,-12,-8,8,12,-9,-8,-6
1501936771620480,0,2,-7,-1,-22,-15,-7,-3
1501936771620480,10,3,-15,83,48,22,11,6
1501936771621415,-9,-7,-15,-118,-59,-12,-7,-10
1501936771621415,3,10,21,-27,-20,-1,2,2
1501936771642488,-2,5,23,33,14,2,3,2
1501936771642488,-2,-1,36,69,5,-4,-4,-4
1501936771644426,0,-9,-27,-18,12,-2,-4,-1
1501936771644426,2,4,27,69,28,4,-3,-4
1501936771657459,-4,-6,16,24,12,-2,-1,-4
1501936771657459,-5,-4,-31,20,-22,2,4,-1
1501936771659427,5,-1,6,73,1,-10,-5,7
1501936771659427,-2,-1,13,-12,32,10,3,1
1501936771680492,5,9,-8,-31,-11,9,0,1
1501936771680492,-3,-5,-1,68,12,-11,-2,-2
1501936771681423,1,4,9,21,-15,14,3,-3
1501936771681423,-2,-8,-36,5,-5,-2,-3,0
1501936771693460,1,2,14,6,-30,1,3,1
1501936771693460,10,11,14,-90,16,11,5,4
1501936771702437,-10,-14,-25,-75,-15,-15,-7,-11
1501936771702437,-3,-1,18,18,-24,-12,-4,-2
1501936771717465,1,-2,2,-9,-4,2,-1,-3
1501936771717465,0,6,41,-16,5,2,2,2
1501936771719421,3,-2,-32,21,13,-3,2,2
1501936771719421,-4,-3,-18,68,19,1,-3,-10
1501936771740493,-7,-8,-18,-109,-30,-15,-10,-5
1501936771740493,0,5,-4,-65,11,10,3,1
1501936771741430,-3,-3,6,63,19,-5,-2,-5
1501936771741430,-6,-7,-30,-42,-12,-4,-2,0
1501936771762493,-5,-14,-24,74,-7,-9,-2,-3
1501936771762493,0,0,0,-57,-17,4,2,1
1501936771764434,-2,-2,-23,-30,9,-3,-3,-2
1501936771764434,0,3,31,24,1,-13,-2,0
1501936771777485,-2,-2,-12,16,13,12,-3,-1
1501936771777485,4,8,12,127,52,20,7,4
1501936771779442,-14,-20,-38,21,-60,-28,-9,-6
1501936771779442,4,4,-2,-71,-20,8,5,2
1501936771800463,0,-3,-6,-43,-1,-8,-3,-3
1501936771800463,-2,-6,-10,53,6,1,0,-3
1501936771801425,5,9,38,-46,-13,4,2,7
1501936771801425,-1,-11,-70,-54,-10,-4,-2,-9
1501936771822467,-3,0,11,115,-13,-5,0,0
1501936771822467,-4,-8,6,-51,-49,-8,-2,-3
1501936771824427,1,6,27,27,-5,-1,4,2
1501936771824427,0,-1,-8,95,20,4,-2,3
1501936771845474,3,5,2,-55,-14,-1,2,2
1501936771845474,-4,-8,-35,17,-2,-1,-5,-3
1501936771846436,0,2,17,36,26,-3,-7,-5
1501936771846436,5,8,38,83,32,14,6,6
1501936771858496,0,-3,-19,6,18,12,4,1
1501936771858496,-5,-4,-10,42,-13,-15,-3,-2
1501936771867429,2,1,-8,-20,-8,10,0,1
1501936771867429,0,-3,7,-41,-5,-6,0,0
1501936771882477,0,-2,-11,8,24,8,-1,0
1501936771882477,0,-2,-11,18,14,6,1,0
1501936771884461,-4,-7,-37,-17,-6,-8,-7,-5
1501936771884461,-2,-2,1,-21,-15,-15,-5,1
1501936771905477,-2,-4,0,20,-4,3,3,-1
1501936771905477,0,1,-3,8,-1,2,-2,-1
1501936771906443,4,7,24,14,17,10,5,4
1501936771906443,0,4,26,16,4,-2,-2,0
1501936771918478,-4,-8,-31,-94,-19,-17,-6,-3
1501936771918478,-1,3,16,75,44,2,-1,-3
1501936771927450,-2,-7,2,-74,-17,2,3,1
1501936771927450,-5,-7,-37,-41,-21,-1,-7,-9
1501936771942465,1,1,34,111,19,-4,-2,1
1501936771942465,-5,-11,-38,-69,-37,-13,-3,-3
1501936771944443,1,3,-8,-13,21,6,2,1
1501936771944443,-2,-1,9,3,4,-2,-2,0
1501936771965435,-2,-1,-3,-16,-14,2,-1,-2
1501936771965435,1,4,10,70,37,11,1,1
1501936771966436,-2,-1,1,2,-32,-21,-3,2
1501936771966436,1,2,21,5,1,19,4,1
1501936771978450,-5,-9,-41,-114,-30,-19,-9,-5
1501936771978450,1,-2,7,-45,14,1,-1,0
1501936771988468,7,7,4,57,12,8,2,2
1501936771988468,1,1,-5,19,0,2,-1,0
1501936772002507,0,4,19,-3,30,2,1,1
1501936772002507,0,-2,-4,-25,-23,-12,-3,-1
1501936772004448,4,3,4,1,14,9,1,0
1501936772004448,3,7,8,29,-4,9,6,5
1501936772025510,-3,-1,41,97,22,-3,-2,-2
1501936772025510,-5,-5,-24,-74,-11,-8,-3,-5
1501936772026450,0,2,15,9,-32,1,0,1
1501936772026450,3,6,3,-48,4,3,4,2
1501936772038504,4,7,27,62,52,15,5,2
1501936772038504,-4,-4,-5,-18,-45,-22,-7,-4
1501936772047457,1,1,7,9,8,-1,0,1
1501936772047457,-5,-4,11,20,20,-4,-3,-3
1501936772062507,-4,-10,-50,-67,-50,-4,-5,-4
1501936772062507,1,0,-21,-69,-4,12,4,0
1501936772064451,0,0,20,48,36,-5,-2,-2
1501936772064451,-1,1,24,-12,-8,-2,-3,-1
1501936772085488,-5,-10,-26,31,-5,-11,-2,0
1501936772085488,2,2,-14,-36,6,3,-1,0
1501936772086441,-4,-3,-5,5,-22,-3,0,-4
1501936772086441,-2,-2,9,-16,0,-8,-4,-2
1501936772106453,1,3,-3,8,5,2,1,0
1501936772106453,0,0,4,-1,1,6,2,1
1501936772115445,-2,0,10,-23,22,6,1,-2
1501936772115445,-4,-8,-24,-8,-13,-15,-5,-2
1501936772122475,8,14,28,-33,15,1,3,4
1501936772122475,-7,-9,8,-16,-7,2,-3,0
1501936772124444,3,4,10,52,12,5,-5,-7
1501936772124444,-1,1,16,-8,0,1,5,3
1501936772145492,-3,-4,1,24,-2,-7,-3,-5
1501936772145492,4,8,5,-41,-6,-3,1,1
1501936772146444,-1,-2,4,50,-1,2,1,1
1501936772146444,-2,-5,-11,115,40,7,5,0
1501936772158491,-2,-1,-19,-53,-53,-12,-6,1
1501936772158491,2,0,-4,69,19,5,-1,-1
1501936772173518,2,8,54,77,26,4,4,1
1501936772173518,-6,-8,-30,88,-4,-8,-4,-3
1501936772182511,-3,-3,4,2,2,-5,3,3
1501936772182511,-1,1,15,-1,-8,5,-12,-4
1501936772184447,0,2,-1,-33,-6,-4,3,1
1501936772184447,-1,-1,-16,-46,-4,-2,-3,1
1501936772205488,2,4,4,79,21,14,3,-1
1501936772205488,-6,-5,14,-50,-40,-8,-1,0
1501936772206448,-1,-2,-27,-2,-3,-2,-3,-2
1501936772206448,-3,-4,-11,26,-14,-11,-3,-3
1501936772227513,-2,0,22,41,0,1,-3,-5
1501936772227513,3,0,-46,37,22,2,2,4
1501936772229458,-5,-8,-20,-55,-7,-5,-5,-10
1501936772229458,1,1,6,-21,-6,4,-3,-1
1501936772242491,4,5,-18,-84,12,7,3,1
1501936772242491,-2,-2,8,9,-22,-9,1,1
1501936772244458,-2,0,12,-37,-16,-1,-11,1
1501936772244458,1,-5,-32,-24,16,5,13,3
1501936772272497,-4,-3,-11,-79,-22,-9,-11,-7
1501936772272497,2,2,33,68,21,1,-4,-5
1501936772274451,-3,-8,-33,-46,-17,-5,4,3
1501936772274451,4,7,14,-68,-12,8,0,1
1501936772287492,-4,-7,12,69,0,-2,-2,2
1501936772287492,-6,-7,-44,6,-23,-11,-3,-5
1501936772289463,-3,-5,-6,-52,-16,-9,-4,-4
1501936772289463,-3,-5,-9,51,42,12,4,3
1501936772302509,-1,-4,-28,-85,-46,-2,-2,-8
1501936772302509,-3,0,17,-52,-15,-6,-5,-5
1501936772304462,5,2,4,57,10,2,2,0
1501936772304462,-1,-1,-7,-9,17,1,0,0
1501936772325470,-6,-9,1,53,5,-10,-12,-4
1501936772325470,2,3,0,-88,-19,3,5,1
1501936772326454,-1,1,-2,8,2,1,1,3
1501936772326454,2,4,19,-50,-20,3,-4,-2
1501936772347500,2,2,2,14,14,4,1,1
1501936772347500,-1,-1,19,13,30,1,-2,0
1501936772349457,3,2,-5,-40,-11,2,2,1
1501936772349457,-12,-12,5,86,41,-12,-8,-3
1501936772362517,-1,1,13,-25,-22,-9,0,-7
1501936772362517,1,4,28,64,42,15,3,4
1501936772364458,-2,-4,-48,-26,-26,2,-1,-2
1501936772364458,4,4,1,-18,-18,-7,-6,-1
1501936772385459,0,-2,-4,-15,7,4,3,2
1501936772385459,-1,-2,-7,28,16,-4,2,1
1501936772386458,1,5,23,117,40,6,1,2
1501936772386458,-4,-4,13,-73,-50,-11,-8,-6
1501936772407529,-1,-3,-29,-76,-13,-8,3,5
1501936772407529,3,8,38,107,19,5,-5,0
1501936772409491,-6,-8,-13,-63,10,-6,1,-5
1501936772409491,0,2,1,-31,-12,-5,-1,-1
1501936772421519,0,1,22,25,2,0,-3,-2
1501936772421519,1,2,-11,-61,-2,4,5,4
1501936772428533,0,0,4,34,18,2,-3,-3
1501936772428533,1,1,7,81,-8,-2,-1,1
1501936772445470,3,6,42,18,84,16,6,2
1501936772445470,-1,-6,-30,4,-48,-20,1,2
1501936772446470,-2,-5,-8,98,-2,4,-7,-11
1501936772446470,3,1,-9,-39,-13,2,4,3
1501936772475496,-1,-2,-11,21,0,1,-1,1
1501936772475496,-1,-5,-4,-1,1,-4,-1,-2
1501936772475496,-3,-3,-10,-51,-8,-3,-1,1
1501936772475496,-1,-1,5,19,-3,-6,-5,-5
1501936772481510,6,5,2,-29,-12,5,3,3
1501936772481510,-5,-1,23,61,21,2,-3,-7
1501936772489529,-1,-4,-25,-84,-33,-13,-2,3
1501936772489529,-5,-9,-17,-97,-10,-1,-6,-7
1501936772504531,-4,0,16,105,1,-9,-5,-1
1501936772504531,-1,-4,-35,-28,-8,-2,-1,0
1501936772505464,-1,2,14,60,22,6,4,6
1501936772505464,4,8,18,-26,6,12,4,0
1501936772526509,-3,-5,-33,-128,-64,-11,-2,0
1501936772526509,3,7,37,115,33,-6,-2,1
1501936772527463,-4,0,43,-76,-2,8,0,-2
1501936772527463,-1,-1,-14,0,-11,-5,2,1
1501936772541505,-2,-4,0,6,-6,-2,-3,-4
1501936772541505,-1,-2,9,-46,-6,-2,4,5
1501936772549471,-6,-6,-31,18,-2,-4,-7,-11
1501936772549471,1,2,10,76,5,-2,0,1
1501936772564535,0,3,2,-7,-2,1,0,-1
1501936772564535,-2,-6,-3,72,6,0,-1,-2
1501936772565476,4,5,2,13,-36,0,4,5
1501936772565476,-13,-15,-4,-38,-28,-17,-11,-11
1501936772586515,-2,-6,-20,41,7,-1,-1,-2
1501936772586515,2,2,-25,23,22,10,5,2
1501936772587506,-4,-4,-14,-34,-28,-7,-8,-6
1501936772587506,0,0,-25,-49,-9,1,-2,-1
1501936772601528,-1,2,20,21,-2,-3,1,2
1501936772601528,0,-2,-6,10,-2,4,-2,-3
1501936772609531,-6,-7,0,55,1,-17,-4,-2
1501936772609531,1,0,-6,-73,-4,-5,-1,1
1501936772624517,-1,-3,8,53,14,10,4,1
1501936772624517,-4,-7,-31,-47,-32,-9,-5,-3
1501936772625511,0,-1,-17,-32,-5,-4,-1,0
1501936772625511,-1,-2,3,23,29,6,-1,-1
1501936772646512,1,2,-7,-64,-29,-4,-2,1
1501936772646512,-3,-1,13,11,-3,1,0,0
1501936772647472,0,-2,4,26,12,-1,-1,8
1501936772647472,2,4,-16,-34,-4,1,-2,-8
1501936772661540,1,1,-4,-50,12,7,1,0
1501936772661540,-6,-4,7,17,-8,-9,-5,-5
1501936772669472,1,0,-16,34,10,-3,3,1
1501936772669472,5,8,20,-2,20,11,4,5
1501936772684540,2,2,8,58,-21,4,4,2
1501936772684540,-1,1,-22,30,23,4,-3,-4
1501936772685484,-8,-12,-19,-34,-34,-24,-7,-6
1501936772685484,5,7,32,53,15,18,5,2
1501936772707519,-5,-5,8,6,23,-10,-5,-4
1501936772707519,-2,-4,6,-128,-35,-3,-1,-2
1501936772708475,1,4,7,96,25,1,0,-1
1501936772708475,-4,-9,-12,-25,-18,-8,2,1
1501936772730487,-1,-1,-17,-45,-5,1,-6,-1
1501936772730487,-3,-1,17,62,17,-3,-4,-3
1501936772730487,1,-2,-35,-91,2,1,-4,-5
1501936772730487,0,-2,9,-27,-9,-5,-1,2
1501936772744544,0,0,13,26,3,-2,-9,-4
1501936772744544,3,3,-8,-70,-16,-3,6,3
1501936772751524,-1,-1,5,-1,2,6,6,2
1501936772751524,-3,-3,12,18,12,3,-5,0
1501936772766522,-1,-3,-22,-27,-20,-5,5,8
1501936772766522,-3,0,2,29,1,4,-4,-16
1501936772767514,-2,-2,0,-41,-6,-1,-7,-3
1501936772767514,-5,-8,5,72,-15,-18,4,0
1501936772781536,0,-1,9,90,40,15,2,1
1501936772781536,1,1,12,43,32,-1,-5,-1
1501936772789479,3,9,38,-53,-36,6,4,2
1501936772789479,2,-3,-54,-60,-5,0,-2,1
1501936772804549,-4,-6,-9,31,5,-12,-5,-3
1501936772804549,-1,-1,-6,-20,8,6,-2,1
1501936772805490,0,2,19,47,30,7,3,0
1501936772805490,2,9,31,113,14,5,-2,0
1501936772826522,-1,-5,-31,-21,-2,0,5,1
1501936772826522,-1,-2,-19,-40,4,-5,-3,-1
1501936772827520,1,-4,-26,-77,-13,2,0,0
1501936772827520,1,6,43,46,-3,3,5,5
1501936772841523,-1,0,-4,-14,1,0,-6,-5
1501936772841523,2,1,1,-6,1,1,3,3
1501936772849522,3,6,15,26,10,5,2,2
1501936772849522,-3,-5,-17,46,24,-14,-2,0
1501936772864552,-6,-6,-5,-74,-53,1,-3,-5
1501936772864552,-1,-1,24,37,4,-2,-1,0
1501936772865483,-1,-6,-39,-71,-10,-1,0,1
1501936772865483,1,4,15,46,-13,-3,-1,-1
1501936772886526,-3,-2,-4,19,3,-6,-7,-4
1501936772886526,-2,-1,-9,-48,-2,1,2,0
1501936772887527,1,1,10,-3,1,9,6,4
1501936772887527,-9,-13,-52,-100,-49,-15,-15,-10
1501936772901487,-1,-2,0,8,-14,-8,-1,-11
1501936772901487,6,6,11,55,23,14,4,7
1501936772909525,-1,3,26,59,6,-5,-2,-7
1501936772909525,1,1,9,51,26,4,2,-1
1501936772924530,0,3,5,-60,-30,-2,3,4
1501936772924530,-4,-5,-13,-25,-24,-5,-4,-3
1501936772925498,2,3,9,36,16,3,0,-2
1501936772925498,-2,0,8,-63,-12,-9,-2,-1
1501936772946498,2,1,3,-35,3,14,6,2
1501936772946498,-1,1,9,25,4,-5,-3,-2
1501936772947496,-4,-7,-16,39,-7,-7,-3,-1
1501936772947496,1,2,-1,81,38,10,3,-1
1501936772961554,1,2,14,-73,2,-6,-2,2
1501936772961554,2,-3,-35,-80,-30,-1,-3,2
1501936772969547,-4,-7,10,23,7,-3,-1,-1
1501936772969547,-3,-1,0,-17,-15,-2,-2,-8
1501936772984552,0,0,12,1,0,-2,-3,-1
1501936772984552,-1,1,0,-38,-8,-3,0,3
1501936772985500,0,1,2,80,30,3,-7,-2
1501936772985500,-1,-2,19,36,-12,5,0,6
1501936773006539,-3,-6,-64,34,39,0,0,-2
1501936773006539,-3,2,20,-67,-72,-13,-2,-4
1501936773007529,-1,-7,-23,-52,-12,-6,-1,2
1501936773007529,1,-2,-10,27,19,2,-2,-2
1501936773021557,-1,-1,9,36,-15,-20,-3,2
1501936773021557,-1,-4,-7,7,34,23,4,-2
1501936773029541,-4,-7,-33,-70,-26,-9,-2,-4
1501936773029541,1,1,1,-67,-25,1,0,-1
1501936773044550,-1,4,42,76,16,-7,-4,-4
1501936773044550,-2,-3,-37,-102,-20,-8,0,-3
1501936773045504,2,4,35,90,4,9,1,0
1501936773045504,0,-1,-4,-28,-13,-5,-1,0
1501936773066542,0,2,18,76,31,1,-2,0
1501936773066542,0,-3,-12,-38,-38,-8,-2,-1
1501936773067503,-1,0,17,87,29,-1,1,0
1501936773067503,3,3,-1,-10,-7,3,-3,-4
1501936773090536,-3,1,9,72,5,2,0,-2
1501936773090536,-1,-3,21,93,5,-1,-2,-1
1501936773090536,-1,-3,-8,21,-3,0,1,-2
1501936773090536,-6,-4,-20,4,10,-8,-3,-1
1501936773104497,1,0,-1,-31,-8,7,3,1
1501936773104497,1,5,23,33,21,0,1,2
1501936773105498,-3,1,-4,-79,-46,-11,-4,-8
1501936773105498,-2,-3,-14,-23,3,-3,0,0
1501936773126532,-3,-4,-11,-7,1,4,-4,-2
1501936773126532,0,-3,-17,-12,5,0,4,0
1501936773127498,1,1,20,0,6,1,-1,1
1501936773127498,2,1,6,-10,-5,1,1,1
1501936773150499,-3,-3,-9,-10,-7,-9,-2,-1
1501936773150499,1,4,-1,-29,28,11,1,1
1501936773150499,-1,-1,-13,-91,-48,-5,-1,-1
1501936773150499,3,4,13,61,14,2,-2,-2
1501936773164505,-1,-3,5,-26,-19,1,3,0
1501936773164505,1,0,3,46,13,-9,-4,-3
1501936773165502,3,2,-15,5,14,15,2,1
1501936773165502,-7,-5,12,-50,11,-7,-3,-1
1501936773186510,2,-1,-19,8,6,9,0,2
1501936773186510,-5,-4,18,96,15,-11,-9,-6
1501936773187502,1,5,25,-93,-10,-8,-2,-2
1501936773187502,-4,-11,-56,43,-13,1,-5,-3
1501936773210503,-2,-2,12,-24,13,4,3,0
1501936773210503,-3,-4,-9,-36,-20,-3,0,-2
1501936773210503,-1,-2,-5,61,22,0,-2,0
1501936773210503,3,8,14,35,12,1,4,3
1501936773224564,-1,-2,7,2,6,-1,-3,-3
1501936773224564,4,6,24,-4,-7,11,5,2
1501936773231567,-4,-7,-23,36,-1,-14,-5,-4
1501936773231567,1,0,3,-54,-18,3,3,-1
1501936773246550,1,5,-6,-44,2,-2,-4,-1
1501936773246550,2,0,-16,51,-12,5,5,2
1501936773247545,-3,0,23,65,26,-1,-1,0
1501936773247545,-4,-5,-22,55,-24,-5,-1,0
1501936773270522,0,0,-8,59,-16,-6,-5,-4
1501936773270522,1,3,17,3,-12,-4,-2,5
1501936773270522,1,1,1,66,20,6,0,-6
1501936773270522,1,0,-4,-27,-8,-3,-1,0
1501936773284553,0,-2,5,-28,-23,7,2,0
1501936773284553,-3,-3,5,65,12,-5,-4,-1
1501936773285528,-2,1,19,-54,-12,3,-2,1
1501936773285528,-2,-2,8,3,-4,-6,1,-2
1501936773306550,-1,1,3,0,0,-2,0,-1
1501936773306550,-1,-2,-16,-15,2,-3,0,-3
1501936773307531,1,1,9,-38,7,2,-1,1
1501936773307531,-1,-1,9,26,28,4,-1,-2
1501936773330527,0,-1,4,-48,-26,-7,-1,-1
1501936773330527,-5,-6,-11,42,0,-2,-1,-2
1501936773330527,-1,-3,-8,48,15,2,0,0
1501936773330527,1,1,-15,-87,-43,-1,1,1
1501936773344583,-4,-5,-12,91,17,-5,-3,-3
1501936773344583,-8,-5,-12,-35,5,-6,-3,-3
1501936773345530,-3,-8,-22,4,11,0,2,0
1501936773345530,2,5,24,-35,2,9,3,1
1501936773366526,2,2,4,30,14,1,0,2
1501936773366526,3,5,25,-113,-6,1,-3,-4
1501936773367521,-4,-4,-11,-58,-16,-3,0,1
1501936773367521,-5,-4,1,-24,6,1,1,-1
1501936773390528,2,5,14,-53,-10,-1,-1,1
1501936773390528,-3,-4,-14,15,9,-3,-3,-4
1501936773390528,3,5,8,79,26,3,0,3
1501936773390528,-2,-1,1,-8,-4,-5,-5,-3
1501936773404579,-1,-5,-33,-55,-7,2,0,-2
1501936773404579,-2,-4,-15,-19,-1,-3,-2,-2
1501936773405548,0,1,-3,93,39,-4,-5,-2
1501936773405548,1,1,4,1,-40,-4,0,0
1501936773426583,-1,-4,-16,-44,15,2,-3,-2
1501936773426583,-2,-7,-26,17,-4,0,1,-1
1501936773427531,0,1,22,-6,-39,-5,0,0
1501936773427531,-2,-6,-12,-28,-2,-3,-5,-3
1501936773457555,1,2,24,-43,-16,-19,-1,1
1501936773457555,-1,-6,-27,72,26,19,-1,-2
1501936773458517,-3,-2,0,-43,-44,-10,-2,0
1501936773458517,-5,-4,0,-6,6,-6,-3,-3
1501936773464583,-3,-2,-13,6,-15,-2,-2,-1
1501936773464583,1,3,10,95,31,1,1,0
1501936773465520,-4,-5,-21,-71,-7,-8,-4,-3
1501936773465520,0,-1,-16,50,10,6,-1,0
1501936773486587,1,1,11,40,16,-1,0,4
1501936773486587,-1,2,13,-110,-27,-3,-2,-2
1501936773487517,0,-1,-1,58,18,9,3,-1
1501936773487517,-2,-1,-1,39,-4,-1,0,-1
1501936773509558,2,3,-5,-1,21,10,0,1
1501936773509558,-5,-2,24,34,6,-8,1,-1
1501936773510531,0,1,9,-8,-11,1,-2,-1
1501936773510531,2,4,20,-8,8,2,-1,1
1501936773532561,0,2,-17,84,36,7,2,1
1501936773532561,1,1,12,9,-32,-10,-4,-2
1501936773533520,-1,0,-18,-95,-27,-8,-1,-1
1501936773533520,0,0,5,-27,2,9,6,1
1501936773546569,-3,-5,-45,-55,-22,-11,-5,-2
1501936773546569,-2,-4,-3,26,7,6,0,-3
1501936773547529,-2,-2,12,34,-11,-11,-3,-1
1501936773547529,3,3,3,66,28,2,-2,1
1501936773569565,-3,-2,11,-100,-67,-2,2,-1
1501936773569565,2,3,3,-12,-6,0,0,3
1501936773570532,-4,-9,-44,-13,-28,-9,-5,-5
1501936773570532,-1,-4,-12,-1,2,-3,-2,-2
1501936773584571,2,5,23,66,17,4,-1,-2
1501936773584571,0,4,26,14,-5,-5,2,5
1501936773585534,-3,-5,-6,18,8,8,1,-6
1501936773585534,0,0,0,58,0,-11,-4,-3
1501936773606586,-1,-3,10,13,-2,-2,-2,-1
1501936773606586,-2,-2,-11,-69,-15,1,-2,-2
1501936773607524,-1,1,1,-32,37,3,-2,-1
1501936773607524,-3,-3,-9,-39,-17,-12,-5,0
1501936773629591,-2,-5,-6,82,18,10,-3,-4
1501936773629591,4,7,20,-33,0,3,6,3
1501936773630551,3,4,8,-15,9,10,1,1
1501936773630551,-8,-13,-23,-45,-6,-3,-6,-5
1501936773644593,2,3,22,-49,-28,-9,-1,0
1501936773644593,-2,-1,-7,-4,9,0,-4,-3
1501936773645537,-2,-2,-13,61,7,0,0,1
1501936773645537,-2,-3,-25,-2,-6,-2,1,0
1501936773666577,-2,1,8,22,3,0,-2,-2
1501936773666577,-2,-6,-27,-14,-1,-7,-4,-5
1501936773667527,-1,1,7,-10,-10,-4,-3,-2
1501936773667527,0,2,20,40,10,3,0,0
1501936773689529,-2,-1,5,26,23,2,-1,-2
1501936773689529,-2,-4,-17,-17,-24,-4,-2,-3
1501936773690533,4,6,23,-8,8,2,2,3
1501936773690533,0,0,2,10,4,-2,-3,-1
1501936773704594,0,1,6,18,1,1,-2,-1
1501936773704594,-2,-4,15,-12,-3,-4,-2,-1
1501936773705567,2,4,7,88,9,4,2,1
1501936773705567,-2,-2,-5,-68,-11,-9,-5,-3
1501936773727570,-2,-1,9,1,9,4,2,-1
1501936773727570,-2,-5,-1,58,8,0,-2,0
1501936773734577,1,4,3,21,-6,8,3,1
1501936773734577,2,4,12,84,20,3,1,1
1501936773749572,-6,-8,-3,-59,-42,-20,-6,-4
1501936773749572,1,3,18,33,-5,-1,-1,-1
1501936773750534,0,-3,-36,-1,15,0,-1,1
1501936773750534,4,7,7,57,6,9,3,1
1501936773763576,-1,1,22,7,4,-2,-2,-2
1501936773763576,-1,-4,-5,-24,-16,-3,-4,1
1501936773771575,-4,-8,-19,-59,4,-3,-2,-8
1501936773771575,2,2,-17,-48,-3,2,1,-1
1501936773786604,-3,-5,-4,39,0,-2,-3,-2
1501936773786604,-1,-1,-12,-10,30,2,-1,-2
1501936773787534,-1,-1,6,-26,-20,-16,-4,-1
1501936773787534,-3,-1,10,-4,1,18,2,-1
1501936773809598,2,1,-10,46,26,4,1,-1
1501936773809598,-1,-2,-18,15,-12,-5,1,2
1501936773810553,0,-1,0,23,-5,1,1,2
1501936773810553,-4,-1,5,-96,-6,-9,-4,-4
1501936773823576,2,2,-6,32,41,7,3,3
1501936773823576,-7,-11,-27,48,-35,-4,-3,-3
1501936773839578,-2,2,24,-9,-9,-8,-4,-2
1501936773839578,-2,-3,-12,-9,-6,-8,-2,-2
1501936773846579,0,1,-4,-11,26,9,5,1
1501936773846579,-1,6,7,-29,-10,-2,0,1
1501936773847538,-2,-6,-20,-101,-3,6,1,-3
1501936773847538,-1,2,30,99,17,-1,-1,1
1501936773869599,3,6,5,-12,-21,-4,-2,0
1501936773869599,-1,-3,-9,46,-2,-2,0,-2
1501936773870577,1,6,26,50,6,2,-2,2
1501936773870577,-3,-7,-21,-4,1,-2,-1,-1
1501936773883541,0,-2,0,-39,-17,-4,-2,-1
1501936773883541,2,2,1,-29,6,9,4,0
1501936773891581,0,-1,7,21,1,-4,-3,-1
1501936773891581,2,3,17,87,28,11,4,2
1501936773906612,1,-2,-53,-111,-42,-11,-1,0
1501936773906612,-6,-5,30,74,18,-9,-6,-6
1501936773907540,-2,-2,-7,12,2,0,0,1
1501936773907540,-1,0,13,-51,-24,1,2,0
1501936773937585,-5,-10,-34,-3,-7,0,-2,-3
1501936773937585,2,2,-7,26,34,8,0,-2
1501936773938543,1,-2,-12,-83,-11,-2,0,-1
1501936773938543,-1,2,31,68,33,-4,-1,-2
1501936773943575,-2,1,23,34,0,-4,-4,-1
1501936773943575,0,-1,-10,9,-5,2,-1,0
1501936773951584,-1,-5,-12,35,-2,-3,-2,-1
1501936773951584,3,-1,1,34,6,1,-2,-2
1501936773966589,-3,3,20,-31,-30,3,2,1
1501936773966589,2,2,0,-32,-8,-23,-4,0
1501936773967551,-3,-2,6,26,3,21,0,-1
1501936773967551,1,1,-13,-36,-3,-1,2,0
1501936773989588,-1,-1,4,90,17,1,-3,-2
1501936773989588,1,6,17,-19,-6,2,4,0
1501936773990561,-3,-4,-16,-78,-32,-10,-3,-3
1501936773990561,-3,-1,8,-2,-18,-4,-3,-2
1501936774012616,-3,-8,-31,0,5,-4,-1,-2
1501936774012616,1,1,-4,-43,-6,2,-3,-1
1501936774013548,2,4,17,37,16,6,2,2
1501936774013548,1,0,-10,53,40,5,1,-1
1501936774026595,-1,1,22,40,-8,-10,0,-2
1501936774026595,-1,-1,-2,23,-2,3,0,0
1501936774027548,-2,1,10,46,14,-3,0,-1
1501936774027548,-2,-6,-28,-55,-27,-7,-2,-1
1501936774049595,0,-1,2,-21,10,-2,-3,0
1501936774049595,3,6,8,48,8,-4,-1,2
1501936774050550,-7,-10,-18,-84,-8,13,-4,-6
1501936774050550,1,0,-5,1,-28,-5,1,1
1501936774063594,0,1,-5,-11,5,-1,-1,-1
1501936774063594,-2,1,29,79,7,1,-1,-1
1501936774071551,2,3,-1,-14,-5,-8,-1,3
1501936774071551,-4,-5,-25,-94,-20,4,-2,-3
1501936774086558,2,3,-1,-26,-24,-2,4,1
1501936774086558,-5,-8,-22,8,-4,-5,-4,-4
1501936774087550,-3,1,4,-12,-18,-9,-1,-1
1501936774087550,-2,-4,-13,61,11,9,1,0
1501936774117576,-3,-2,-5,9,18,-4,-3,-4
1501936774117576,2,0,-12,-17,-6,5,-1,0
1501936774118554,4,6,21,52,41,2,5,1
1501936774118554,-3,-7,-32,-107,-16,-6,-4,-3
1501936774132553,2,9,53,115,16,8,-1,2
1501936774132553,-6,-9,-22,-77,5,-20,-6,-4
1501936774133553,-2,-3,-9,-11,-3,7,-4,-4
1501936774133553,3,4,20,96,31,0,-1,-1
1501936774146589,-2,-4,-10,-4,-9,2,0,-2
1501936774146589,0,0,-10,-41,8,10,2,-1
1501936774147564,1,2,1,73,33,-3,1,0
1501936774147564,-2,-1,-19,-42,-7,-5,-1,0
1501936774169597,-4,-10,-15,-78,1,-4,-5,-5
1501936774169597,1,2,10,32,-33,5,1,1
1501936774170556,-1,-1,-20,-19,5,-9,-4,-2
1501936774170556,0,1,23,-58,-31,5,4,0
1501936774192628,-2,-10,-47,-55,13,-5,-4,-3
1501936774192628,-3,-2,-12,-19,-14,-6,0,-2
1501936774193558,5,5,10,7,-8,11,3,2
1501936774193558,-3,-1,5,-27,-12,-5,-3,-1
1501936774215560,-2,0,15,-49,-18,-4,-1,0
1501936774215560,-5,-9,-27,-21,0,-1,-2,-4
1501936774215560,2,1,-9,-11,-15,-9,-2,1
1501936774215560,0,2,12,30,13,-8,-3,0
1501936774229600,-1,-1,1,56,1,13,4,-1
1501936774229600,-1,3,21,2,-17,-2,-2,-1
1501936774230560,-3,-5,-13,-19,-7,-4,-1,-2
1501936774230560,3,6,25,36,-7,-2,1,0
1501936774252561,-4,-2,15,-66,-26,-13,-6,-3
1501936774252561,0,-2,-3,57,17,6,4,0
1501936774253563,-1,1,9,-11,-23,-10,-2,-1
1501936774253563,2,5,15,-3,-22,6,2,1
1501936774266594,-3,-4,-3,75,15,1,-1,0
1501936774266594,4,3,9,18,19,7,0,1
1501936774267560,-1,1,31,94,-8,-4,-1,1
1501936774267560,-2,-4,-9,-9,3,-4,-2,-1
1501936774289596,1,0,-13,52,18,-3,-2,-1
1501936774289596,2,2,8,-101,-45,10,5,1
1501936774290565,-3,-1,-9,83,26,3,1,0
1501936774290565,-4,-6,-1,36,4,-3,-4,-5
1501936774312570,3,4,20,21,6,-2,1,0
1501936774312570,-3,-2,-11,-36,-5,-12,-5,-4
1501936774313563,1,-1,-4,-16,5,4,-1,0
1501936774313563,-6,-9,-37,-79,11,0,-3,-3
1501936774326564,1,3,19,-22,2,1,3,3
1501936774326564,-2,0,8,7,46,9,0,0
1501936774327562,-2,-1,6,-38,-29,-2,-2,-1
1501936774327562,-2,-5,-28,-9,7,-10,-6,-2
1501936774349566,0,2,1,13,-7,2,2,-1
1501936774349566,-3,-5,-15,-31,-7,-4,-1,0
1501936774350568,-2,-2,2,88,38,1,0,-1
1501936774350568,2,6,24,4,-9,1,0,2
1501936774372587,1,-2,-19,-93,-16,1,-1,-2
1501936774372587,-1,-4,-23,-102,-56,-24,-5,-1
1501936774373586,-1,-7,-29,-39,-18,16,4,-3
1501936774373586,-1,0,19,-35,-3,0,-2,-1
1501936774386585,-4,-6,-12,39,3,-1,-2,-3
1501936774386585,-1,0,-3,14,10,-2,-3,-1
1501936774387566,-2,-3,-3,-44,-9,-10,-4,-3
1501936774387566,3,4,14,34,22,15,2,1
1501936774409566,-5,-7,-11,-29,-4,-7,-2,-2
1501936774409566,-1,-1,26,89,28,1,-3,-2
1501936774416625,1,2,9,-46,-30,-6,-1,2
1501936774416625,-4,-4,-9,21,-10,-1,0,-3
1501936774432606,-1,-5,-32,40,15,-2,-3,-1
1501936774432606,-2,2,10,6,-4,-1,-1,-2
1501936774433590,-1,0,-5,-24,-11,-5,-2,0
1501936774433590,0,4,25,49,31,3,-2,0
1501936774446630,0,2,-9,-62,-12,3,2,2
1501936774446630,1,3,6,-51,-7,7,-1,2
1501936774447569,-4,-2,-8,41,9,-3,-3,-3
1501936774447569,2,-1,2,-32,-7,-17,-2,2
1501936774469626,2,4,11,65,0,12,0,1
1501936774469626,0,0,5,-68,-24,3,2,0
1501936774470589,-4,-7,-11,3,-1,-2,0,-1
1501936774470589,-1,-3,-16,-70,-23,-7,-2,-2
1501936774492633,0,4,14,31,3,-5,-1,-2
1501936774492633,-1,-5,-22,42,6,0,-3,-1
1501936774493571,0,2,14,-90,3,2,1,-1
1501936774493571,-2,-3,-6,-3,-10,-1,0,0
1501936774506643,1,-1,-24,-21,20,4,0,0
1501936774506643,1,1,24,44,10,6,2,0
1501936774507596,0,0,9,26,4,-2,-1,-1
1501936774507596,1,-3,-25,-43,-6,6,2,1
1501936774529615,0,3,47,73,39,0,0,0
1501936774529615,-2,-2,-5,-43,-20,0,-4,-3
1501936774530576,0,-1,-27,-81,-9,-5,-2,-2
1501936774530576,-1,-3,-22,-20,-12,4,1,0
1501936774552645,-2,-3,-3,-27,-21,-5,-3,-3
1501936774552645,1,4,15,76,10,2,5,3
1501936774553586,-2,-7,-17,20,18,-4,-4,-3
1501936774553586,-2,2,6,60,-15,0,-3,-2
1501936774566642,-1,0,4,-32,-14,-6,-1,0
1501936774566642,-5,-7,-22,-3,1,-10,-5,-2
1501936774567614,2,2,0,-27,-10,3,0,1
1501936774567614,0,1,18,84,18,-2,-3,1
1501936774589623,0,-3,-5,-32,-20,3,1,-1
1501936774589623,-2,-1,8,126,34,-1,-3,-2
1501936774590579,0,3,-13,-54,-58,-13,1,1
1501936774590579,-5,-6,-1,32,11,1,-1,-2
1501936774612622,0,-1,-27,-63,-20,-4,-2,1
1501936774612622,-1,-3,-11,-21,5,6,0,0
1501936774613621,1,-1,-4,33,15,3,-1,0
1501936774613621,-2,0,10,29,2,-9,-3,-4
1501936774626655,-1,-1,-9,-46,12,2,0,0
1501936774626655,-4,-7,-35,1,7,-5,-2,-3
1501936774627593,-5,-4,29,54,2,-7,-4,-4
1501936774627593,2,0,-16,-79,9,12,5,0
1501936774649622,-4,-6,-11,-21,-3,-11,-8,-6
1501936774649622,1,1,-3,-114,-26,-1,3,1
1501936774650582,-2,-1,14,89,25,-2,-1,-4
1501936774650582,-3,-3,8,5,-19,-8,-4,-3
1501936774672643,-1,-3,1,37,0,0,-2,-2
1501936774672643,0,1,16,27,14,-4,-5,-1
1501936774673584,3,3,9,32,7,6,4,2
1501936774673584,-2,-6,-38,-40,-19,-6,-1,0
1501936774695623,-3,-2,24,45,12,-6,-3,-3
1501936774695623,-1,1,3,51,-8,-2,-1,0
1501936774695623,-6,-7,6,1,18,-4,-6,-5
1501936774695623,0,2,-2,-9,-18,5,0,-2
1501936774709630,4,6,8,-33,-19,-1,3,2
1501936774709630,0,-3,-22,-128,-21,-8,-2,-1
1501936774710586,-5,-4,-27,38,0,12,2,0
1501936774710586,-1,-5,-22,-32,-31,-10,-3,0
1501936774732627,-3,-1,9,-29,-4,-1,-3,-2
1501936774732627,-2,-1,16,44,30,2,-3,-2
1501936774733596,1,4,7,18,-30,-6,-1,1
1501936774733596,-3,-4,-18,-86,6,-3,-3,-2
1501936774746636,1,1,12,89,22,11,4,1
1501936774746636,-2,-1,-6,-4,-24,-7,-4,-3
1501936774754649,3,3,26,47,17,-1,-2,-1
1501936774754649,-3,-2,15,32,-4,-4,1,-2
1501936774769629,-3,-4,0,9,1,-8,-7,-3
1501936774769629,2,4,14,55,12,12,6,1
1501936774770590,0,0,-13,-51,-19,4,0,0
1501936774770590,3,6,36,-6,6,1,1,0
1501936774792653,0,-3,-18,29,-10,-5,-2,-1
1501936774792653,-1,-1,3,-26,-7,-3,-2,-2
1501936774793590,1,0,-7,44,16,0,0,-1
1501936774793590,-3,0,2,-11,-9,-20,-6,-2
1501936774806594,1,0,-18,-77,-8,21,1,0
1501936774806594,-1,0,1,10,-12,2,3,-1
1501936774814652,-2,0,22,-11,16,0,-1,-1
1501936774814652,0,1,-3,19,31,-3,-2,-1
1501936774829659,2,2,8,80,-14,1,0,0
1501936774829659,-4,-7,-33,-29,-17,-3,-3,-2
1501936774830593,0,-3,-2,55,4,-4,-1,0
1501936774830593,-6,-5,-21,-34,-24,-9,-5,-6
1501936774852595,1,1,1,-8,4,3,0,0
1501936774852595,1,0,-1,87,35,10,2,1
1501936774853603,-1,-2,3,-61,-59,-11,-4,-2
1501936774853603,2,1,11,57,9,2,0,0
1501936774866621,-1,-1,0,-18,-10,-12,-4,-5
1501936774866621,-2,1,19,-23,-6,4,3,-1
1501936774874635,3,1,-12,-33,14,5,2,2
1501936774874635,-3,-5,-17,-6,5,3,-1,-1
1501936774889643,-1,3,22,31,7,-5,-1,1
1501936774889643,-3,-5,-1,-49,-12,-9,-4,-2
1501936774890596,-2,-1,8,59,28,5,-1,-2
1501936774890596,2,1,-5,-52,-31,2,1,0
1501936774911637,-4,-3,15,44,2,-4,-1,0
1501936774911637,3,3,15,29,13,0,0,1
1501936774919641,-3,-5,-2,-22,-1,-7,-4,-2
1501936774919641,2,1,9,88,27,6,2,1
1501936774926608,0,-1,-12,12,2,6,0,0
1501936774926608,-1,0,-9,-101,-16,-1,-2,-2
1501936774934639,-7,-6,10,10,-7,-7,-6,-4
1501936774934639,2,2,9,71,34,8,2,-2
1501936774949640,0,2,9,-13,-23,0,4,2
1501936774949640,-3,-4,-27,-60,-24,-11,-3,-2
1501936774950599,0,0,-19,-47,-18,-3,0,1
1501936774950599,0,-3,-6,45,9,5,2,1
1501936774972668,-6,-8,-22,22,20,-8,-5,-5
1501936774972668,2,0,8,34,1,-2,-3,-2
1501936774973643,2,1,-13,24,16,8,5,2
1501936774973643,-3,0,20,65,22,-2,-3,-2
1501936774986611,1,-2,-12,-53,-35,-3,-2,0
1501936774986611,0,-1,4,49,5,-1,-1,-1
1501936774994651,0,0,-6,-94,3,4,1,0
1501936774994651,2,3,6,53,14,7,1,1
1501936775009661,-5,-4,-8,-19,0,-8,-4,-3
1501936775009661,2,7,33,55,13,1,-2,0
1501936775010603,-2,-4,-8,10,-5,0,-1,-3
1501936775010603,2,1,2,32,-4,2,0,1
1501936775032669,-1,1,11,-11,1,-5,-2,0
1501936775032669,-4,-4,-7,-18,-8,-3,-2,-2
1501936775033603,-3,-2,-15,-29,-1,-1,-2,-3
1501936775033603,0,-3,2,-51,3,-1,0,0
1501936775046614,2,3,-3,31,19,9,2,1
1501936775046614,-2,-2,3,-33,-9,-2,-1,-2
1501936775054666,1,1,6,-41,-2,-5,-1,-1
1501936775054666,-2,-3,7,44,9,-12,-5,-2
1501936775069672,-2,-5,-29,45,11,17,3,-2
1501936775069672,-2,-4,-7,-26,-5,-11,-4,-3
1501936775070613,-4,-6,-16,-17,-26,6,0,-2
1501936775070613,-1,3,5,-45,-5,-4,-3,-1
1501936775092676,-1,3,16,17,-10,-10,-4,-2
1501936775092676,-3,-2,14,78,10,-4,-5,-2
1501936775093616,-3,-6,-6,69,-1,-7,-2,-2
1501936775093616,1,4,7,57,-4,7,2,1
1501936775122677,6,10,24,47,-3,4,3,3
1501936775122677,-1,-3,-13,44,17,4,-1,-3
1501936775123608,0,3,25,-48,-22,-6,-3,0
1501936775123608,-2,-6,-21,-36,-19,-17,-7,-5
1501936775129686,-1,-4,-3,2,21,14,3,-2
1501936775129686,3,8,9,-14,-11,8,6,4
1501936775130610,-4,-7,-33,-23,-1,-6,-4,0
1501936775130610,0,2,1,-45,-8,0,-1,-1
1501936775152669,0,-2,0,-24,-2,-7,-1,-1
1501936775152669,-2,1,17,-62,-4,-4,-3,-2
1501936775153619,-2,0,-4,-53,-1,8,1,0
1501936775153619,0,-2,-19,-13,-5,0,-2,-1
1501936775174617,-2,-3,-10,6,-9,-9,-3,-2
1501936775174617,-1,-2,-2,-6,-6,6,1,-1
1501936775175648,2,2,-6,20,4,-13,-1,-1
1501936775175648,0,-3,6,-45,1,14,0,-2
1501936775189649,-3,-3,26,-61,17,-10,-5,-3
1501936775189649,2,-1,-7,-21,-14,-9,-2,0
1501936775189649,0,-2,-10,22,-2,16,2,-1
1501936775189649,-4,-6,-8,50,3,-5,-1,-1
1501936775212653,1,3,9,5,29,7,-1,0
1501936775212653,2,2,6,123,7,1,1,0
1501936775213623,-3,0,31,15,10,-8,-4,-2
1501936775213623,0,0,-1,26,-6,5,-1,-1
1501936775234685,-1,-4,-27,64,23,3,0,0
1501936775234685,0,2,-4,-15,-16,-8,-3,-1
1501936775235656,1,1,-4,9,12,9,4,0
1501936775235656,-1,-3,-10,-50,-7,3,1,0
1501936775249659,-2,-3,-15,-51,-21,-11,-2,-2
1501936775249659,-2,-3,-1,84,37,14,2,1
1501936775250616,-1,0,-6,-53,-38,-15,-5,-1
1501936775250616,-5,-1,20,78,18,-9,-3,-3
1501936775272684,1,3,16,27,-17,-2,4,2
1501936775272684,0,-1,-28,-88,-26,-7,-1,-2
1501936775273619,-3,-4,11,116,41,5,-4,-4
1501936775273619,6,7,7,-81,18,9,8,4
1501936775302681,-5,-6,-7,-48,-54,-14,-4,-5
1501936775302681,-5,-8,-25,-76,0,3,0,-1
1501936775303621,4,7,32,86,-4,-2,-1,0
1501936775303621,-6,-9,-17,-23,-37,-9,-4,-4
1501936775309627,-5,-3,2,100,22,2,-4,-3
1501936775309627,-4,-8,-27,-4,-32,-10,-2,-2
1501936775310619,2,1,-9,-64,2,3,1,0
1501936775310619,-4,-2,16,-3,1,-3,-1,-2
1501936775332659,5,3,-4,-116,-8,1,1,1
1501936775332659,-7,-9,6,-27,9,-6,-6,-5
1501936775333622,4,8,21,-93,19,11,5,4
1501936775333622,0,-1,-7,36,-20,-9,-7,0
1501936775354690,-2,-7,-28,-80,-12,-6,-1,-1
1501936775354690,4,8,8,57,33,20,5,1
1501936775355659,-4,-5,-3,111,-20,-7,-2,-1
1501936775355659,-3,-1,27,-31,0,-17,-4,-2
1501936775369632,-3,-5,-36,-47,-20,11,-4,-2
1501936775369632,0,2,17,-55,-10,-6,2,1
1501936775369632,0,-1,-7,49,-7,0,-1,-2
1501936775369632,-5,-7,-8,24,2,-7,-3,-4
1501936775392625,-3,-2,-11,82,15,-9,-2,-1
1501936775392625,2,3,24,41,-18,-5,-3,-2
1501936775399625,-2,-4,-24,-36,-1,2,-3,-2
1501936775399625,2,2,5,-59,-7,8,0,2
1501936775414653,1,0,7,33,12,-2,-2,-2
1501936775414653,2,1,-1,7,11,1,0,1
1501936775415636,-1,0,2,13,2,-8,-1,-2
1501936775415636,1,4,12,39,6,13,-2,0
1501936775429654,-6,-6,3,90,-3,-6,-1,-2
1501936775429654,-3,-5,-1,29,5,-20,-6,-3
1501936775429654,-3,-6,-5,-32,-17,10,0,-2
1501936775429654,1,0,-28,-55,-1,2,-1,-1
1501936775452654,5,9,46,50,10,7,4,3
1501936775452654,-3,-5,-32,-128,-22,-5,-4,1
1501936775453628,-5,-8,-2,54,23,-8,-4,-3
1501936775453628,-3,-4,-7,-31,-17,-2,0,-3
1501936775474675,0,-2,2,-50,-24,-1,-2,-2
1501936775474675,1,2,10,54,18,6,1,-1
1501936775475666,1,4,3,-31,0,-3,-2,1
1501936775475666,0,-3,-21,16,8,3,3,-1
1501936775489672,-1,0,2,-35,-18,-2,0,-1
1501936775489672,0,2,-4,-42,-1,7,3,1
1501936775489672,-2,-2,-27,-77,-3,-2,0,-1
1501936775489672,-1,2,3,11,3,-7,-1,-1
1501936775512670,0,-2,-1,-95,-6,-2,-2,1
1501936775512670,1,-2,-4,85,9,4,-2,-2
1501936775513654,2,4,4,-88,0,-7,-1,2
1501936775513654,1,5,13,85,25,21,2,0
1501936775534677,-1,-1,-11,-50,-16,-2,1,1
1501936775534677,-1,2,13,-68,5,3,2,1
1501936775535659,2,3,16,4,9,2,1,-1
1501936775535659,-2,-4,-10,26,-11,-7,-2,-1
1501936775549634,1,0,-8,-43,-12,-9,-3,-2
1501936775549634,-4,-4,-6,73,16,8,0,-2
1501936775550633,5,7,9,-79,-24,1,3,3
1501936775550633,-4,-5,9,-36,3,-9,-4,-3
1501936775572672,-6,-8,-43,-37,-1,3,-2,-3
1501936775572672,3,1,1,-96,-24,-7,1,2
1501936775573635,0,-1,6,127,11,3,-3,-4
1501936775573635,3,1,9,15,-25,-4,1,0
1501936775602696,2,4,49,71,31,-8,-1,-1
1501936775602696,-3,-4,-4,19,-1,0,-2,-3
1501936775603637,-2,-5,-14,9,13,1,-1,0
1501936775603637,1,2,0,-94,-7,5,3,1
1501936775609704,-3,-4,-25,-16,-1,-9,-2,-2
1501936775609704,-2,-1,4,-39,12,5,-1,-1
1501936775609704,-1,-2,10,27,-11,-10,-3,0
1501936775609704,4,5,1,69,16,1,2,3
1501936775632697,-6,-9,-18,51,9,3,-4,-2
1501936775632697,0,1,4,13,-8,-6,-2,-1
1501936775633636,-3,-4,-18,26,4,-3,-4,-3
1501936775633636,-1,2,7,-91,-11,2,0,-1
1501936775654680,0,1,21,21,-22,-6,-3,-2
1501936775654680,-1,-5,-13,38,-5,2,-2,-2
1501936775655678,1,5,27,48,15,7,3,1
1501936775655678,-4,-6,-26,107,12,-21,-10,-3
1501936775677678,2,2,6,-53,-30,21,9,3
1501936775677678,1,-1,-16,33,-2,-11,-5,-2
1501936775678653,-1,0,20,84,35,18,2,0
1501936775678653,-3,-5,-8,-76,-62,-13,-4,-4
1501936775692675,-2,-2,-3,64,10,-8,-4,-1
1501936775692675,0,1,31,-21,-1,1,1,2
1501936775693643,-5,-16,-101,-18,-20,-9,-4,-4
1501936775693643,-3,-2,-5,-15,15,6,0,-1
1501936775714658,1,2,7,3,19,1,0,0
1501936775714658,0,2,7,57,-8,6,1,-1
1501936775715643,-2,0,24,-54,-26,-15,-6,-1
1501936775715643,2,0,-13,-1,2,16,7,2
1501936775729655,1,1,-2,19,0,-2,0,-1
1501936775729655,0,0,4,60,19,-5,-3,-2
1501936775736645,-1,-3,-6,-63,7,8,3,-2
1501936775736645,-3,0,8,58,15,-8,-3,-2
1501936775752716,4,6,14,19,5,3,0,0
1501936775752716,-2,-2,-10,7,-4,-3,-2,0
1501936775753644,-1,0,0,-13,7,-1,0,0
1501936775753644,0,-2,-2,-3,-2,1,-3,-2
1501936775782685,-4,-4,-13,10,7,-4,-2,-3
1501936775782685,-2,-3,-8,-48,-17,-8,-3,-2
1501936775783647,2,0,-1,26,4,9,6,0
1501936775783647,-2,0,12,-17,-14,0,2,0
1501936775788693,-7,-6,-10,-48,7,-5,-4,-3
1501936775788693,1,1,1,17,-5,-1,-1,0
1501936775797714,-3,-3,-2,0,-8,-8,-4,-3
1501936775797714,2,4,4,46,15,-6,0,1
1501936775812711,0,-3,-19,-44,-1,14,1,-3
1501936775812711,-1,2,19,-44,13,4,5,2
1501936775813660,-2,-1,19,30,3,-8,-7,-4
1501936775813660,4,4,2,-20,-9,8,1,2
1501936775834710,-1,4,6,-10,-9,-10,-2,0
1501936775834710,-2,-6,-32,22,5,3,-2,-2
1501936775835686,-1,0,4,-78,-15,0,1,2
1501936775835686,-2,-2,7,-30,11,6,0,0
1501936775848716,3,-1,-14,-31,-11,-8,-2,1
1501936775848716,0,1,14,-29,-10,7,1,-2
1501936775856711,1,3,1,33,12,-9,-2,1
1501936775856711,-3,-7,-27,12,1,1,-4,-3
1501936775871706,4,7,17,69,30,10,4,2
1501936775871706,-6,-9,-16,-42,-36,-12,-5,-3
1501936775879683,0,1,-12,-20,-10,-4,-2,1
1501936775879683,1,5,24,25,15,-1,1,-1
