timestamp,emg1,emg2,emg3,emg4,emg5,emg6,emg7,emg8
1501936432092737,-1,0,27,43,-19,-6,29,-23
1501936432092737,-11,6,19,59,40,23,1,14
1501936432093756,-24,-21,-73,-81,-48,-30,-22,-14
1501936432093756,-1,1,37,84,10,1,16,-12
1501936432094733,3,3,11,-66,9,8,-9,17
1501936432094733,-4,-4,18,-20,-10,-14,-14,-16
1501936432094733,6,-1,11,124,18,4,-25,-6
1501936432094733,1,-4,-54,-128,-64,5,32,5
1501936432101755,1,3,-8,-4,-9,-10,2,10
1501936432101755,7,19,76,17,47,16,13,-2
1501936432105755,2,0,44,48,-19,-11,-18,3
1501936432105755,-3,-11,-33,-97,-57,-15,-12,-6
1501936432122754,2,4,24,109,43,16,-7,-10
1501936432122754,2,-5,-3,17,-34,-20,4,4
1501936432129776,5,4,-5,-50,-15,15,25,25
1501936432129776,-3,8,48,101,96,12,-12,-22
1501936432137758,-16,-22,-69,-24,-31,-27,2,-6
1501936432137758,10,0,-17,86,19,16,-45,-22
1501936432159779,0,5,-30,-128,-25,10,42,3
1501936432159779,-1,0,24,101,-22,-14,1,16
1501936432198789,16,2,0,-50,1,-2,21,6
1501936432198789,-26,-2,5,28,43,5,-5,0
1501936432199740,7,-2,1,-91,-91,-16,-8,-11
1501936432199740,-6,-1,-21,-36,-2,5,-1,0
1501936432200740,2,-3,-3,114,34,-5,-15,-9
1501936432200740,-3,3,5,-104,-49,-12,-2,12
1501936432204741,5,3,23,7,27,11,13,-5
1501936432204741,-2,-3,-22,-3,0,-4,-8,-3
1501936432210740,2,2,3,-128,-38,-1,12,9
1501936432210740,7,-4,12,50,20,-7,-6,-2
1501936432219741,-13,-5,-7,47,7,3,-14,-10
1501936432219741,20,3,16,25,3,2,16,23
1501936432225763,-12,-6,-15,28,35,-2,-7,-8
1501936432225763,9,9,-3,-62,-31,6,4,4
1501936432241756,-8,-9,-7,72,16,-4,-6,-14
1501936432241756,6,1,6,-21,-4,-3,-8,-11
1501936432247760,-11,-2,12,53,-20,-3,8,2
1501936432247760,0,7,40,66,46,8,-12,-13
1501936432270743,11,-5,-75,-28,-19,-12,14,35
1501936432270743,-4,-6,-10,2,7,2,-5,-24
1501936432271747,9,10,33,69,11,4,1,-2
1501936432271747,-9,-7,-12,29,15,-3,-10,9
1501936432285762,7,6,5,-14,9,11,1,-4
1501936432285762,-19,-6,13,-18,-16,-11,-6,-4
1501936432286756,44,6,10,20,5,6,7,14
1501936432286756,-50,-11,-36,-13,-29,-12,-10,-4
1501936432308771,5,7,33,5,37,7,7,-16
1501936432308771,3,-4,-57,-102,-69,-7,6,6
1501936432309768,-23,-1,4,-8,27,11,-12,-33
1501936432309768,39,2,16,-26,0,-2,17,23
1501936432331787,10,-2,-19,-26,10,3,-2,9
1501936432331787,-25,-4,4,71,58,1,-6,-23
1501936432331787,13,0,7,80,-30,-6,-12,36
1501936432331787,5,3,-15,28,-49,-9,11,-30
1501936432345759,-23,-2,27,9,-14,-3,-7,-9
1501936432345759,26,-4,-16,103,66,7,5,63
1501936432346750,-16,4,-4,-74,8,-3,-24,-54
1501936432346750,-29,-7,-6,70,-21,1,23,-19
1501936432368779,33,2,10,2,0,-6,-23,32
1501936432368779,-22,1,22,50,38,2,-4,-32
1501936432369753,7,2,-8,-121,-29,2,14,23
1501936432369753,-2,2,20,72,7,-4,-27,-12
1501936432391756,-9,-6,3,49,8,-2,24,-1
1501936432391756,-7,6,6,32,-16,9,-3,2
1501936432391756,-7,-13,-18,21,-38,-19,-15,-3
1501936432391756,38,6,-7,-102,20,8,8,12
1501936432406755,-39,-7,-20,64,7,-4,-4,-9
1501936432406755,-8,0,1,-46,-30,-7,-5,-14
1501936432406755,-7,-1,8,116,15,5,-3,-31
1501936432406755,7,6,20,-106,-10,6,8,20
1501936432428822,32,-1,16,62,11,-11,-14,4
1501936432428822,-32,-9,-40,-128,-51,-7,13,-33
1501936432429758,0,-4,-17,23,0,-2,-9,12
1501936432429758,0,-3,7,72,37,7,-5,-26
1501936432451758,1,3,-11,-98,0,7,-9,1
1501936432451758,19,-1,41,76,-16,-10,13,35
1501936432451758,9,1,5,-35,0,-1,1,25
1501936432451758,0,1,2,79,9,0,-9,-16
1501936432466759,-11,-4,-8,-19,-21,-5,13,27
1501936432466759,6,-3,-1,70,-14,-1,1,-8
1501936432466759,-26,-8,-11,48,41,3,-6,-8
1501936432466759,11,7,22,8,-8,0,18,27
1501936432488767,-30,-5,3,21,-28,-8,-13,-20
1501936432488767,13,7,5,35,26,8,-11,-16
1501936432489758,17,2,27,-37,-11,-2,5,15
1501936432489758,-10,-13,-42,7,2,-2,-9,-18
1501936432519794,2,4,29,-57,1,-6,-10,-13
1501936432519794,-24,1,21,-7,-7,-3,-5,-23
1501936432520760,-15,-2,3,-25,7,4,14,0
1501936432520760,4,2,-11,8,1,4,-6,6
1501936432525770,-14,-3,-18,64,15,2,1,-18
1501936432525770,17,3,2,-46,-25,6,-6,28
1501936432526773,3,-2,4,3,-53,-11,19,31
1501936432526773,20,-2,-3,16,14,2,-2,21
1501936432548802,-15,4,4,12,10,8,14,-17
1501936432548802,2,-2,31,66,13,-6,-8,-3
1501936432549774,-34,-12,-42,-80,-9,-10,-16,-27
1501936432549774,-6,0,1,37,-17,-1,3,7
1501936432571789,5,-4,1,70,20,0,-5,-2
1501936432571789,11,0,-10,-6,4,-4,-6,6
1501936432571789,-1,3,-8,28,21,14,12,-4
1501936432571789,-16,-6,7,8,16,-11,-4,-17
1501936432586783,12,5,-10,-83,-16,-1,0,6
1501936432586783,-1,-2,-14,-112,-10,5,3,22
1501936432586783,1,-2,-4,127,-22,1,-8,-24
1501936432586783,3,2,0,-38,-2,3,3,13
1501936432608805,-2,1,23,-18,-23,-7,7,-9
1501936432608805,4,-4,-1,-40,11,-3,1,9
1501936432609765,-2,-7,-27,-49,-11,-9,-14,-3
1501936432609765,-7,-5,-2,74,30,-4,-6,-8
1501936432631779,-10,-3,-16,49,-14,9,10,19
1501936432631779,-5,3,36,40,-2,-6,-4,-16
1501936432631779,16,0,-12,-2,8,0,7,14
1501936432631779,-40,-9,-16,69,-6,-10,-15,-64
1501936432646788,3,0,10,36,22,-2,-3,-5
1501936432646788,9,6,-7,50,1,1,0,-5
1501936432646788,-3,1,-1,-49,-20,6,6,11
1501936432646788,14,0,-9,-128,-13,4,1,22
1501936432668802,2,-4,3,94,4,-5,-2,-6
1501936432668802,-7,-3,18,9,31,4,3,9
1501936432669769,7,8,13,-43,-9,1,0,17
1501936432669769,-1,-5,-24,-58,-23,-1,-3,-4
1501936432691788,3,1,-3,-96,-6,-1,4,5
1501936432691788,-2,3,1,16,20,6,13,3
1501936432691788,1,1,11,15,37,3,-6,-2
1501936432691788,2,0,7,82,40,1,-1,3
1501936432705771,10,8,43,-78,-49,-9,-4,19
1501936432705771,14,-3,-50,-69,-12,4,3,19
1501936432706771,-23,1,1,-28,36,7,7,-37
1501936432706771,-1,-4,10,-9,-34,-6,2,-1
1501936432728832,2,-7,-26,0,26,2,-11,0
1501936432728832,11,-1,-24,-59,-11,-13,-6,-6
1501936432729783,-30,-13,-23,77,-3,-2,-10,-30
1501936432729783,20,4,2,-87,-5,10,3,50
1501936432751773,-12,1,18,61,17,5,16,-35
1501936432751773,-10,-7,-10,-65,-49,-10,-9,-18
1501936432751773,7,-2,-10,-23,3,-6,-10,9
1501936432751773,-1,1,0,14,-23,-4,-6,1
1501936432765802,6,-1,-2,-22,10,5,4,30
1501936432765802,-36,-4,2,53,6,-1,0,-40
1501936432772779,12,4,22,-12,-4,1,-5,6
1501936432772779,-11,-3,-11,-31,-20,-2,-10,-18
1501936432788811,0,-8,-30,6,-28,-13,-8,0
1501936432788811,7,7,26,98,16,5,8,1
1501936432789775,6,5,18,34,-11,-3,2,2
1501936432789775,-7,-2,11,41,-7,0,-6,-10
1501936432811787,2,-1,-24,-52,14,2,5,-5
1501936432811787,1,6,8,48,-11,4,2,4
1501936432812787,5,-9,-28,32,-30,-13,-6,2
1501936432812787,9,3,-11,7,8,3,5,0
1501936432825818,5,8,23,-25,8,11,3,9
1501936432825818,-5,-12,-32,-30,-44,-18,-14,-13
1501936432832810,11,2,20,-3,27,3,2,31
1501936432832810,13,1,-5,-29,-8,-1,6,3
1501936432848820,-26,-2,-2,-54,33,2,-6,-22
1501936432848820,10,3,14,15,12,3,6,11
1501936432849785,-9,-4,-14,35,20,-2,-13,-3
1501936432849785,2,-4,0,-104,-58,-10,12,9
1501936432870780,17,-1,3,70,5,3,5,12
1501936432870780,19,4,26,44,35,7,-5,16
1501936432871787,-11,10,46,35,5,-3,6,-21
1501936432871787,-4,-7,-1,-11,25,3,-14,10
1501936432885788,-7,-8,2,62,5,-14,-6,-57
1501936432885788,-13,-2,-13,-57,-41,2,10,-7
1501936432892787,4,0,13,-112,15,5,-3,0
1501936432892787,-6,1,-20,12,-1,2,5,-6
1501936432908822,-5,-7,-29,-61,-23,-10,-8,8
1501936432908822,1,-3,2,-21,21,-7,-9,3
1501936432909782,-3,-2,-4,54,-11,-3,8,-8
1501936432909782,-8,-7,-18,-9,10,-4,-6,-8
1501936432930825,5,4,-1,-20,-10,8,3,15
1501936432930825,-1,-2,10,14,20,3,-6,-5
1501936432931816,0,-8,-29,-77,-37,-3,6,8
1501936432931816,13,4,9,6,27,0,-5,21
1501936432945827,-2,1,-2,26,-2,2,-3,1
1501936432945827,-4,1,6,-34,11,4,2,-3
1501936432952828,5,-1,-17,-83,-11,-1,-8,0
1501936432952828,-5,-10,-34,-37,-17,-5,1,-10
1501936432968795,-4,-1,3,-25,-7,1,-6,-5
1501936432968795,0,-2,-19,-79,-8,-1,6,9
1501936432969785,4,-3,-18,-37,-17,-5,2,8
1501936432969785,-4,2,8,3,0,-4,2,-4
1501936432990835,3,0,-4,-20,9,3,-9,-2
1501936432990835,-1,-5,-30,111,9,6,1,-3
1501936432991788,0,1,6,0,-18,-7,3,-11
1501936432991788,6,-1,14,59,0,0,5,31
1501936433005853,-3,-3,-36,-36,0,2,-4,-22
1501936433005853,-1,1,12,41,9,-2,-15,-9
1501936433012828,6,-2,-10,-57,-33,-5,-1,4
1501936433012828,-12,2,7,-39,2,1,12,-2
1501936433028847,-1,-1,15,58,11,-2,-7,7
1501936433028847,-2,-11,-34,-56,-22,-6,-5,2
1501936433029788,1,-1,0,116,26,0,-7,-5
1501936433029788,3,-9,-29,12,19,-5,-1,-24
1501936433051790,5,7,19,-28,-52,-1,5,42
1501936433051790,-4,-1,-12,-48,4,0,-4,-56
1501936433051790,-4,-2,16,8,-18,-4,-2,1
1501936433051790,2,3,10,-8,30,5,-4,-33
1501936433065791,-4,-6,-9,-35,7,-2,-5,-6
1501936433065791,2,1,2,5,0,-4,2,26
1501936433072819,15,5,0,-39,0,7,-1,4
1501936433072819,-18,-3,-1,31,-13,-3,-3,-21
1501936433088797,-15,-5,15,2,-27,-13,-7,-7
1501936433088797,-5,-2,9,16,7,-2,4,6
1501936433089791,-1,0,-12,-72,-20,6,-1,-5
1501936433089791,5,-2,-6,8,11,0,5,43
1501936433111791,-3,-2,7,-68,-35,-7,3,-52
1501936433111791,8,7,24,43,17,1,-3,18
1501936433111791,-12,-6,4,-30,12,-3,-3,-13
1501936433111791,4,-1,-1,47,19,6,-1,18
1501936433125799,5,8,26,79,-1,5,0,9
1501936433125799,-9,-21,-4,64,-26,-19,-2,-13
1501936433132794,6,6,14,22,13,3,6,5
1501936433132794,-6,4,9,28,1,-1,-12,-11
1501936433148794,6,1,3,18,41,3,9,19
1501936433148794,5,3,15,-57,-5,4,-2,-2
1501936433149796,-4,4,28,127,21,2,7,13
1501936433149796,11,-5,-14,-41,-38,-6,-11,2
1501936433170824,-1,-4,-13,18,12,7,7,18
1501936433170824,30,0,3,69,4,-7,-10,6
1501936433171797,-24,-3,-12,-41,-23,-8,5,-1
1501936433171797,3,5,10,-59,-16,2,-1,-4
1501936433193830,6,0,13,13,-8,1,-6,2
1501936433193830,0,-2,-48,50,21,7,2,7
1501936433194799,3,-5,-13,85,21,-1,4,3
1501936433194799,-5,7,32,30,9,4,-2,0
1501936433216798,4,-6,-27,8,1,-7,6,-16
1501936433216798,-8,7,25,-9,7,1,-7,-24
1501936433217799,-10,-6,-36,-104,6,-4,-1,-6
1501936433217799,-18,1,14,-48,-3,3,0,-25
1501936433231823,4,1,7,50,35,1,-4,20
1501936433231823,-2,1,1,8,-17,2,11,14
1501936433231823,-3,-8,-50,39,-25,-4,-3,-14
1501936433231823,4,-2,11,5,16,-4,-2,3
1501936433253800,29,0,-19,6,-2,2,-12,30
1501936433253800,-17,1,14,-12,-9,-5,7,13
1501936433254802,18,9,29,5,32,14,-3,25
1501936433254802,-44,-13,-17,46,-8,-8,3,-76
1501936433276803,13,0,-9,-44,-10,-10,-9,28
1501936433276803,0,11,41,-5,28,20,6,38
1501936433277803,10,1,8,-62,-36,-9,-3,-5
1501936433277803,22,5,-21,-42,-6,4,-3,24
1501936433291832,-2,-5,16,56,19,-1,8,22
1501936433291832,-29,-7,16,98,26,-8,-20,-14
1501936433291832,1,9,16,-11,35,9,21,-19
1501936433291832,-6,-7,-42,-16,-55,-8,2,-3
1501936433313832,-4,-3,-1,-115,-33,-9,-8,-18
1501936433313832,10,-3,-14,67,29,1,-7,-7
1501936433314805,-27,0,25,113,4,7,-1,0
1501936433314805,-20,-10,-47,-120,-38,-12,-7,-28
1501936433336807,-7,-5,-11,56,11,3,0,6
1501936433336807,17,-2,-17,-128,-40,-3,3,34
1501936433337807,-10,-6,18,74,36,-8,-15,-44
1501936433337807,13,4,26,16,43,4,-1,0
1501936433350835,-23,-2,3,-37,0,4,2,-29
1501936433350835,12,0,-10,-32,-25,-4,3,6
1501936433358818,-3,-2,3,76,42,3,-5,2
1501936433358818,48,13,32,-40,-42,0,1,39
1501936433373847,-10,1,-11,89,24,0,7,-25
1501936433373847,-24,7,26,-59,-41,-7,9,-39
1501936433374809,9,-3,-19,-57,0,-2,-8,-25
1501936433374809,-8,-1,21,60,-3,6,-10,19
1501936433396869,-11,3,19,-75,22,5,9,-10
1501936433396869,-2,-8,-42,2,-48,-7,-7,0
1501936433397809,13,-1,3,-88,-24,-6,-3,7
1501936433397809,1,-5,-15,127,38,2,8,2
1501936433410822,-11,-3,-16,4,-36,-13,-9,-18
1501936433410822,1,-1,-13,56,23,2,2,25
1501936433418810,-13,-4,-22,-74,-23,-3,-14,-37
1501936433418810,-26,-5,-9,97,39,5,12,-9
1501936433433814,3,-2,9,8,39,5,-6,18
1501936433433814,-8,-2,0,-54,-19,-5,5,-3
1501936433434813,-3,-2,2,58,-5,-9,-4,1
1501936433434813,6,6,30,61,45,10,-1,-4
1501936433456815,-21,1,-9,-36,-41,-5,8,-17
1501936433456815,-24,-24,-65,-51,2,-11,-24,-17
1501936433457885,26,9,16,34,-1,2,15,1
1501936433457885,-9,-1,35,17,17,2,10,10
1501936433470877,8,-3,-31,1,-2,-1,-9,-4
1501936433470877,-4,5,21,26,1,6,-3,4
1501936433478878,-20,-2,-7,55,-27,-5,1,14
1501936433478878,9,-3,-11,-34,-13,-9,-11,11
1501936433493822,4,5,6,-15,8,13,12,3
1501936433493822,10,3,-2,-47,0,-1,-7,-25
1501936433494817,-15,-9,-30,-44,-3,3,8,-59
1501936433494817,-13,0,5,10,-7,-4,-2,-8
1501936433516849,2,-1,20,7,-51,-10,-16,3
1501936433516849,13,1,14,94,30,-6,7,7
1501936433517817,18,1,-12,-83,-31,8,0,35
1501936433517817,0,3,-11,8,6,6,5,12
1501936433530844,-10,-3,5,114,48,1,-4,-12
1501936433530844,7,7,42,63,-24,0,12,-9
1501936433538826,-3,-7,-9,-22,-11,-8,-11,28
1501936433538826,-10,-9,-9,-83,-8,-6,2,0
1501936433553816,17,-3,-29,20,-7,-2,-7,47
1501936433553816,-6,3,9,-18,14,5,2,-8
1501936433554832,-1,-4,-23,-38,9,-5,-10,22
1501936433554832,-6,-4,-12,6,-41,-8,4,-43
1501936433576852,17,3,4,-116,-12,-1,-5,4
1501936433576852,-14,-4,24,51,-2,-9,-6,-7
1501936433577820,4,4,9,62,28,6,8,21
1501936433577820,-7,-1,11,-9,3,-1,-12,-8
1501936433590853,20,-6,-16,-122,-38,-10,-5,10
1501936433590853,-1,-2,-28,-45,3,1,5,19
1501936433598819,-12,-3,1,27,12,-6,-9,-33
1501936433598819,0,1,12,-8,-22,-1,2,8
1501936433613878,-12,0,6,85,24,6,4,-41
1501936433613878,8,0,2,-82,-19,-13,-12,6
1501936433614821,5,-2,26,99,0,7,8,22
1501936433614821,7,-6,-32,16,10,-2,-5,2
1501936433636860,-12,-1,-6,91,33,2,3,-10
1501936433636860,-3,4,15,0,-42,1,-7,-30
1501936433637822,5,3,-1,-46,0,-3,12,28
1501936433637822,3,-1,15,39,33,-1,-2,-26
1501936433650894,7,2,-19,-64,-26,0,-2,0
1501936433650894,7,1,9,42,29,5,0,3
1501936433658862,-19,-5,-18,-75,1,1,-2,-19
1501936433658862,10,2,-22,-87,-14,-5,-5,20
1501936433673843,-5,-4,13,40,-21,-2,8,14
1501936433673843,-1,-6,-36,-13,20,1,-9,-17
1501936433674823,-3,-5,10,76,-6,-6,0,1
1501936433674823,7,-2,0,51,13,-3,-5,3
1501936433696834,-19,0,-3,-27,-1,-7,-15,9
1501936433696834,2,-3,-19,-5,-10,-2,25,-20
1501936433697826,13,4,16,-4,-2,6,-5,14
1501936433697826,13,-5,-28,-25,1,-1,0,15
1501936433719859,-8,1,12,40,-4,-3,-4,-13
1501936433719859,1,0,7,-13,10,7,-1,8
1501936433719859,-2,-5,-23,-51,-1,-13,-4,2
1501936433719859,0,3,9,-28,-12,3,0,-1
1501936433733829,7,-2,-2,-7,8,1,7,16
1501936433733829,-6,4,10,-31,14,8,2,8
1501936433734827,18,3,35,116,16,-1,-8,19
1501936433734827,-4,-3,-15,-113,-79,-12,1,30
1501936433756857,-9,-1,13,88,9,5,9,-9
1501936433756857,10,-1,11,41,24,2,1,5
1501936433757829,-7,1,4,-3,-18,-4,-4,-6
1501936433757829,-3,-5,4,8,7,1,-6,10
1501936433779867,4,0,0,-29,17,2,5,-16
1501936433779867,5,6,31,32,-16,1,2,-1
1501936433779867,-3,-14,-42,-37,-2,-1,-5,12
1501936433779867,-8,3,16,61,21,3,24,-5
1501936433793871,-1,4,0,-52,-16,1,-7,-13
1501936433793871,-9,-3,-21,-63,-10,-6,-5,-6
1501936433794849,1,0,5,40,16,0,-3,22
1501936433794849,-2,2,-2,-52,0,-3,0,-12
1501936433816865,7,-4,10,-28,4,1,-4,13
1501936433816865,-1,-1,-3,-33,-32,-1,4,-1
1501936433817833,-16,-1,4,-42,-9,-3,3,12
1501936433817833,-30,-3,10,17,14,-3,-12,-45
1501936433839834,5,3,1,-56,-24,-1,6,0
1501936433839834,2,-5,-25,52,7,-4,-20,24
1501936433839834,-15,-2,10,43,0,1,3,-47
1501936433839834,11,0,6,70,30,3,7,18
1501936433853894,-8,-2,-9,-57,-30,-6,0,22
1501936433853894,-19,-4,-2,55,20,0,-5,-12
1501936433854834,15,10,20,14,5,2,-4,3
1501936433854834,-13,-6,-17,-5,-19,3,1,3
1501936433876875,-11,1,3,99,37,6,1,-1
1501936433876875,16,-4,-4,-123,-31,-7,3,27
1501936433877835,-1,2,13,35,-26,-5,-3,-13
1501936433877835,8,4,-2,-29,-14,-1,-4,6
1501936433899907,-3,-7,-9,-9,-4,-5,3,9
1501936433899907,14,2,9,49,13,-3,0,13
1501936433900837,4,-8,-22,-14,8,5,-13,-25
1501936433900837,-19,1,4,-42,-15,1,16,-6
1501936433913874,6,0,-17,-4,-9,1,-9,-10
1501936433913874,8,0,8,40,16,-4,9,8
1501936433914841,1,1,-1,-63,6,9,2,4
1501936433914841,2,5,10,19,-3,-5,-6,-25
1501936433936872,1,-7,-38,-92,-2,-2,-4,11
1501936433936872,-17,-1,4,91,32,1,-1,-51
1501936433937840,8,4,4,-38,-19,1,6,3
1501936433937840,-4,-4,-9,-49,-18,-7,-13,-1
1501936433959861,-6,3,11,12,7,-6,2,2
1501936433959861,12,3,-16,-31,20,10,-5,4
1501936433959861,6,-2,8,68,-24,-11,-10,34
1501936433959861,-2,2,2,-13,8,1,18,7
1501936433981906,17,4,16,-20,7,3,0,-3
1501936433981906,13,-4,2,-10,-8,5,4,17
1501936433982841,-25,1,-21,-39,6,4,-4,-55
1501936433982841,-2,-3,17,-6,-8,-3,-9,4
1501936433996851,2,-6,-21,69,15,3,1,-7
1501936433996851,-4,-2,13,31,-3,-4,0,-9
1501936433997843,6,-6,-30,-102,-30,-10,-4,4
1501936433997843,14,7,18,120,10,-2,-8,4
1501936434019883,-14,-10,-24,45,-14,-11,4,-13
1501936434019883,-15,-2,-10,39,22,5,-10,-16
1501936434019883,19,-4,-18,-55,-2,-1,9,25
1501936434019883,0,0,-6,20,1,-3,-9,4
1501936434033872,13,-1,-4,13,23,5,-1,25
1501936434033872,-33,-4,-11,-69,-37,-12,-2,-57
1501936434034846,-7,0,26,86,26,2,8,3
1501936434034846,6,-5,-16,-63,-4,3,-8,-10
1501936434056851,17,8,42,0,-15,1,0,24
1501936434056851,-20,-8,-34,-90,-13,-7,1,-34
1501936434057847,-14,5,27,66,21,9,4,-20
1501936434057847,11,-5,-8,26,4,-6,5,-4
1501936434079874,-6,2,24,71,-20,-8,-15,-8
1501936434079874,9,7,20,-66,-14,19,11,28
1501936434079874,-2,-4,-10,55,7,-6,-1,-37
1501936434079874,0,1,-5,59,0,2,-1,8
1501936434093861,-11,-3,4,39,37,0,-6,-13
1501936434093861,2,4,11,-51,-27,-7,0,1
1501936434094850,-2,-4,-21,-48,-26,-2,-1,16
1501936434094850,11,2,0,60,23,0,3,33
1501936434116850,-20,-6,-10,-74,-13,-1,-6,-26
1501936434116850,8,-4,-3,15,1,-3,-1,24
1501936434117849,-6,-2,9,22,5,-4,-20,-20
1501936434117849,10,1,19,56,2,7,20,20
1501936434139858,-25,-1,-11,-88,-7,-4,-1,-33
1501936434139858,18,2,2,-15,15,1,-1,40
1501936434139858,-10,-5,-15,-11,-9,-6,-1,-19
1501936434139858,5,4,13,-47,-5,-2,-10,-8
1501936434153916,5,1,1,24,10,5,4,-1
1501936434153916,9,-5,-19,-9,-7,0,-6,24
1501936434154861,-8,8,33,13,19,-2,8,-8
1501936434154861,1,-13,-45,-89,-7,-3,-16,-9
1501936434176925,50,5,9,81,14,6,28,74
1501936434176925,-56,-3,-11,-57,-21,-4,-13,-73
1501936434177852,14,-1,-7,22,6,-11,-3,28
1501936434177852,-9,-1,1,1,10,15,5,-5
1501936434199856,5,4,21,-22,-21,-4,-5,7
1501936434199856,11,-6,-4,-33,2,-1,4,-8
1501936434199856,6,-5,-13,-29,-6,-7,-5,14
1501936434199856,-12,-1,6,4,11,-5,3,-11
1501936434213876,-10,-3,-13,-75,-15,-3,-12,-36
1501936434213876,12,6,31,77,18,4,5,13
1501936434214856,-12,-4,-26,-90,3,5,-9,-14
1501936434214856,3,-2,2,62,-16,-8,6,12
1501936434236889,-19,-4,-1,25,-4,-8,-18,-22
1501936434236889,-11,0,11,73,10,9,19,-6
1501936434237856,7,-2,-10,-21,2,1,-4,28
1501936434237856,-2,0,3,5,-6,1,-1,-20
1501936434259862,11,2,-3,2,12,-9,-4,7
1501936434259862,-8,-8,-29,30,-25,-7,-13,-9
1501936434259862,-20,4,29,74,4,10,16,-21
1501936434259862,5,-3,-18,-106,-9,-4,-6,22
1501936434273898,-6,-2,8,29,-5,-4,4,-9
1501936434273898,7,3,14,-1,9,1,-9,9
1501936434274858,8,-3,-5,45,-12,-10,2,8
1501936434274858,-5,2,11,49,19,10,-3,0
1501936434296900,-1,2,-4,17,-3,0,3,3
1501936434296900,1,0,5,-35,-24,1,-4,-24
1501936434297869,-9,-3,-5,23,-21,-9,5,35
1501936434297869,7,1,4,38,14,-2,-8,-13
1501936434319860,-8,2,14,-21,11,13,12,7
1501936434319860,0,-4,-27,-22,-9,-12,0,13
1501936434319860,11,2,3,11,32,9,0,6
1501936434319860,-2,-2,2,6,0,-4,-6,-4
1501936434332893,-15,-1,-19,51,7,8,1,-24
1501936434332893,8,-4,-2,11,-4,-12,-8,15
1501936434340894,-2,2,10,-55,-13,0,9,-12
1501936434340894,-16,-1,5,5,-2,2,-3,-39
1501936434356903,6,2,-14,-62,2,-1,2,-11
1501936434356903,-6,-5,-2,93,31,-1,-5,7
1501936434357872,-5,5,2,-38,-47,-2,6,-3
1501936434357872,-5,-3,-7,-19,-13,-22,-6,0
1501936434379879,7,2,21,68,-1,13,-3,4
1501936434379879,0,3,1,-22,8,2,3,-6
1501936434379879,14,3,21,45,-6,9,-1,5
1501936434379879,1,-3,-11,-65,-22,-10,-2,9
1501936434392863,-3,-5,2,7,8,-6,3,-11
1501936434392863,21,9,22,-18,18,10,4,27
1501936434400865,-5,-7,6,107,-2,-2,-6,-19
1501936434400865,-1,-2,-18,-99,-15,-3,3,10
1501936434416893,1,-2,-4,48,7,-5,-3,-2
1501936434416893,-7,4,22,-22,-1,4,-1,-15
1501936434417867,5,-6,-19,39,23,-5,-5,25
1501936434417867,-1,-2,-5,45,43,6,1,12
1501936434439867,-12,-2,-25,-114,-31,-11,-5,-12
1501936434439867,4,-2,13,42,-7,3,-1,20
1501936434439867,-4,2,-7,-24,15,-4,-1,-15
1501936434439867,-2,-13,-41,-74,-38,-5,-3,0
1501936434452880,19,2,5,47,-2,0,-4,62
1501936434452880,-16,-4,2,89,2,-8,-7,-51
1501936434460897,22,-1,-9,-52,14,-5,-8,29
1501936434460897,-9,8,39,37,5,19,2,-52
1501936434476869,0,-2,-4,8,-6,-6,3,-4
1501936434476869,-22,-4,-23,-27,-8,-3,-4,6
1501936434477870,1,-4,-15,-38,4,-2,4,-9
1501936434477870,3,7,21,17,3,-2,-1,18
1501936434499870,-4,-14,-32,-74,-18,-9,-8,1
1501936434499870,7,2,4,16,4,1,-2,-6
1501936434499870,-9,0,1,-49,-15,0,2,-1
1501936434499870,-1,-3,-14,-5,-13,1,-4,3
1501936434512869,-5,2,6,14,-6,-1,-2,-8
1501936434512869,5,-3,-14,-35,2,-13,0,7
1501936434520899,-7,-4,-2,-10,-1,11,-5,8
1501936434520899,16,6,10,58,-3,0,-3,10
1501936434536905,11,1,-16,56,7,4,-10,-3
1501936434536905,11,-2,-3,-37,-4,-20,18,21
1501936434537879,-15,-7,-21,-16,-29,7,-5,-19
1501936434537879,15,2,0,-44,17,5,1,8
1501936434559871,-24,3,18,-12,0,2,-4,-25
1501936434559871,3,0,-7,-15,3,1,-2,12
1501936434559871,0,5,17,118,26,2,2,-38
1501936434559871,3,-12,-30,-16,-17,-11,-3,8
1501936434572874,-4,1,17,38,8,2,3,4
1501936434572874,4,0,-20,-83,-20,1,-6,-18
1501936434580880,-7,-1,1,90,18,-1,-1,16
1501936434580880,6,3,-7,-17,-12,-3,6,19
1501936434596896,20,0,-4,1,12,2,25,9
1501936434596896,-21,1,-1,-4,-4,3,-13,-39
1501936434597873,10,-1,9,-9,0,0,8,31
1501936434597873,-10,-5,-2,-30,2,-6,-15,6
1501936434618881,0,0,8,-17,-23,-3,3,5
1501936434618881,5,2,-10,4,-15,1,-10,4
1501936434619880,6,-3,-4,-37,-2,-10,0,5
1501936434619880,-8,-2,11,88,29,18,3,-15
1501936434641875,-1,2,7,-62,-23,1,3,2
1501936434641875,-2,-7,-21,-8,26,-4,-3,6
1501936434642876,-4,1,-1,-128,-42,-8,-2,-1
1501936434642876,-8,0,7,14,6,-7,-4,-13
1501936434656886,-16,-10,-26,-22,-17,-3,-5,-13
1501936434656886,7,3,18,60,7,7,-3,7
1501936434657878,-5,-3,-22,-27,-3,-9,-8,-13
1501936434657878,2,-2,7,38,-4,-4,9,-15
1501936434679883,-5,5,13,87,40,10,1,-8
1501936434679883,-1,0,12,-13,-38,-3,3,2
1501936434679883,-12,-5,13,-42,-23,-5,4,-7
1501936434679883,6,-1,-12,5,-26,-11,-16,6
1501936434701905,-4,0,0,11,13,-2,-3,2
1501936434701905,-5,-5,-11,1,-1,0,0,-21
1501936434702902,6,2,12,59,20,-1,1,-3
1501936434702902,-1,-2,-3,14,-10,-9,0,12
1501936434715903,-21,-5,-6,-32,11,1,-6,-37
1501936434715903,6,-2,0,39,-16,-13,4,19
1501936434716881,-7,4,21,54,19,23,5,-8
1501936434716881,-23,-4,-7,5,3,-6,-7,-46
1501936434739882,19,-3,-14,-13,-2,-5,9,26
1501936434739882,3,1,24,64,20,3,0,5
1501936434739882,-3,2,-32,-55,28,1,-14,-15
1501936434739882,27,-2,12,75,-37,-10,8,54
1501936434761915,1,4,17,66,19,3,-1,-9
1501936434761915,-3,-4,-14,-46,-18,2,-2,-1
1501936434762883,0,-7,-20,51,-3,-8,-2,-4
1501936434762883,2,2,-3,-64,12,12,8,13
1501936434775927,1,-5,-8,-6,-14,-8,-16,-6
1501936434775927,-2,0,-2,-20,11,-1,5,2
1501936434776883,14,7,20,-55,-3,5,4,43
1501936434776883,-11,2,19,72,48,4,1,-10
1501936434799897,-10,-10,-19,-69,-81,-15,-4,16
1501936434799897,-5,4,5,9,7,-4,3,-33
1501936434799897,5,1,8,28,-4,8,-2,-1
1501936434799897,-11,-5,-20,-46,7,1,-5,-15
1501936434821885,11,1,6,43,32,3,-6,7
1501936434821885,-15,-4,-8,-80,-51,-7,-3,1
1501936434822886,-14,1,-3,-2,-25,-10,-5,-12
1501936434822886,7,3,22,105,32,7,1,-1
1501936434835907,-2,-1,1,-57,-14,-2,-1,-7
1501936434835907,14,-4,-20,-57,-1,-1,0,10
1501936434836890,3,0,2,1,-2,-1,-2,-10
1501936434836890,-19,-1,-8,-39,0,10,6,-8
1501936434859892,0,2,1,-5,20,-2,1,6
1501936434859892,-5,2,28,5,5,3,4,-34
1501936434859892,0,0,-4,7,-10,-3,-12,-5
1501936434859892,-4,-3,-6,49,8,-5,18,7
1501936434881938,9,3,1,-47,-19,4,-7,4
1501936434881938,-1,-2,6,97,5,0,0,5
1501936434882890,1,4,13,54,10,-6,0,-11
1501936434882890,1,-3,-23,-75,-15,9,-7,-4
1501936434895964,-1,-4,6,61,2,-5,5,8
1501936434895964,3,-3,-22,-52,13,2,-5,12
1501936434904894,12,-4,-14,29,22,3,0,15
1501936434904894,-18,-2,5,-41,-85,-26,-7,-34
1501936434919892,-7,0,-4,-26,-3,4,9,-15
1501936434919892,1,2,22,57,31,8,-7,8
1501936434920899,1,-7,-15,-29,-10,-4,3,1
1501936434920899,6,2,0,-104,0,3,-11,-2
1501936434941953,-4,-4,0,24,11,-2,-6,10
1501936434941953,14,0,-14,79,-28,-2,17,7
1501936434943935,-14,-5,-3,-125,-39,-8,-7,-12
1501936434943935,3,-1,-20,35,-5,-7,-1,15
1501936434955967,-1,2,-4,22,5,-1,-11,-23
1501936434955967,2,-5,-8,-60,0,7,-10,16
1501936434964894,-1,0,8,60,16,-1,9,-3
1501936434964894,10,2,-6,-76,-3,2,7,12
1501936434978918,-5,2,13,8,6,-5,-10,-32
1501936434978918,4,-3,-25,-10,18,-2,2,8
1501936434980895,-4,3,16,-53,-25,6,1,-14
1501936434980895,4,-5,-20,-53,-12,-8,-3,-7
1501936435001919,3,-1,-9,15,16,-1,2,11
1501936435001919,-9,1,14,101,25,8,-1,0
1501936435003903,-3,-5,-3,-3,-14,-11,1,6
1501936435003903,1,3,12,87,28,10,-15,-5
1501936435015920,0,-4,-10,17,38,6,16,13
1501936435015920,-8,1,-5,-57,-33,-8,0,-24
1501936435024897,2,7,19,15,27,6,-2,2
1501936435024897,3,-1,15,52,8,-9,-1,1
1501936435038967,-3,-6,-5,14,-25,-5,-8,4
1501936435038967,-2,-4,-11,-33,-8,9,10,6
1501936435040922,0,0,-3,-11,8,-1,-3,-3
1501936435040922,-11,4,17,69,39,6,9,-6
1501936435061922,0,-3,-15,-98,-54,-9,-7,9
1501936435061922,-11,-2,16,47,16,-10,-3,10
1501936435063906,-4,-5,-21,-13,-15,-1,1,9
1501936435063906,5,3,17,45,24,4,-16,-17
1501936435075907,5,1,-5,22,-21,2,8,9
1501936435075907,-21,-10,-9,-23,-19,-10,-14,-48
1501936435084907,-1,1,-2,-22,-6,2,5,1
1501936435084907,-14,-8,-27,-21,-15,-7,2,-3
1501936435099919,1,5,6,8,29,6,-1,-17
1501936435099919,2,0,-1,29,-8,-4,-4,3
1501936435100901,-1,-4,-3,16,7,-1,-7,1
1501936435100901,-3,1,13,-34,-22,-8,4,5
1501936435121926,5,3,-5,28,15,5,9,23
1501936435121926,-2,-4,19,-43,-1,5,-2,4
1501936435123907,-10,-2,-15,-19,-11,1,3,-15
1501936435123907,6,2,0,23,-6,0,-4,16
1501936435135976,-7,-5,6,90,39,-6,-5,-17
1501936435135976,9,3,-3,-7,-22,-1,-4,7
1501936435144919,0,-1,19,42,11,0,5,0
1501936435144919,-4,-4,-25,-85,-22,-3,-1,-18
1501936435159904,5,-4,7,-1,4,0,0,23
1501936435159904,0,3,7,-44,-3,1,1,15
1501936435160904,-10,0,9,-21,-10,-4,-6,-19
1501936435160904,4,-2,-23,-11,-12,-2,2,6
1501936435181975,-8,0,-4,19,-10,-1,-12,-17
1501936435181975,4,1,-7,26,23,4,14,7
1501936435183950,21,-2,-13,8,12,-10,-5,19
1501936435183950,-8,4,30,-1,2,8,0,-9
1501936435195976,-8,-7,-3,-6,-8,4,9,-4
1501936435195976,3,-2,-14,-23,-6,-7,-12,-26
1501936435204950,3,1,6,23,11,2,5,4
1501936435204950,4,1,24,19,12,1,-1,19
1501936435219931,1,-2,-45,-97,-18,-5,-2,-23
1501936435219931,0,-7,2,-20,7,-3,-2,12
1501936435220909,1,-1,3,95,7,-5,-4,-8
1501936435220909,3,3,10,38,11,5,0,-4
1501936435241976,-4,-2,-5,-38,-4,1,-2,-2
1501936435241976,-2,3,11,96,43,4,0,9
1501936435243952,0,-6,-17,-82,-39,-8,-8,-7
1501936435243952,0,-2,1,17,4,5,2,8
1501936435255978,2,6,28,28,-2,-12,3,8
1501936435255978,9,2,1,49,20,13,-12,-12
1501936435264919,-21,-9,-3,-11,-15,-4,8,-13
1501936435264919,14,2,-9,-65,-3,5,1,10
1501936435278960,-12,-1,30,37,6,-1,8,7
1501936435278960,-3,-3,-3,-37,-30,-7,-2,9
1501936435280911,7,2,4,-10,4,-2,-5,5
1501936435280911,-16,-3,3,-24,-3,-5,-1,-34
1501936435302936,8,1,-1,-3,-2,5,-11,-1
1501936435302936,-3,1,-1,4,3,-3,-3,2
1501936435303923,1,2,5,34,17,6,7,12
1501936435303923,0,-2,-7,-1,5,2,6,8
1501936435315937,-4,-2,13,-22,-10,-8,-7,-10
1501936435315937,-2,-1,-18,-18,-1,-6,-7,-7
1501936435324915,-1,-1,-10,-35,-5,1,4,3
1501936435324915,7,-4,-9,20,16,8,1,32
1501936435339914,-1,-1,-10,-15,6,5,1,-9
1501936435339914,-10,0,9,46,4,0,3,0
1501936435340916,-1,-2,-12,-41,-12,-9,-13,-8
1501936435340916,2,2,16,35,0,1,13,8
1501936435361939,1,1,-20,-67,-2,7,3,-2
1501936435361939,4,0,-3,65,6,-6,3,20
1501936435363919,0,-1,0,-22,-34,-7,-6,1
1501936435363919,7,-1,-2,23,1,-3,-6,-5
1501936435375925,-5,-3,-15,-31,-20,-3,-5,-8
1501936435375925,19,4,0,-82,-12,4,4,10
1501936435384919,-13,2,6,57,68,16,4,6
1501936435384919,-4,-2,-3,-78,-38,-14,-25,-59
1501936435398925,16,-6,8,66,6,-5,14,17
1501936435398925,-11,6,22,53,8,3,1,12
1501936435400918,1,-6,-7,100,10,-2,-6,-13
1501936435400918,-6,-4,-7,6,-6,-23,-6,6
1501936435421942,0,0,0,-4,9,22,-4,-5
1501936435421942,-2,2,10,3,12,2,4,-17
1501936435423921,0,3,8,-31,-4,-2,1,9
1501936435423921,-11,-4,-18,24,6,-4,2,-4
1501936435435941,-12,-5,-15,-11,-43,-15,-10,-25
1501936435435941,9,-3,-12,-10,6,-1,1,23
1501936435444922,3,-1,-9,-6,-1,5,-3,-17
1501936435444922,-1,2,18,3,-8,0,-6,2
1501936435458922,2,3,14,-37,10,1,8,18
1501936435458922,-8,-11,-35,-59,-17,-1,-2,-12
1501936435460923,-8,2,2,-27,-14,-7,-1,-28
1501936435460923,4,1,1,-6,10,8,-1,5
1501936435481929,1,6,23,2,-2,4,6,-1
1501936435481929,-5,-12,-9,108,1,-18,-13,-5
1501936435483946,9,5,23,-57,-26,-16,8,19
1501936435483946,-6,-9,-26,-7,-8,22,-5,-1
1501936435495922,-9,5,37,117,69,14,3,-1
1501936435495922,30,-7,-41,-86,-59,-13,10,52
1501936435504925,-17,-2,4,50,15,-1,-12,-16
1501936435504925,0,0,5,-10,-9,-10,-6,10
1501936435518925,-6,0,-20,-83,5,0,12,-3
1501936435518925,-10,0,10,-15,2,0,-2,-7
1501936435520926,3,-2,-9,-35,-5,3,-7,-1
1501936435520926,-3,-2,-6,-11,5,-2,12,3
1501936435541931,0,0,3,1,-10,-5,-15,-8
1501936435541931,6,-3,-14,-80,1,-1,-1,-2
1501936435543930,-2,-2,-11,31,30,10,2,6
1501936435543930,0,3,11,-51,-29,-7,4,1
1501936435571960,0,-5,2,77,-6,-11,-5,11
1501936435571960,-6,3,14,11,10,9,-3,-25
1501936435573928,11,2,4,-22,15,-7,2,12
1501936435573928,5,-3,-11,61,-10,18,11,16
1501936435578933,-1,-1,0,-81,-23,-8,-4,22
1501936435578933,-13,2,7,13,16,7,-4,-54
1501936435580929,-17,-11,-23,23,-26,-11,-5,-8
1501936435580929,7,4,9,45,19,-6,5,14
1501936435601952,1,2,5,-42,-19,-2,-1,-4
1501936435601952,-4,-1,2,5,0,0,5,-1
1501936435603929,7,3,1,-38,5,11,1,6
1501936435603929,-6,-3,-2,63,34,-6,-7,-20
1501936435623998,-2,-10,-56,-29,-42,-6,-14,-11
1501936435623998,-6,1,9,-3,-4,-3,10,-1
1501936435625936,9,-3,0,5,1,3,4,22
1501936435625936,-10,-1,0,-8,0,-12,-3,-31
1501936435639004,4,2,-7,16,11,13,-3,-4
1501936435639004,-5,0,10,-79,-17,-3,-1,-7
1501936435640954,0,0,-9,1,-15,0,-6,1
1501936435640954,-7,-5,5,-2,1,-7,-2,16
1501936435661968,2,1,15,-20,16,0,8,6
1501936435661968,-3,-4,-10,68,-6,-7,-9,-14
1501936435663934,-2,-2,8,28,2,5,4,-1
1501936435663934,1,-5,-22,-80,-2,-1,-4,5
1501936435684956,-4,0,2,-55,3,-1,0,-4
1501936435684956,-4,-2,10,78,23,0,3,5
1501936435685933,0,-1,-20,-88,-42,-8,-6,-11
1501936435685933,3,-2,9,-15,-8,3,1,-3
1501936435698977,2,-2,10,66,-4,-16,-15,1
1501936435698977,4,-5,-12,24,17,17,18,18
1501936435700936,14,1,-10,7,15,1,0,-4
1501936435700936,-8,5,21,-33,21,-5,-7,-8
1501936435722009,0,-5,-18,48,-7,7,8,3
1501936435722009,-4,0,1,-56,-3,-6,-11,6
1501936435723957,5,1,18,34,25,3,3,-4
1501936435723957,-2,-2,-2,-38,-33,-3,-2,7
1501936435743938,-2,-2,1,-56,-19,-11,-4,-20
1501936435743938,-2,3,4,6,-4,-1,-7,3
1501936435745939,-5,2,7,102,22,9,2,-5
1501936435745939,-1,1,-6,-41,3,3,-3,-1
1501936435758938,1,-2,2,12,9,-4,5,7
1501936435758938,1,2,9,53,-7,-4,3,12
1501936435765959,-4,-1,11,47,5,-4,-8,2
1501936435765959,3,2,-34,-39,-25,4,10,7
1501936435781959,-4,-2,-12,23,16,-6,-5,-14
1501936435781959,-1,2,9,-32,-13,9,-2,4
1501936435783941,-4,-3,5,47,16,-4,-2,4
1501936435783941,-1,-2,-14,-26,-1,8,10,-11
1501936435804949,-1,-2,4,-47,-17,0,-5,0
1501936435804949,-6,-2,-22,2,2,-14,-5,-38
1501936435805963,-3,-7,-33,-106,-14,-1,-7,-1
1501936435805963,-3,2,13,114,2,-7,-3,-6
1501936435818982,4,4,18,41,15,1,5,3
1501936435818982,-6,5,27,3,15,9,0,-1
1501936435826009,1,-4,-19,-51,-23,3,8,10
1501936435826009,10,-1,19,-21,7,-2,-1,10
1501936435841992,-16,-4,3,57,15,-2,-4,-12
1501936435841992,-1,-2,0,-45,-12,-7,-7,2
1501936435843968,0,0,10,-22,24,-8,1,1
1501936435843968,-4,-2,3,109,15,15,1,7
1501936435864011,6,2,4,-64,-12,0,-4,1
1501936435864011,3,-2,-2,-67,-7,-4,5,19
1501936435865966,-4,3,23,104,45,10,-9,-23
1501936435865966,8,5,19,-55,-16,-13,-3,1
1501936435878943,2,-1,-10,3,-10,-1,0,8
1501936435878943,-2,-2,-8,94,23,1,-3,-3
1501936435885986,4,-3,-17,-111,-60,-9,-2,2
1501936435885986,-2,-1,10,85,41,4,0,-6
1501936435901988,-13,-1,-1,-15,-33,-2,3,-17
1501936435901988,1,-2,-23,-60,-21,-5,-6,5
1501936435903948,-9,2,22,22,12,4,3,-14
1501936435903948,-1,-5,-15,-89,-55,-12,-8,30
1501936435923980,11,1,-8,16,7,7,0,-35
1501936435923980,3,1,33,-9,18,-15,-4,2
1501936435925957,-9,-8,-34,-45,-33,6,-5,-12
1501936435925957,1,0,-3,69,30,9,5,11
1501936435938992,-9,-10,-28,42,2,-9,2,-1
1501936435938992,2,5,6,81,-10,2,1,-17
1501936435945999,-1,1,10,-50,-15,-15,-4,3
1501936435945999,-4,0,11,20,0,-1,-2,-5
1501936435961991,8,-1,-8,6,8,4,-6,1
1501936435961991,-7,-7,-18,-56,-19,0,-2,-7
1501936435963950,9,6,23,105,12,2,9,10
1501936435963950,-8,-12,-19,-58,-2,-7,-6,-5
1501936435984015,-5,7,35,28,-5,-6,3,-4
1501936435984015,7,-3,-21,-98,3,5,-13,5
1501936435985975,0,-3,3,61,-9,-4,2,16
1501936435985975,-4,1,2,88,16,5,0,-15
1501936435998970,9,0,5,6,26,2,-3,15
1501936435998970,-23,-3,-3,-10,-20,-9,-3,-28
1501936436005963,2,-6,-17,-7,2,-9,2,6
1501936436005963,-4,0,9,-35,1,7,-5,-12
1501936436022011,1,1,-2,20,30,0,-2,11
1501936436022011,-8,1,13,39,-14,-3,-2,-11
1501936436023958,14,2,-6,7,2,6,1,14
1501936436023958,-13,-9,-26,29,-8,-11,2,20
1501936436043985,-8,0,0,-83,-32,-2,-4,-25
1501936436043985,3,1,14,45,15,3,2,-13
1501936436045953,3,-2,-7,-99,-8,-3,-1,7
1501936436045953,0,7,29,28,-5,1,-16,-29
1501936436057990,0,-6,-6,9,0,3,10,19
1501936436057990,5,-4,-46,-70,-25,-3,4,7
1501936436066954,-6,-4,-3,-17,2,-5,-5,-6
1501936436066954,9,4,17,5,0,0,-7,1
1501936436082036,-6,-3,-4,35,0,-4,0,3
1501936436082036,10,-2,-3,108,31,0,4,2
1501936436083049,-16,2,4,-21,-38,4,0,-12
1501936436083049,5,1,6,2,9,1,-2,6
1501936436104054,-2,3,0,-30,-28,-6,-1,3
1501936436104054,-7,-3,20,113,4,0,13,22
1501936436106009,-11,-5,-32,-25,6,3,-4,-33
1501936436106009,-3,-2,-7,-28,-13,-6,-2,-24
1501936436118051,-8,2,25,73,30,3,-5,2
1501936436118051,2,-2,-17,-93,-14,-3,0,-3
1501936436127024,-7,-2,-1,25,-18,-9,-5,-5
1501936436127024,7,-3,-4,-11,6,1,1,6
1501936436142082,-10,-1,-25,0,20,3,-10,-4
1501936436142082,-7,-4,-5,-38,-5,0,7,9
1501936436144018,1,4,22,91,68,5,-14,-4
1501936436144018,4,-1,-13,-73,-61,-5,12,13
1501936436164059,12,1,-5,-12,-4,-10,1,15
1501936436164059,-4,1,11,2,14,20,-4,-8
1501936436166014,-1,-5,-20,-6,-2,0,8,4
1501936436166014,-3,-1,-1,24,11,-10,-6,-9
1501936436178058,4,-1,10,-46,-11,0,0,6
1501936436178058,0,4,4,53,8,-2,-5,27
1501936436187014,17,-2,12,-2,3,1,4,-5
1501936436187014,-15,-7,-22,4,-19,-7,-3,-9
1501936436202062,-4,-2,8,75,12,-4,-6,-16
1501936436202062,1,-3,-18,-57,13,2,-1,1
1501936436203038,3,3,5,12,-7,-3,-2,12
1501936436203038,6,3,13,23,15,6,7,11
1501936436224060,-13,-6,-1,-5,7,2,-3,-27
1501936436224060,5,2,20,21,-6,-14,-6,-9
1501936436226016,0,4,30,63,17,17,5,6
1501936436226016,-6,-11,-42,-128,-9,-7,-6,-5
1501936436238026,3,1,15,85,17,1,0,-2
1501936436238026,2,0,-1,-55,2,-1,-5,4
1501936436255017,-2,-3,5,27,-6,-10,2,-6
1501936436255017,5,4,5,42,28,-1,1,-1
1501936436262061,1,-2,-8,6,-16,10,-3,-2
1501936436262061,-2,-5,-21,59,-13,-13,-8,0
1501936436263057,-6,1,5,-21,1,7,5,-13
1501936436263057,-2,0,7,51,3,2,-3,-10
1501936436284064,5,-3,-21,-40,8,-3,-1,15
1501936436284064,-3,0,21,14,-3,2,1,-5
1501936436286019,2,0,2,-27,-10,3,-7,11
1501936436286019,4,2,14,19,11,2,5,4
1501936436298063,-3,-5,-9,-94,-19,-5,-7,-9
1501936436298063,6,-3,-8,-29,-11,0,9,7
1501936436307042,-10,-3,-25,-43,0,-3,3,-7
1501936436307042,-5,-1,17,25,-24,-3,-7,-4
1501936436322086,6,4,23,-3,15,1,4,13
1501936436322086,12,-5,-17,44,7,3,-14,-6
1501936436324027,-22,-1,5,4,-28,-14,3,-3
1501936436324027,-5,0,-9,-51,-18,4,0,2
1501936436344068,0,-1,-7,-65,-17,-9,-1,-2
1501936436344068,1,0,3,-8,-7,10,0,-2
1501936436346023,3,0,-1,-26,2,-4,-7,4
1501936436346023,2,8,19,-34,8,7,0,3
1501936436358087,-1,-9,-16,47,-24,-12,-8,3
1501936436358087,5,2,26,51,20,-1,7,21
1501936436367023,3,-3,-23,-51,-11,-3,2,14
1501936436367023,-1,1,4,-8,10,12,3,-10
1501936436382067,3,-1,-2,6,-2,7,3,1
1501936436382067,-6,0,2,-29,-3,-5,-8,2
1501936436383071,-8,-3,3,46,32,-1,2,-8
1501936436383071,3,1,8,4,-16,-15,-2,3
1501936436404062,-7,-6,-34,-116,-46,1,-7,3
1501936436404062,14,2,12,50,21,4,3,-3
1501936436406026,1,-7,-32,41,5,-1,1,6
1501936436406026,-10,-7,-25,-24,-5,-9,-12,-20
1501936436418089,5,2,5,55,20,2,1,9
1501936436418089,-13,3,8,-26,-18,1,5,-30
1501936436427049,5,-2,10,-14,-17,-7,-4,0
1501936436427049,0,-10,-40,-67,4,7,6,-3
1501936436442100,-3,-2,-5,21,-6,-5,-8,-6
1501936436442100,-20,-4,-3,15,1,-3,-4,-21
1501936436444038,2,2,6,-3,-5,7,1,10
1501936436444038,-2,-2,-2,29,12,1,-3,-9
1501936436464050,-1,5,22,61,9,-4,5,0
1501936436464050,7,2,23,-68,-14,-1,-2,13
1501936436466033,-2,-7,-22,15,-15,-6,-4,-2
1501936436466033,0,2,3,80,7,3,-3,7
1501936436478091,-1,-1,6,-16,5,-1,1,-13
1501936436478091,4,-3,-16,-47,-23,-7,-3,10
1501936436487032,5,10,34,112,16,4,-9,-2
1501936436487032,2,-3,-5,-21,-4,2,12,13
1501936436502093,-9,-5,-7,60,27,-5,-8,-3
1501936436502093,-8,2,-7,30,-13,-5,-3,-41
1501936436504033,2,-1,-13,-34,-31,-7,4,10
1501936436504033,4,2,19,93,26,11,0,15
1501936436524075,1,7,2,-83,-17,-8,-3,-4
1501936436524075,-1,-5,0,-26,5,13,-1,10
1501936436526034,0,0,7,43,26,-2,-2,-1
1501936436526034,-11,0,0,-43,-44,-13,-6,5
1501936436547098,4,-4,-18,-28,1,6,-3,-16
1501936436547098,-1,2,-4,-5,25,6,5,10
1501936436548049,-14,-4,6,-1,-6,-4,0,-15
1501936436548049,10,-4,6,7,11,-7,-1,18
1501936436562080,3,0,3,22,16,8,6,16
1501936436562080,-2,-3,-19,45,-6,-5,-9,1
1501936436564036,0,-4,-8,-26,0,5,9,-8
1501936436564036,-5,0,4,13,7,-3,-2,7
1501936436584102,-1,0,9,35,-4,-7,-10,-6
1501936436584102,-4,-4,-10,-38,-22,0,0,-9
1501936436586073,2,-3,-10,-25,-3,9,3,13
1501936436586073,3,3,3,-27,-8,-6,0,-20
1501936436607107,1,3,8,-11,-11,-1,6,-3
1501936436607107,-2,-1,-4,1,41,3,1,0
1501936436609047,2,7,7,-91,-15,-14,-8,0
1501936436609047,-9,-9,-23,10,-34,-1,-2,5
1501936436622081,3,-6,-23,-72,7,13,8,11
1501936436622081,-2,0,4,58,8,-4,-8,-10
1501936436624043,7,0,-1,-24,1,0,-5,-8
1501936436624043,0,1,19,45,21,0,1,2
1501936436644106,-3,-4,-18,39,1,-11,-8,5
1501936436644106,0,-3,-10,-21,-17,-6,11,6
1501936436646077,-4,-3,7,14,0,3,3,-7
1501936436646077,14,2,-4,-15,13,7,-7,30
1501936436667081,-3,-1,12,72,10,2,2,-24
1501936436667081,-6,-3,-5,-97,0,-7,-5,-4
1501936436669043,-1,2,5,46,-3,-5,-11,-3
1501936436669043,-1,-2,-6,-15,1,-1,7,-5
1501936436681067,-7,3,32,49,4,2,7,9
1501936436681067,4,-6,-22,12,-4,-10,-9,6
1501936436688108,0,-1,3,-53,1,-2,-1,-2
1501936436688108,-5,-1,-12,-55,-7,-7,-4,-13
1501936436704103,1,1,14,52,4,9,-3,8
1501936436704103,-7,-1,19,85,11,4,4,-11
1501936436706043,1,-1,4,53,6,-2,-3,11
1501936436706043,7,1,-2,4,7,-6,-2,-12
1501936436727111,-13,-3,9,18,-21,-16,-3,1
1501936436727111,2,0,-5,2,2,10,3,6
1501936436728045,-1,1,4,-30,-6,-1,0,-2
1501936436728045,-3,-4,-10,-14,-21,0,2,-4
1501936436741115,17,2,0,-53,-10,-1,-1,15
1501936436741115,-4,-3,0,-8,-11,-6,-10,-6
1501936436756055,0,0,0,8,6,-4,5,-1
1501936436756055,-6,-1,7,41,24,11,10,-1
1501936436764088,2,-2,-8,-51,-33,-13,-3,4
1501936436764088,2,4,12,2,-6,5,3,7
1501936436766048,-1,-6,-18,-12,0,0,-7,-16
1501936436766048,-2,0,1,2,-3,-2,0,6
1501936436787116,8,3,3,20,28,10,3,-3
1501936436787116,-7,-2,2,-75,-41,-22,-7,-10
1501936436788060,-4,-3,1,-17,-12,5,2,2
1501936436788060,-5,-1,7,5,-4,-5,-8,-15
1501936436801109,-5,-2,-10,-11,5,5,5,-3
1501936436801109,10,3,9,-20,7,3,6,21
1501936436808126,-3,1,-6,5,13,-1,5,-7
1501936436808126,-4,-7,-20,-43,-15,-3,-10,-11
1501936436824092,-2,-1,4,80,16,-3,-8,-7
1501936436824092,3,0,-5,-39,-12,-10,-5,3
1501936436826062,-2,-5,-8,-17,-6,8,13,1
1501936436826062,12,4,7,39,26,9,1,19
1501936436847090,-8,-2,7,2,-2,-7,-3,-12
1501936436847090,-5,1,-5,-29,-11,-7,-5,-4
1501936436848062,-2,-5,-9,-28,-6,0,-12,-5
1501936436848062,-7,0,15,36,7,-5,0,-13
1501936436861115,3,-3,-15,-19,-4,6,0,5
1501936436861115,-8,-1,2,-3,5,7,8,2
1501936436868069,3,4,22,66,-11,-7,-7,0
1501936436868069,0,-1,-12,-7,2,-1,2,0
1501936436884120,-7,-3,2,-30,8,-3,-3,-12
1501936436884120,0,-3,0,60,9,2,-4,-6
1501936436886054,3,0,3,61,32,5,3,6
1501936436886054,-4,-1,2,-69,-25,-2,-3,-10
1501936436907095,-5,-1,-5,0,-22,-8,0,-7
1501936436907095,8,-2,1,95,20,2,2,13
1501936436908055,-9,-1,-8,13,8,7,-2,-15
1501936436908055,3,7,22,10,22,-8,-4,-1
1501936436921122,-6,-7,-25,-28,-20,4,4,5
1501936436921122,0,-2,-3,5,1,-6,-2,-10
1501936436928056,0,-1,-5,-21,-7,2,-2,5
1501936436928056,-3,0,4,63,15,-5,-4,-3
1501936436944105,0,1,3,-47,-9,-1,1,2
1501936436944105,-3,-3,-6,-11,-21,1,-1,-3
1501936436946064,3,1,0,-76,-7,-6,-2,1
1501936436946064,-5,-4,-12,23,-10,2,1,-6
1501936436967100,5,0,0,-40,-10,-3,-4,4
1501936436967100,7,5,23,29,32,9,2,14
1501936436968059,-3,-4,-15,-36,-5,-5,-3,-6
1501936436968059,-2,-5,-7,59,0,2,3,4
1501936436981106,-5,-2,9,99,6,-3,-6,-2
1501936436981106,1,2,9,17,6,11,9,4
1501936436988098,-2,-1,3,-50,-12,-4,-5,-1
1501936436988098,1,-5,-11,-22,-11,-5,-9,-1
1501936437004103,5,3,-28,-88,5,12,19,11
1501936437004103,-12,-3,-1,53,5,-19,-11,-27
1501936437006063,-7,2,13,93,21,6,1,-4
1501936437006063,-2,-2,2,-12,-11,-2,0,-9
1501936437026128,-4,-3,-19,-66,-27,-5,-9,-9
1501936437026128,-2,-7,-30,-73,-10,0,-1,-2
1501936437034127,0,2,21,44,-3,-5,-5,7
1501936437034127,9,4,-4,91,23,3,-3,12
1501936437041082,-2,0,24,51,13,4,7,7
1501936437041082,-4,-2,-9,31,-11,-5,-7,-2
1501936437049134,3,-5,-2,47,8,-5,5,2
1501936437049134,-4,1,8,-10,-40,-4,-3,-6
1501936437064119,1,3,35,23,7,-4,-8,-2
1501936437064119,1,2,-4,-20,8,9,1,4
1501936437066066,-1,-4,-17,-37,-1,2,2,0
1501936437066066,-2,-1,6,81,11,0,2,-2
1501936437087129,-5,2,12,35,13,-1,-3,-12
1501936437087129,-2,-11,-16,-45,-10,-15,-9,-1
1501936437088100,3,-2,-12,21,-19,-8,-2,11
1501936437088100,-2,-5,-54,-111,-26,-2,6,0
1501936437101086,-3,-9,-30,-82,-30,-3,-9,-3
1501936437101086,9,4,20,67,19,5,9,24
1501936437109107,-7,-4,4,-4,-14,-10,-1,-6
1501936437109107,1,5,35,19,29,-5,-3,-3
1501936437124105,-2,-7,-35,-3,1,1,0,-7
1501936437124105,-4,0,-17,-40,-7,10,-7,-7
1501936437126067,2,2,7,-46,-3,3,5,7
1501936437126067,0,-2,1,-34,2,2,3,-2
1501936437147108,7,2,-14,0,14,5,2,10
1501936437147108,-2,1,20,31,1,-9,3,-5
1501936437148104,-3,2,7,14,-18,-6,-5,-15
1501936437148104,3,-3,-2,-18,5,2,4,10
1501936437161091,10,2,9,50,11,-4,-6,-4
1501936437161091,-2,1,2,-28,-8,4,-2,4
1501936437169109,-4,-3,-31,-6,-3,1,7,-4
1501936437169109,-1,-3,-22,-127,-23,4,-3,4
1501936437184087,-3,2,18,33,16,-8,-1,-3
1501936437184087,0,0,15,41,8,7,-1,14
1501936437186082,0,0,2,-3,4,-7,-5,3
1501936437186082,-13,-3,6,19,4,-7,-5,-22
1501936437207113,-5,-4,1,-13,-4,11,4,6
1501936437207113,-6,0,-11,-9,-4,-1,1,-14
1501936437208072,14,3,7,-1,3,-6,-5,21
1501936437208072,2,-1,2,-15,-26,2,2,-3
1501936437221090,2,1,6,66,13,-1,-6,-1
1501936437221090,-6,-3,-10,-1,-29,-15,5,-10
1501936437236073,2,-3,-5,2,4,12,-5,5
1501936437236073,1,2,20,12,10,-7,-3,0
1501936437244108,-3,-3,-7,-37,-19,3,4,2
1501936437244108,0,1,-1,-102,-6,-2,1,-1
1501936437246073,-7,-1,3,22,9,-3,-5,-17
1501936437246073,3,0,0,9,4,4,8,8
1501936437267137,-2,0,-6,-23,-9,-2,-2,-5
1501936437267137,4,-2,-8,39,20,1,0,-1
1501936437268111,-3,2,11,-19,-3,5,-1,-7
1501936437268111,-5,-4,-10,4,23,1,-3,-1
1501936437281093,-1,-1,7,-21,-7,-2,-1,1
1501936437281093,1,-2,-1,1,25,0,0,-5
1501936437289147,0,3,2,-13,-10,-8,-9,-8
1501936437289147,0,-2,-25,-31,6,13,1,8
1501936437304118,-1,-2,8,2,4,-9,-3,-7
1501936437304118,-1,-1,-5,-1,1,5,-3,-4
1501936437306084,-3,-3,-5,-4,4,0,2,1
1501936437306084,0,0,3,-72,-26,-8,-3,0
1501936437327077,-4,-5,-4,47,6,-4,-6,-5
1501936437327077,0,-3,-13,-39,-15,-3,-1,-2
1501936437328088,-2,-2,5,-19,-5,1,1,-1
1501936437328088,-1,1,3,40,24,2,-4,-6
1501936437341101,1,1,-3,-18,-6,2,4,3
1501936437341101,0,5,25,113,19,1,2,-1
1501936437349130,3,0,-15,61,11,4,1,4
1501936437349130,-1,0,7,-70,-19,-2,-1,-2
1501936437364122,0,-1,2,30,0,-1,0,6
1501936437364122,-3,-1,-10,-21,-2,-2,-1,-10
1501936437366083,-3,-3,7,24,2,-2,-5,8
1501936437366083,-1,1,5,56,21,1,2,-1
1501936437387112,-2,-6,-14,1,-16,-11,-6,-1
1501936437387112,-4,3,0,-50,-5,11,-1,-10
1501936437388082,8,-3,1,14,4,-2,2,8
1501936437388082,-3,-3,-6,12,-5,-8,-5,-7
1501936437401098,-1,-1,1,16,7,4,3,3
1501936437401098,1,-1,-5,-42,-22,-7,-6,5
1501936437410083,-5,-3,-1,-16,5,-5,-5,-10
1501936437410083,-4,-4,-6,38,2,-3,2,1
1501936437424130,6,5,1,-84,-35,-4,1,-1
1501936437424130,-5,-6,-13,33,-3,4,1,4
1501936437426084,3,0,-7,-52,-1,-18,-9,1
1501936437426084,-2,2,13,67,-5,20,7,0
1501936437447087,-8,-9,-30,-39,17,-2,-2,-3
1501936437447087,2,-1,0,-86,-57,-8,1,2
1501936437448085,1,5,13,-3,-1,0,2,2
1501936437448085,-5,-6,-5,1,17,-7,-7,-7
1501936437469127,0,2,2,8,3,5,2,-4
1501936437469127,7,-1,1,19,14,-3,-2,11
1501936437471097,-2,-1,3,11,-2,7,0,-6
1501936437471097,2,-1,5,-11,-15,-13,-3,1
1501936437484129,-2,-1,-2,-7,-1,11,-7,0
1501936437484129,0,-2,1,28,7,-12,-2,-8
1501936437486098,-4,0,-2,-12,-4,1,-1,-6
1501936437486098,-1,0,-5,-4,6,8,8,4
1501936437507114,-4,-1,5,-8,-4,-6,-4,-9
1501936437507114,4,3,5,39,10,9,-2,1
1501936437508088,-1,-4,-8,6,12,5,-6,-5
1501936437508088,-4,-2,-8,-21,-25,-11,-4,4
1501936437529128,0,1,9,22,9,-1,5,-2
1501936437529128,-4,-1,1,5,3,-6,-1,-2
1501936437531102,-5,-2,-6,20,12,8,5,-8
1501936437531102,2,-2,-1,-28,-7,-7,-8,1
1501936437544165,-3,1,5,-24,-11,-3,0,-1
1501936437544165,1,-1,7,29,12,2,4,5
1501936437551124,-4,-3,0,-15,-11,-8,-16,-7
1501936437551124,3,0,-2,100,6,1,-2,-1
1501936437567125,-2,-4,-4,1,-3,-6,0,2
1501936437567125,-3,0,-3,-41,2,0,-5,-8
1501936437568091,0,-2,1,42,1,-2,6,6
1501936437568091,0,-1,-7,-23,0,-1,-3,-1
1501936437589124,3,-1,3,0,5,1,-1,-1
1501936437589124,-3,1,3,17,5,1,2,1
1501936437591095,-3,-3,-6,40,4,-4,2,2
1501936437591095,-1,-2,-10,2,-9,-2,-10,-6
1501936437604140,0,0,7,31,8,0,7,0
1501936437604140,-3,-2,-8,-19,-9,-3,-14,-8
1501936437610132,1,1,3,-18,6,3,24,6
1501936437610132,-1,-1,-2,30,7,3,-10,-4
1501936437627095,-1,-1,-4,-54,-18,-3,4,4
1501936437627095,0,-3,-1,55,1,-3,-3,-4
1501936437628098,-1,0,-10,-69,-8,2,3,6
1501936437628098,-3,1,1,-6,-1,-1,-1,-6
1501936437650129,2,2,-8,-54,17,2,-7,-5
1501936437650129,-3,-4,11,92,0,-7,5,5
1501936437651111,-3,-2,-1,-20,-10,-1,-6,-6
1501936437651111,2,0,-2,-54,-9,0,5,1
1501936437663133,-3,0,2,54,14,0,-7,-4
1501936437663133,0,1,-6,-48,-22,2,2,-1
1501936437672099,-2,-2,-1,-14,-7,-13,-10,-1
1501936437672099,-1,-2,6,3,1,11,12,-1
1501936437687140,2,0,-13,51,2,0,-1,5
1501936437687140,0,-1,1,39,12,-4,-1,-1
1501936437688133,0,1,14,6,-12,0,3,-1
1501936437688133,-3,-4,-4,26,-5,-9,-14,-9
1501936437709144,-1,-1,5,27,19,-1,12,14
1501936437709144,-5,-2,-6,-103,-36,3,-1,-16
1501936437711099,0,1,1,13,-1,-2,-3,-1
1501936437711099,-1,-1,3,-17,2,0,11,10
1501936437723108,0,-3,-1,7,0,18,-6,-5
1501936437723108,-3,-1,1,20,13,-10,-8,1
1501936437732134,-1,-3,-11,-49,-6,7,-3,-5
1501936437732134,0,1,-4,-16,-3,-8,-24,-4
1501936437747168,-1,-2,2,-12,-5,-12,3,12
1501936437747168,-4,0,0,-19,4,2,8,-13
1501936437748102,5,1,-4,-4,-5,3,5,5
1501936437748102,-4,-2,-1,1,-2,-5,5,-9
1501936437769142,0,1,2,8,-2,5,-1,-1
1501936437769142,-6,-2,-1,-3,5,-1,-11,-6
1501936437771117,1,-1,2,31,4,-1,8,1
1501936437771117,1,0,0,-10,-8,-22,4,11
1501936437792163,-1,-1,1,-17,-3,23,-5,-3
1501936437792163,4,1,0,1,6,-2,-8,2
1501936437793105,-8,2,-5,-9,-3,-4,-18,-28
1501936437793105,1,0,0,-21,-3,0,-4,8
1501936437808105,0,0,0,-3,-8,-14,10,-3
1501936437808105,-3,-3,-3,9,6,3,6,-8
1501936437810105,0,-3,-2,1,1,3,2,10
1501936437810105,-2,1,0,-8,-3,-1,8,-15
1501936437829168,-9,-2,-2,0,-7,-11,-4,-5
1501936437829168,2,-1,-2,6,5,5,10,14
1501936437831114,7,-1,-1,-7,0,1,-7,6
1501936437831114,-2,-1,1,-7,0,6,-1,-5
1501936437843145,0,2,0,-3,-5,-2,10,-3
1501936437843145,-2,0,-2,-1,2,-2,-9,1
1501936437852109,-6,1,-3,0,-3,-15,2,2
1501936437852109,2,-2,-1,-4,4,21,-2,7
1501936437867151,0,-1,0,-2,-1,-2,-4,-2
1501936437867151,2,-5,-4,-2,-5,-8,-6,-1
1501936437869121,-2,-1,2,3,-1,1,-3,-4
1501936437869121,-1,-1,-4,-2,-4,-5,-1,1
1501936437889180,-3,1,2,0,1,-2,-2,-7
1501936437889180,-1,0,1,-1,1,2,-4,-4
1501936437891110,2,-1,1,3,3,3,3,-7
1501936437891110,-1,0,2,-6,0,2,9,0
1501936437903151,-3,-4,-8,-12,-10,-10,-11,-11
1501936437903151,-1,1,-1,7,1,-3,-10,-5
1501936437912144,-1,-2,-3,-27,-3,3,11,8
1501936437912144,-3,-1,9,34,3,-6,2,12
1501936437927179,-2,-4,-16,36,-3,-2,-4,-13
1501936437927179,3,3,4,-32,-2,3,3,11
1501936437928117,-4,0,-9,-34,-6,2,5,-7
1501936437928117,-3,-1,-4,-12,0,0,-11,0
1501936437949155,7,-2,-5,-17,-2,-4,3,9
1501936437949155,1,0,1,23,3,7,9,7
1501936437951114,-1,-2,2,8,-3,-4,-6,7
1501936437951114,-4,-3,1,6,-3,-3,5,-5
1501936437963162,-2,0,-2,-9,-5,-5,-7,-5
1501936437963162,-4,0,-2,-1,1,-2,-6,2
1501936437972114,6,3,8,14,8,3,-3,0
1501936437972114,0,0,-1,-6,-1,0,-5,-9
1501936437987179,-4,1,0,-17,-2,0,10,14
1501936437987179,-3,-5,0,6,-5,-3,-5,-4
1501936437988117,-7,-2,-2,13,-1,-3,-10,-4
1501936437988117,7,1,1,-6,-2,0,7,15
1501936438009158,-5,-3,0,-1,0,-1,13,-22
1501936438009158,0,-1,-1,1,-1,-2,-2,9
1501936438011116,-2,0,2,4,-1,-1,-6,-10
1501936438011116,-2,-3,-4,-9,-3,-3,-7,-9
1501936438023135,0,1,7,4,4,0,-7,8
1501936438023135,4,-1,-2,1,2,-2,2,-1
1501936438032117,-2,-3,4,10,-4,0,11,-2
1501936438032117,15,-2,-19,-26,-5,0,13,5
