timestamp,emg1,emg2,emg3,emg4,emg5,emg6,emg7,emg8
1501936780328051,1,10,72,108,36,-3,4,8
1501936780328051,0,-1,6,92,-30,-14,-9,-6
1501936780328981,-2,-2,-3,37,22,8,3,-5
1501936780328981,2,-2,-38,-85,-26,-5,-3,24
1501936780329987,1,-1,-15,78,2,12,3,-6
1501936780329987,2,3,34,-73,-15,-2,1,1
1501936780331010,0,-3,-46,-28,6,-5,-2,0
1501936780331010,-2,3,6,-36,-22,2,0,-4
1501936780334999,2,2,-8,-10,-3,1,3,7
1501936780334999,-8,-18,-64,-64,79,-4,-18,-18
1501936780342983,-3,3,33,-13,-7,-4,-2,6
1501936780342983,-3,0,77,127,46,-18,-1,-8
1501936780357044,-2,-4,-19,-64,-36,-10,-1,-3
1501936780357044,6,14,42,101,53,22,12,-1
1501936780368021,1,2,10,-64,-8,2,-5,14
1501936780368021,-8,-2,23,2,-4,-7,-7,-13
1501936780371042,12,10,10,99,40,11,4,7
1501936780371042,-6,-4,-7,-58,-67,-18,-3,1
1501936780395990,-1,4,10,60,6,4,2,-8
1501936780395990,27,39,55,88,51,40,17,34
1501936780395990,-14,-27,-11,35,-49,-29,-20,-12
1501936780395990,-7,9,29,-4,-4,5,6,11
1501936780434991,23,-4,-24,64,35,12,-1,5
1501936780434991,17,3,7,78,-31,-8,8,0
1501936780434991,-22,4,30,19,-7,3,0,-23
1501936780434991,10,-3,-8,-24,57,9,-1,19
1501936780435993,24,-15,-50,-86,-64,-18,-12,27
1501936780435993,-5,5,-14,17,42,9,5,5
1501936780439045,10,3,25,-18,-8,-2,5,3
1501936780439045,11,1,19,33,-25,-10,8,77
1501936780446048,-4,16,12,-48,18,23,3,-39
1501936780446048,0,-2,14,53,-7,-6,-13,9
1501936780454016,-23,-6,-32,-56,-41,-4,-2,-10
1501936780454016,14,4,-21,-21,-17,-1,0,15
1501936780463015,-16,-15,-54,3,-28,-23,-8,-24
1501936780463015,6,5,-12,-87,-21,20,10,20
1501936780477052,2,8,44,88,94,18,5,2
1501936780477052,12,6,26,68,-4,-1,-9,0
1501936780484010,-17,-3,34,-15,-48,-14,-1,14
1501936780484010,7,2,25,23,0,7,6,-25
1501936780499014,-18,-2,-8,55,19,-9,-11,-14
1501936780499014,-2,-7,-56,37,30,23,10,-29
1501936780508002,5,13,54,-18,-10,-11,7,21
1501936780508002,-14,0,-7,-18,34,7,-5,-22
1501936780522055,2,-9,-4,-71,-102,-17,-6,17
1501936780522055,-3,1,-33,33,37,4,9,-35
1501936780523992,8,18,87,114,50,20,-3,-18
1501936780523992,-19,-25,-50,-12,2,-19,-6,-3
1501936780545056,24,9,-11,-1,-35,-3,-5,-11
1501936780545056,-34,-10,-52,-103,-13,-5,-5,-27
1501936780546996,-5,-5,7,-4,-37,-7,0,6
1501936780546996,12,-2,-59,-22,5,-9,2,8
1501936780567063,-20,-3,32,34,7,-7,-5,-2
1501936780567063,4,2,37,6,3,1,-2,-4
1501936780569006,-13,3,-27,-58,3,15,6,0
1501936780569006,0,4,21,-24,-61,-17,-17,0
1501936780582066,-3,-16,-57,-14,3,-2,20,9
1501936780582066,-8,-2,-7,-69,-24,-4,-5,-12
1501936780589067,3,3,6,78,43,12,4,9
1501936780589067,3,2,-11,-4,8,5,0,8
1501936780605036,7,8,26,29,26,23,5,-18
1501936780605036,-5,-27,-55,40,26,-17,-18,-13
1501936780607000,5,-8,-6,-69,-55,-10,-2,29
1501936780607000,3,20,88,50,-15,12,13,-1
1501936780628014,27,2,14,88,11,2,3,34
1501936780628014,-26,5,49,113,84,7,-5,-47
1501936780629009,-5,-7,-28,-12,11,-3,-15,-16
1501936780629009,-3,3,-25,-105,-22,-3,6,3
1501936780642071,14,13,-5,-37,75,35,10,12
1501936780642071,6,-4,29,-91,-40,-22,-24,4
1501936780644012,-18,0,9,58,49,-7,9,-33
1501936780644012,10,3,67,69,39,-2,-1,10
1501936780665045,-8,-11,-76,-95,-49,-10,-16,-13
1501936780665045,-1,5,22,35,-44,3,11,11
1501936780667002,2,2,56,93,15,-2,-3,7
1501936780667002,-2,-6,-9,-4,-2,0,-2,1
1501936780687047,-2,-7,-11,42,43,-3,-1,5
1501936780687047,5,0,11,-108,-69,-17,-10,12
1501936780689003,33,11,50,74,29,8,10,16
1501936780689003,-31,-10,2,15,-59,-10,-5,-21
1501936780702047,-13,-12,-23,-29,-10,-16,-11,-26
1501936780702047,-5,4,22,61,6,5,8,-7
1501936780709007,16,12,-15,72,16,14,4,49
1501936780709007,-11,-17,-5,-71,-3,-12,-2,24
1501936780725035,-5,-9,-52,-74,-11,-7,2,7
1501936780725035,18,-3,-10,8,-37,-8,-4,19
1501936780727006,-22,-12,-48,20,18,-4,-10,-25
1501936780727006,11,0,-9,-81,28,18,0,9
1501936780747044,-15,8,56,88,-13,-7,-7,-12
1501936780747044,-24,-25,-71,-80,-7,-23,-10,-21
1501936780749018,23,4,-7,-128,-33,1,5,53
1501936780749018,-17,-9,-40,-34,11,-10,-13,-46
1501936780762048,9,-1,8,-37,-27,-7,-9,0
1501936780762048,-1,20,66,-8,-7,19,23,-2
1501936780769029,-20,-20,-48,78,19,-8,-6,-20
1501936780769029,7,2,10,69,19,1,11,23
1501936780785072,6,7,-14,5,9,12,-6,-14
1501936780785072,-3,6,24,52,23,10,-4,0
1501936780787010,-13,-4,-22,-60,-10,-8,4,-23
1501936780787010,9,0,-9,50,-12,3,2,17
1501936780807029,13,-4,5,70,13,1,3,38
1501936780807029,-21,6,18,127,29,5,-5,-5
1501936780809020,-8,-7,-13,-82,-22,-11,1,-24
1501936780809020,-28,-8,-25,74,14,-6,-5,-4
1501936780822056,0,1,-8,20,60,10,5,-8
1501936780822056,1,-3,-34,-128,-65,-15,-4,27
1501936780829051,-14,-1,8,14,-5,-3,-11,-78
1501936780829051,29,8,32,12,9,5,1,45
1501936780844079,23,-1,-10,49,17,3,-3,1
1501936780844079,-47,1,3,-17,-19,3,4,-42
1501936780853014,-11,-2,-33,-47,-19,-1,-13,-69
1501936780853014,5,-2,15,-48,12,-4,2,-13
1501936780867052,-25,-2,15,-96,-16,-4,-4,-27
1501936780867052,26,0,-5,1,24,5,-4,0
1501936780869015,-2,-4,-7,-29,-4,-7,-2,46
1501936780869015,-1,-2,6,79,19,7,1,8
1501936780882062,-1,-8,-31,22,-24,-5,3,3
1501936780882062,-9,-11,-12,84,26,-15,-7,-9
1501936780889051,0,7,37,-43,-17,2,5,10
1501936780889051,16,-1,-3,-8,-7,-1,0,14
1501936780905084,-29,2,39,90,20,6,0,-44
1501936780905084,10,-7,-8,100,15,0,2,5
1501936780907017,12,3,11,99,29,6,0,16
1501936780907017,-6,1,-36,-50,10,-2,-5,-17
1501936780927065,7,9,57,26,20,7,16,34
1501936780927065,9,4,-1,-44,-1,-6,-2,18
1501936780929017,-15,-8,-5,-9,-1,-5,-8,-64
1501936780929017,-1,1,-10,25,-6,2,-1,7
1501936780942059,-15,-6,-33,29,30,1,-3,-13
1501936780942059,28,3,-11,-47,-34,1,2,31
1501936780949027,-7,-2,-10,45,28,10,-2,25
1501936780949027,-14,-5,-28,-101,-45,-13,2,-22
1501936780965088,10,-5,-15,-32,-49,-14,-5,9
1501936780965088,3,0,9,-83,-20,2,-7,-11
1501936780967018,0,-10,-42,-11,-18,-8,6,28
1501936780967018,-3,0,16,34,16,6,-5,-16
1501936780987068,12,7,25,-15,-8,-1,2,34
1501936780987068,-4,-5,-25,26,-1,1,5,6
1501936780989019,2,-1,6,-37,5,-10,-5,9
1501936780989019,-9,1,17,16,12,12,1,-16
1501936781002063,11,-5,-5,-4,33,-2,3,-3
1501936781002063,3,1,-5,-45,-51,3,3,-2
1501936781009047,0,-2,0,-41,-23,-13,-6,1
1501936781009047,12,-2,12,98,13,-7,-1,12
1501936781025088,-3,-4,-4,0,-28,-5,-11,3
1501936781025088,-2,3,4,24,45,16,8,-21
1501936781027022,-6,-2,-9,30,-20,6,0,0
1501936781027022,0,1,2,2,20,-5,-5,-35
1501936781047085,-5,-6,-35,10,-16,-6,-5,-3
1501936781047085,-2,4,31,10,13,0,7,50
1501936781049024,1,-8,-5,-3,-16,-3,2,-2
1501936781049024,-8,-2,-6,15,19,-6,-7,-12
1501936781061086,2,0,6,16,3,3,8,18
1501936781061086,-15,-3,1,10,9,0,-3,-26
1501936781070025,13,7,16,82,34,10,5,17
1501936781070025,-18,-5,1,-23,-28,-10,-8,-19
1501936781085070,25,1,25,-2,8,-5,6,43
1501936781085070,-1,6,-3,67,-4,6,0,-10
1501936781087026,2,6,30,19,12,9,0,-11
1501936781087026,9,0,-10,-38,-8,3,7,20
1501936781107036,18,3,-5,-46,-16,-6,-2,24
1501936781107036,4,0,-1,-62,1,1,-1,4
1501936781109028,-8,1,8,110,7,1,-2,-6
1501936781109028,17,-3,-11,-35,-45,-8,-1,40
1501936781121055,-29,-6,3,35,12,-2,-5,-56
1501936781121055,6,1,-8,-13,3,-2,-3,4
1501936781130029,-6,-2,5,-63,-9,-2,-1,-3
1501936781130029,14,1,-8,5,21,9,3,2
1501936781145062,-8,1,-24,-76,-35,-3,-5,-4
1501936781145062,5,-1,12,31,30,3,2,-7
1501936781147030,8,8,26,-35,17,1,4,15
1501936781147030,-6,1,4,33,6,-1,0,-10
1501936781167067,-8,-3,-7,2,7,-1,-6,-7
1501936781167067,15,4,17,41,34,5,0,24
1501936781169031,3,-2,-6,-54,-55,-10,-1,-15
1501936781169031,-39,-3,3,0,4,-1,-3,-34
1501936781182046,-4,1,7,-3,-11,-3,0,-1
1501936781182046,5,-1,10,57,34,6,1,0
1501936781190065,-21,-2,-18,-43,-8,-1,-3,-3
1501936781190065,3,-2,-15,-61,-16,1,4,3
1501936781205100,-1,1,7,-70,-13,-6,-13,-7
1501936781205100,-6,-1,9,72,38,-3,7,-16
1501936781207068,0,0,10,-59,9,12,1,-6
1501936781207068,-20,-2,-39,41,-11,-5,0,-40
1501936781227077,3,2,14,65,4,6,4,-9
1501936781227077,8,-3,-14,36,-4,-4,-5,11
1501936781229034,-3,-2,6,-63,-30,-9,-4,-2
1501936781229034,8,0,5,-15,15,4,0,17
1501936781241097,7,10,25,56,23,2,-1,1
1501936781241097,-13,-17,-69,13,-58,-9,-9,-19
1501936781250035,20,4,3,41,20,6,7,17
1501936781250035,-21,-2,1,-55,-13,-4,-4,0
1501936781265091,7,4,15,-30,21,11,7,31
1501936781265091,-9,-5,24,16,-21,-15,-11,-11
1501936781267037,13,-3,-16,-60,-29,-7,1,40
1501936781267037,18,-6,-17,-44,-16,-2,-6,18
1501936781288061,-8,-2,5,73,16,-2,2,-4
1501936781288061,1,-3,-28,-75,-6,-2,0,14
1501936781289037,-2,3,5,75,30,5,1,0
1501936781289037,0,-3,39,105,49,0,-14,4
1501936781301107,6,2,-7,-104,-72,-12,6,-15
1501936781301107,-16,2,14,-55,18,4,9,-5
1501936781310039,-7,-4,0,127,34,-2,-6,-10
1501936781310039,-4,8,20,-55,-36,1,-3,-46
1501936781325101,1,-7,-37,-14,-24,-6,-5,9
1501936781325101,4,-1,14,80,28,2,-4,-28
1501936781327039,-11,-8,-39,-105,-78,-4,-5,-4
1501936781327039,3,6,16,82,32,5,10,-16
1501936781347080,-2,-4,-16,-24,26,2,-5,-18
1501936781347080,-7,-2,21,3,-23,-8,-1,-12
1501936781349062,6,-6,-6,127,44,-3,-3,5
1501936781349062,3,-2,1,-19,-30,-1,-2,3
1501936781361108,-8,-8,-21,-87,-22,-8,-5,-10
1501936781361108,6,-3,-9,-63,15,4,1,23
1501936781370042,-7,6,17,43,-4,2,1,-35
1501936781370042,5,-6,-10,26,-23,-17,-3,20
1501936781385081,4,2,7,111,27,10,2,9
1501936781385081,-2,2,13,13,-52,-5,-2,-18
1501936781387052,-21,-3,-8,7,23,0,-5,-23
1501936781387052,-14,2,4,-20,1,7,4,-4
1501936781407106,-7,-3,-11,77,19,-7,-5,7
1501936781407106,9,9,28,-9,-12,12,2,12
1501936781414071,3,-7,-32,-69,-17,-6,1,29
1501936781414071,14,3,4,38,31,2,1,26
1501936781430109,-9,-4,4,69,-11,-6,-1,-11
1501936781430109,5,4,1,-61,3,-2,-4,0
1501936781432045,-2,-4,7,41,-8,-8,-1,11
1501936781432045,6,2,8,-12,12,5,-3,13
1501936781452087,4,-5,-16,-60,8,8,2,11
1501936781452087,-8,1,-12,-21,-18,-6,-5,-27
1501936781454047,10,7,35,60,24,6,7,4
1501936781454047,-12,-8,-23,46,-1,-7,-9,-13
1501936781466085,-5,0,-10,15,12,2,-1,-20
1501936781466085,12,0,-28,57,8,9,3,34
1501936781475047,-27,-13,-37,13,-34,-18,-14,-21
1501936781475047,14,0,9,52,0,-1,4,5
1501936781490113,-1,2,3,-55,-21,-4,0,2
1501936781490113,9,-8,-4,-11,10,5,3,10
1501936781491059,1,2,-13,16,47,5,1,-1
1501936781491059,2,5,19,24,-14,-5,0,7
1501936781512090,-4,-5,-3,8,-1,-4,-3,5
1501936781512090,1,0,-55,-95,-7,2,3,-4
1501936781514050,0,-2,27,-15,1,-7,3,-10
1501936781514050,-5,-2,33,-48,1,-2,-8,-22
1501936781527091,22,-2,-18,-88,-44,-8,10,36
1501936781527091,-7,1,28,51,12,-5,-15,-3
1501936781534067,-1,3,9,-2,33,9,8,-26
1501936781534067,2,1,-19,-35,-5,4,3,8
1501936781550121,5,5,35,47,3,0,-5,-6
1501936781550121,-11,-4,-7,-44,-24,-9,3,3
1501936781551061,3,0,-3,-10,3,-8,-8,13
1501936781551061,17,4,0,-13,17,16,-1,5
1501936781572100,-9,1,19,102,10,11,11,11
1501936781572100,34,-9,-32,-15,-29,-21,-10,16
1501936781574053,-18,-8,-4,-1,-7,-1,3,-9
1501936781574053,0,3,-13,-62,-13,-3,5,0
1501936781587072,-6,-7,-16,-9,-1,-5,-9,-6
1501936781587072,1,6,22,49,25,12,5,4
1501936781595055,12,0,-5,-80,-31,-6,-3,22
1501936781595055,0,-5,-2,24,13,0,1,12
1501936781610123,-4,6,5,-20,-9,5,-2,-18
1501936781610123,-14,1,45,89,4,0,-2,-16
1501936781612055,12,-2,-52,4,2,-1,5,-10
1501936781612055,-42,-10,-9,-80,-60,-16,-19,-59
1501936781632065,-4,-1,-4,-21,-4,-5,5,-8
1501936781632065,-11,0,16,81,17,1,-2,-17
1501936781634057,6,-1,9,-32,-35,5,6,15
1501936781634057,10,-6,-14,-33,4,-1,2,18
1501936781646060,-2,-1,-4,15,3,-5,-5,-10
1501936781646060,-4,5,0,-59,-17,1,1,1
1501936781655058,2,1,0,21,17,6,-1,5
1501936781655058,-4,-10,-37,-3,-13,-11,1,3
1501936781670091,17,1,3,13,-2,-4,-14,7
1501936781670091,-14,-2,-9,-47,27,16,15,3
1501936781672059,2,7,14,30,-11,0,-4,2
1501936781672059,3,1,20,73,8,4,-2,-1
1501936781692067,15,4,-6,56,46,6,13,20
1501936781692067,-6,-3,7,-13,-19,-10,-20,-28
1501936781694059,1,7,38,-9,24,0,7,1
1501936781694059,-11,-5,-16,58,-14,-11,-4,-11
1501936781706059,3,8,41,104,46,15,2,-11
1501936781706059,-8,-13,-11,-54,-55,-17,-2,-13
1501936781715063,16,5,0,-62,-8,-1,0,48
1501936781715063,1,11,58,105,43,11,8,3
1501936781730060,-10,-8,-17,-93,-37,-13,-9,-15
1501936781730060,-5,-5,-44,-24,9,8,5,-4
1501936781731070,5,-4,-12,-16,-8,-3,-7,10
1501936781731070,-9,1,3,29,5,-1,2,-11
1501936781752073,-7,-5,-4,25,-18,1,-7,5
1501936781752073,18,4,-4,-93,-27,-7,4,32
1501936781754097,-6,2,27,107,0,3,3,-6
1501936781754097,3,-4,-20,-67,11,0,-5,21
1501936781775125,-13,0,12,8,-6,-15,-4,-14
1501936781775125,-1,1,-2,36,28,20,2,-4
1501936781776068,-4,-2,7,16,-1,4,3,-12
1501936781776068,6,1,24,91,25,0,-4,16
1501936781790134,-7,-8,-41,-104,-46,-12,-1,-5
1501936781790134,3,4,34,51,-2,-7,0,25
1501936781792068,-9,-2,-18,21,-3,-4,-3,-32
1501936781792068,6,1,3,-28,-28,-4,-3,-4
1501936781812133,-15,-2,7,-10,3,1,-6,-8
1501936781812133,-3,-1,11,-14,10,4,6,13
1501936781814075,-22,-2,5,39,21,5,-2,-9
1501936781814075,4,1,-25,-34,13,1,3,-3
1501936781826111,-3,1,7,-4,20,2,5,-3
1501936781826111,-8,-3,-7,-18,-35,-8,-13,-32
1501936781835068,-1,3,10,-46,30,3,-1,20
1501936781835068,-28,-17,-40,-81,-45,-14,-8,-52
1501936781850129,2,1,1,-39,32,9,5,1
1501936781850129,6,3,11,61,25,-3,7,17
1501936781851078,-7,-9,-51,-102,-31,-2,-9,-31
1501936781851078,15,4,18,71,17,1,-1,24
1501936781872131,3,1,-1,75,10,3,-1,5
1501936781872131,2,4,21,47,-4,-8,2,-9
1501936781874105,-14,-13,-22,63,-3,-16,-11,-7
1501936781874105,1,2,-4,-6,-8,10,10,-10
1501936781886079,-4,-9,-15,-27,-14,-3,-1,-3
1501936781886079,-7,1,17,-56,-15,-9,-4,4
1501936781895103,19,2,8,36,19,8,2,-20
1501936781895103,15,1,9,120,20,-4,-1,9
1501936781910139,-15,-3,20,19,-52,-19,-8,-14
1501936781910139,-16,-1,-18,8,14,13,3,-40
1501936781912071,6,-5,-2,34,-2,-2,4,9
1501936781912071,-1,-1,-10,-128,-56,-6,-3,5
1501936781932114,9,-2,-6,21,17,3,-5,2
1501936781932114,2,7,25,85,50,5,0,3
1501936781934073,-2,-7,-30,-53,-20,-18,-5,13
1501936781934073,9,0,5,46,22,12,-8,-36
1501936781946140,-16,-2,-21,-56,2,5,9,-2
1501936781946140,17,-1,-2,2,1,-2,-8,17
1501936781961133,-8,1,11,-77,1,2,2,-8
1501936781961133,0,-3,-14,33,25,1,3,15
1501936781970116,3,0,14,14,-10,-4,1,6
1501936781970116,4,-8,-33,93,17,-2,-9,-19
1501936781972075,3,0,-8,-98,-51,-1,-5,-2
1501936781972075,6,6,3,11,-3,-1,-1,19
1501936781992115,3,7,33,82,34,7,6,-4
1501936781992115,0,0,-21,8,-3,-1,2,21
1501936781994076,-9,-9,-14,-69,7,-3,-8,6
1501936781994076,-4,6,26,44,14,3,6,-10
1501936782015110,0,-3,-2,18,-4,-1,2,-4
1501936782015110,-1,-3,-3,-42,-22,-5,0,-1
1501936782016111,7,7,20,39,12,3,0,5
1501936782016111,-21,-4,-3,-2,-15,-3,-1,-8
1501936782030142,7,2,2,-77,4,-1,-3,2
1501936782030142,-10,-3,5,-18,-7,-5,-2,-5
1501936782032079,2,1,-5,18,-13,-2,2,9
1501936782032079,-6,-4,-5,2,12,1,-1,0
1501936782052120,5,3,-2,-3,-6,-6,-8,13
1501936782052120,1,6,25,5,12,17,8,-11
1501936782054092,2,-3,-10,-13,13,0,1,1
1501936782054092,-4,-3,3,-59,-36,-11,-3,0
1501936782075147,-2,-9,-39,-110,-22,0,-4,2
1501936782075147,-4,-1,-13,-18,-5,-9,-1,4
1501936782077081,8,6,34,83,31,7,0,26
1501936782077081,-7,-6,-25,-26,3,-10,-6,-23
1501936782090143,0,-3,-20,-26,-17,-4,-2,3
1501936782090143,-1,-6,-7,-46,15,-3,-1,0
1501936782091092,-6,-1,8,-41,-11,-1,-1,2
1501936782091092,6,7,17,-80,-4,6,1,1
1501936782112083,6,3,-15,-52,-10,4,-3,5
1501936782112083,-15,-11,-19,-33,5,-9,1,-10
1501936782114117,8,5,12,92,15,9,-2,17
1501936782114117,1,-4,-7,15,-2,-2,3,8
1501936782135127,-3,4,17,3,-6,-2,-5,-10
1501936782135127,5,4,7,39,31,10,4,4
1501936782136086,-3,-8,11,102,-13,-30,-10,-12
1501936782136086,24,-2,-18,36,-12,15,1,0
1501936782149086,-37,1,9,18,-6,0,4,2
1501936782149086,3,-6,-22,-30,-16,-5,-10,-4
1501936782156150,-5,3,3,-14,0,0,10,-11
1501936782156150,2,-2,1,8,0,-10,-6,12
1501936782172127,5,1,15,33,8,-2,-1,1
1501936782172127,9,2,-9,-24,-12,4,1,11
1501936782174086,-8,1,7,19,-7,7,-2,-15
1501936782174086,-19,-15,-35,-99,-42,-22,-10,-17
1501936782195130,8,4,30,1,3,5,4,-12
1501936782195130,-11,-1,1,31,-4,-4,-2,-3
1501936782197087,6,-1,-13,-30,-2,3,0,-12
1501936782197087,2,0,-8,-20,41,12,4,12
1501936782209147,1,-5,-11,-40,2,-5,-3,-1
1501936782209147,0,-3,-1,-14,-10,-11,-9,-7
1501936782216126,1,6,33,27,15,5,0,-37
1501936782216126,-8,-2,-7,-21,-26,6,5,14
1501936782232155,39,5,9,-53,1,0,0,29
1501936782232155,-35,-2,-13,3,-8,4,6,-45
1501936782239100,-2,1,11,40,36,-1,-8,3
1501936782239100,0,4,10,-21,-26,-3,0,1
1501936782255131,14,2,9,112,15,3,5,22
1501936782255131,0,-8,-9,-10,-19,-13,-15,-31
1501936782256100,-10,-9,-12,19,-13,-3,1,0
1501936782256100,4,2,23,8,16,0,5,17
1501936782269135,-14,-2,-4,-16,-13,-2,0,-13
1501936782269135,9,1,3,3,20,5,-1,23
1501936782276134,-12,-1,-8,-28,-50,-12,-2,-47
1501936782276134,15,2,8,34,13,5,-3,21
1501936782292136,-14,-8,-23,16,1,-8,-3,-11
1501936782292136,13,7,16,-28,-1,1,4,15
1501936782294129,-2,-3,-12,-37,-4,3,-1,3
1501936782294129,-4,0,3,61,25,1,0,9
1501936782315152,-4,-3,-15,-10,-34,-6,-3,-16
1501936782315152,-7,2,14,-19,4,-7,-2,-13
1501936782316095,-2,-5,-15,36,16,15,1,20
1501936782316095,5,2,16,88,15,-9,3,-15
1501936782329165,7,-7,-10,-8,-6,1,-10,1
1501936782329165,-2,-2,-5,-37,-11,-1,4,15
1501936782336141,4,-1,-12,42,15,3,-1,-1
1501936782336141,2,-6,-32,-62,-19,-12,-2,18
1501936782352138,-11,-1,30,70,34,4,-5,-29
1501936782352138,4,-3,-6,-16,-31,-1,2,13
1501936782354108,-1,-5,-15,-40,-17,-6,0,11
1501936782354108,6,4,6,62,14,8,0,-9
1501936782375141,3,-5,-4,21,-4,-5,0,20
1501936782375141,0,-4,-15,4,0,6,-2,7
1501936782376106,13,-3,-12,-47,-13,-5,-1,3
1501936782376106,-8,1,14,51,15,2,-2,12
1501936782389160,-10,-2,-38,-66,-12,-14,-1,-4
1501936782389160,6,3,8,14,-8,16,2,1
1501936782396165,12,-3,-4,-64,-8,-2,1,-1
1501936782396165,-2,1,-21,-11,-2,0,0,13
1501936782412132,20,4,20,-9,25,10,4,1
1501936782412132,-27,-15,-37,45,-3,-23,-10,-30
1501936782414101,1,1,-1,-10,-16,-3,5,-8
1501936782414101,-4,-5,-5,-64,-7,1,1,-8
1501936782435172,33,2,2,-66,-51,-4,-3,-24
1501936782435172,-19,-2,2,12,-14,-8,-5,-35
1501936782436104,-28,1,21,-68,10,2,-3,-3
1501936782436104,11,-7,-34,-27,2,-5,-3,-14
1501936782449103,-18,-1,-12,-2,1,2,3,47
1501936782449103,15,4,24,90,24,4,0,-14
1501936782456168,7,1,-1,-51,-31,-4,-3,5
1501936782456168,8,2,15,66,8,0,0,37
1501936782472164,-18,-1,-20,-94,-29,0,-2,-36
1501936782472164,-4,4,14,38,1,8,6,46
1501936782474102,11,0,4,45,24,7,7,22
1501936782474102,-25,-4,-5,88,15,-17,-6,-28
1501936782495145,-29,-8,-7,29,-25,5,-9,-45
1501936782495145,15,0,-10,-57,1,5,8,27
1501936782496107,-12,-3,0,68,23,-3,-6,-10
1501936782496107,-3,-2,6,-86,-7,-1,0,22
1501936782509105,2,-6,-3,117,60,-5,-2,-6
1501936782509105,-11,-2,15,-47,-12,-2,-4,4
1501936782517175,11,7,2,23,-5,7,2,-10
1501936782517175,0,-4,-6,-41,7,0,-5,-9
1501936782532171,-2,4,31,100,33,3,2,-6
1501936782532171,-18,-1,2,-4,-18,-7,-2,13
1501936782534106,13,-7,-18,49,10,-6,-4,8
1501936782534106,-18,-5,-24,-10,-3,1,-4,19
1501936782555167,-8,5,-8,-25,-4,-1,10,12
1501936782555167,25,4,6,2,21,-4,-4,19
1501936782556119,-1,7,5,-23,0,19,0,-40
1501936782556119,-17,-3,-8,-39,25,5,2,-14
1501936782569126,6,-3,-30,-91,-13,-2,-5,1
1501936782569126,16,-3,-13,-35,-32,-11,7,7
1501936782577147,-26,1,18,61,13,-6,-5,-23
1501936782577147,13,-4,-6,-52,-52,-1,0,21
1501936782592149,-1,1,10,-73,-2,5,0,0
1501936782592149,9,-1,-4,89,68,6,1,1
1501936782594110,0,-1,7,-1,-29,-12,-5,17
1501936782594110,6,10,32,29,-2,8,4,-30
1501936782615144,-11,-10,-14,21,2,-8,-8,-24
1501936782615144,1,4,17,61,9,2,6,-4
1501936782616121,-14,-7,-17,-69,8,0,-6,20
1501936782616121,6,1,-9,-5,-13,-7,-2,-13
1501936782629128,-7,-5,1,-4,-6,-1,-3,11
1501936782629128,27,-2,-26,-8,-9,-3,3,60
1501936782638112,-11,-1,18,-23,5,2,-1,-63
1501936782638112,-9,3,5,52,13,4,1,-15
1501936782652145,6,-2,-14,-75,-24,-13,-4,11
1501936782652145,-13,-4,-4,-38,-5,4,-4,-8
1501936782654114,1,-4,-17,39,18,11,6,15
1501936782654114,8,6,19,79,-46,-1,3,0
1501936782675147,-9,-3,13,122,-4,-9,-7,-15
1501936782675147,-5,-12,-19,-78,-17,-9,-6,-29
1501936782676115,-6,6,3,-33,0,-6,-1,23
1501936782676115,-15,-5,2,23,17,3,-4,-3
1501936782688148,25,-1,-5,10,10,0,-3,49
1501936782688148,-42,-6,2,40,-7,-1,-2,-45
1501936782697115,19,-2,-14,-42,-10,-1,-2,-3
1501936782697115,4,-4,-22,-105,-10,-4,2,18
1501936782712124,-2,1,15,54,9,-2,0,-2
1501936782712124,7,-3,0,54,33,6,-6,-7
1501936782718146,-3,2,-1,-5,-22,-1,4,17
1501936782718146,-1,2,20,77,19,3,-3,-12
1501936782735125,-1,3,-2,26,-2,3,3,-5
1501936782735125,3,-1,15,77,34,1,-5,-37
1501936782737119,12,-1,5,-7,3,-16,-2,25
1501936782737119,-11,-1,1,-64,-7,-10,-3,-21
1501936782748120,-9,-3,11,89,37,22,6,5
1501936782748120,-12,4,-8,-63,-48,-3,-3,-19
1501936782757149,8,4,17,-57,-12,-2,0,14
1501936782757149,4,0,26,72,5,-7,-2,-15
1501936782772162,-21,-4,-20,-42,-5,-3,-3,7
1501936782772162,5,-2,-10,-19,12,0,-1,15
1501936782774124,-1,0,-4,-13,-7,5,0,0
1501936782774124,-17,1,1,-38,-11,-4,-3,-70
1501936782795163,10,0,0,-59,10,11,-1,41
1501936782795163,15,2,2,31,-16,-4,3,40
1501936782796133,-7,-3,-8,-10,-19,-7,-4,-58
1501936782796133,6,-2,-6,-66,-4,5,3,10
1501936782809158,-8,0,-1,-22,-10,-5,-2,-43
1501936782809158,-5,6,23,54,8,2,0,-2
1501936782817188,-12,-21,-51,-74,-42,-20,-6,26
1501936782817188,16,-2,-11,-34,-4,1,-1,20
1501936782832193,-11,1,10,40,0,-3,4,-20
1501936782832193,29,4,7,3,22,11,0,15
1501936782834132,-8,6,-1,-35,-51,6,8,-12
1501936782834132,-4,1,11,30,9,-4,-4,2
1501936782854165,14,-10,-21,10,2,-4,-3,28
1501936782854165,13,0,-2,-36,-11,-5,1,-2
1501936782855124,-5,2,13,26,26,2,2,50
1501936782855124,-7,-9,-45,-3,26,11,-3,-8
1501936782877171,2,10,12,-3,-10,0,4,-17
1501936782877171,15,-3,-8,-48,0,-9,1,-3
1501936782877171,13,6,5,-36,18,5,-9,36
1501936782877171,-67,-14,0,5,29,3,2,-22
1501936782892127,30,1,-6,-74,-8,-3,3,-8
1501936782892127,-21,6,14,16,1,0,-2,18
1501936782892127,-6,-7,-13,15,8,-13,-7,-49
1501936782892127,18,6,17,95,6,5,-3,15
1501936782914186,-13,-5,-1,25,23,9,5,3
1501936782914186,4,-8,-48,-79,-36,-4,-2,-16
1501936782915129,14,-1,-3,124,50,3,2,23
1501936782915129,-33,-8,-5,-4,-40,-18,-16,-63
1501936782937176,12,0,-4,-13,-14,-1,-3,8
1501936782937176,24,1,16,99,26,6,2,34
1501936782937176,-34,-6,-5,45,22,-3,-1,-25
1501936782937176,21,1,-4,25,-39,1,-4,16
1501936782952151,12,6,31,77,4,-3,-2,27
1501936782952151,-43,-4,-9,-3,6,-1,-1,-78
1501936782952151,25,-5,-20,-89,-65,-4,-5,-6
1501936782952151,22,2,18,39,21,4,8,56
1501936782974170,-5,2,0,4,-7,-4,-7,-65
1501936782974170,7,7,25,19,-11,1,-2,6
1501936782975165,-37,-3,21,104,38,5,3,-16
1501936782975165,6,2,-3,-82,-21,-1,2,6
1501936782997193,0,0,-8,-90,-15,0,-3,30
1501936782997193,2,-3,5,76,21,-11,-2,6
1501936782997193,20,3,11,63,8,18,7,0
1501936782997193,-5,4,-18,-82,-41,-1,0,-1
1501936783012194,-16,-2,1,-9,0,-2,0,35
1501936783012194,-1,-2,10,42,2,-4,0,-3
1501936783012194,12,-4,13,-39,-10,-10,-3,33
1501936783012194,4,1,-3,-29,19,4,1,-11
1501936783034139,4,-6,-9,4,-2,-2,-3,0
1501936783034139,-20,0,1,-114,-23,-1,-5,-70
1501936783035134,9,4,12,86,18,5,1,11
1501936783035134,4,2,16,72,35,2,5,14
1501936783057158,-19,-6,-10,-94,-34,-5,-3,-27
1501936783057158,9,-5,-6,53,3,0,-4,35
1501936783057158,-3,-2,-19,-83,-7,-5,-4,0
1501936783057158,30,3,-9,-13,12,-1,0,8
1501936783072170,-28,2,4,83,29,-3,-2,-38
1501936783072170,-3,-3,-3,-60,-48,0,-1,-1
1501936783072170,-31,0,-7,20,15,-1,1,-5
1501936783072170,14,1,10,-26,-8,4,-2,-3
1501936783094180,-17,-7,-25,-3,-42,-25,-1,39
1501936783094180,-33,-1,-9,-53,6,6,-8,-45
1501936783095139,36,7,16,76,23,15,13,41
1501936783095139,-40,-11,-26,46,-2,-7,-10,-60
1501936783117195,1,5,6,-6,-24,5,8,17
1501936783117195,21,-1,9,46,-8,-6,0,42
1501936783117195,4,5,7,-60,-19,-8,-3,-2
1501936783117195,-2,-4,-20,47,14,9,2,0
1501936783132194,15,-4,-4,36,-9,-7,-5,-11
1501936783132194,-25,-1,-14,-104,-16,1,1,-31
1501936783132194,0,3,23,45,12,3,-2,-19
1501936783132194,-2,-7,-37,-17,-18,-8,-1,24
1501936783154218,-8,1,8,41,42,8,-2,-46
1501936783154218,-5,-5,-14,-37,-37,-6,-3,1
1501936783155176,10,0,-2,-39,-7,3,2,44
1501936783155176,-11,5,32,-9,14,-1,-3,21
1501936783177194,12,-5,7,-61,-27,-7,-7,-4
1501936783177194,-9,0,-5,50,32,10,2,-4
1501936783177194,0,-3,1,51,7,-4,-6,3
1501936783177194,2,-8,-17,-40,-13,-2,-2,-1
1501936783192194,18,-2,-8,30,-3,-4,2,15
1501936783192194,-6,-5,-25,-71,-7,-1,4,65
1501936783192194,-13,-1,-14,12,-21,-18,-6,-32
1501936783192194,26,10,26,39,24,18,8,30
1501936783214182,11,4,20,17,-7,10,3,-1
1501936783214182,-6,-9,-8,47,43,-1,-3,-5
1501936783215144,-22,-5,-11,-2,-15,-6,-3,-39
1501936783215144,21,0,-2,-8,-3,-7,-3,22
1501936783237193,10,9,22,-16,25,0,0,9
1501936783237193,1,1,11,52,5,-1,3,-7
1501936783237193,-4,-1,3,-30,5,7,-4,5
1501936783237193,2,3,24,-61,-17,-1,2,0
1501936783252167,-21,-9,-17,92,27,-3,-5,-12
1501936783252167,13,2,-4,1,0,-2,2,14
1501936783252167,-39,-3,12,84,31,-2,-5,-49
1501936783252167,20,1,28,-53,-55,-9,-3,4
1501936783274209,-23,-7,-35,-69,-4,0,-2,-7
1501936783274209,23,4,5,-27,3,1,0,-23
1501936783275151,2,-5,-5,18,-14,-3,0,-7
1501936783275151,4,0,10,74,16,-8,-5,-7
1501936783297193,-8,0,-1,87,44,16,1,2
1501936783297193,7,6,15,-12,-45,2,4,8
1501936783297193,19,0,-5,1,-11,-3,-1,13
1501936783297193,-16,-3,-11,10,4,-2,6,-11
1501936783312193,6,3,11,-24,-3,-4,-2,14
1501936783312193,0,-5,-8,33,12,-9,3,11
1501936783312193,6,2,-18,-30,2,12,-4,-6
1501936783312193,-19,-6,-22,63,-7,-7,-4,-1
1501936783334198,2,0,3,-10,-14,0,2,12
1501936783334198,5,2,11,-57,12,2,-3,16
1501936783335165,-6,2,0,9,17,2,1,-41
1501936783335165,-7,-9,-24,-51,-23,-9,-5,-23
1501936783357169,5,1,9,32,14,1,-2,0
1501936783357169,-8,-1,11,0,-10,-4,-3,-2
1501936783357169,8,5,2,47,24,13,2,12
1501936783357169,-25,-6,-13,-5,10,-3,-2,0
1501936783372162,-4,-3,-14,-18,-13,-5,-2,-8
1501936783372162,-21,-4,3,35,20,-6,-9,-33
1501936783372162,-7,-2,-1,29,-15,-8,-1,11
1501936783372162,16,5,-5,-88,-4,15,10,6
1501936783394163,-11,-13,-2,24,-56,-19,-6,-3
1501936783394163,7,3,-13,-32,-3,2,1,28
1501936783395157,7,-9,7,24,-1,-18,-6,-15
1501936783395157,0,2,21,-12,4,3,-4,8
1501936783417173,6,3,-7,4,28,5,2,-6
1501936783417173,-3,1,14,36,-8,0,1,1
1501936783417173,1,-6,-13,-30,-13,-4,-2,-3
1501936783417173,-3,-6,-6,-31,7,-6,-3,9
1501936783431311,2,4,4,-37,4,6,1,2
1501936783431311,8,-3,-1,12,4,-6,-6,-5
1501936783439241,6,1,-14,-128,-47,0,3,14
1501936783439241,-10,-1,-3,53,20,3,-2,-6
1501936783454310,9,1,-2,-44,2,2,1,-1
1501936783454310,-20,-6,6,44,11,-1,-4,-17
1501936783455242,-4,2,-8,-84,6,-1,2,-1
1501936783455242,8,-5,-7,18,3,-7,-2,11
1501936783477275,-5,-5,-5,-84,-24,-2,-1,-2
1501936783477275,6,2,6,72,24,3,-1,0
1501936783477275,-7,-3,-16,-74,-23,6,1,4
1501936783477275,-8,9,28,73,18,-2,-1,-19
1501936783491315,-3,-5,-22,8,4,-1,-2,2
1501936783491315,21,-3,-5,-27,-19,-3,-2,27
1501936783499247,-15,-1,3,26,1,-6,-5,-31
1501936783499247,7,3,2,-28,2,3,7,14
1501936783514311,-6,-2,0,34,5,4,-2,-13
1501936783514311,7,5,8,-11,12,8,3,10
1501936783515280,12,-3,7,79,15,-6,0,18
1501936783515280,-14,3,-10,-68,-23,0,-5,-42
1501936783537272,7,2,18,33,3,0,2,-2
1501936783537272,-20,1,11,10,11,0,1,-20
1501936783537272,-11,-5,-18,7,6,1,-2,31
1501936783537272,2,1,7,-4,-12,-4,-3,5
1501936783551280,-4,-1,10,-10,-8,4,-1,5
1501936783551280,-8,0,13,22,-6,-2,1,-13
1501936783559305,1,6,10,9,-8,-1,-2,7
1501936783559305,4,-3,-29,-66,-19,5,0,2
1501936783574315,-2,-3,-22,91,-14,-14,-6,10
1501936783574315,3,-4,-9,-12,-4,-2,-3,6
1501936783575249,-2,-1,10,19,7,3,-1,-8
1501936783575249,4,-1,-12,89,24,-6,-1,5
1501936783597268,-4,-1,2,-119,-25,5,1,-17
1501936783597268,-12,2,14,15,-31,0,-2,-15
1501936783597268,5,-4,-17,17,15,-3,1,10
1501936783597268,3,1,26,25,-27,-4,-3,-3
1501936783611319,-40,-2,8,4,15,-2,-7,-71
1501936783611319,5,-1,-11,33,11,-1,1,37
1501936783619314,-4,0,5,-25,-9,-3,-2,-13
1501936783619314,-9,-4,8,6,14,2,0,6
1501936783634282,32,7,12,42,6,6,8,25
1501936783634282,-7,-9,-27,-24,-10,-8,1,-7
1501936783635254,0,-1,6,89,23,-4,-8,-12
1501936783635254,5,0,2,-81,-33,-15,-1,10
1501936783657272,9,9,-21,14,38,20,3,10
1501936783657272,-7,-8,6,70,6,-11,-7,-8
1501936783657272,-6,-2,-13,-126,-47,2,9,11
1501936783657272,-3,-1,12,117,38,1,-1,-11
1501936783671317,7,0,19,-4,4,-13,-5,11
1501936783671317,-6,-1,-6,55,34,11,0,-15
1501936783679296,15,2,2,-72,-48,-7,3,53
1501936783679296,-3,3,16,-20,10,4,-1,-10
1501936783694325,7,-3,1,-51,4,-4,1,18
1501936783694325,2,-3,-15,-13,0,2,-1,-4
1501936783695267,11,2,14,66,15,3,0,-1
1501936783695267,1,-2,-14,48,2,3,-1,9
1501936783717273,-3,0,2,39,0,0,2,6
1501936783717273,12,1,-10,-108,-16,3,0,13
1501936783717273,-8,-3,-17,41,25,-6,-8,-35
1501936783717273,-14,-4,0,-46,-50,-2,1,14
1501936783731300,3,-2,-1,62,20,-3,-12,-20
1501936783731300,-7,3,-14,-49,-16,-2,2,8
1501936783739300,-8,1,12,4,-14,2,2,-13
1501936783739300,3,-1,15,86,43,7,-3,-23
1501936783754326,7,-10,-41,-60,-14,-2,3,12
1501936783754326,-19,0,8,25,-16,-2,-1,-9
1501936783755259,3,-1,2,21,-20,-1,-2,-5
1501936783755259,-5,-4,-12,23,-7,-9,-2,0
1501936783777278,0,6,18,3,-3,-1,2,2
1501936783777278,10,2,9,45,21,2,-2,-13
1501936783777278,-7,-4,4,36,-11,-3,-2,6
1501936783777278,1,-3,-18,-23,9,3,-3,-12
1501936783791330,1,5,10,51,-10,-1,2,1
1501936783791330,-3,-8,-18,-116,-27,-7,-6,-11
1501936783799264,-1,1,4,49,35,8,4,1
1501936783799264,-1,-1,-5,-1,-16,-9,0,-8
1501936783814281,5,-2,-8,-75,-7,-3,-5,-1
1501936783814281,1,0,2,43,14,6,6,4
1501936783815274,0,-1,4,-18,3,0,-1,-6
1501936783815274,23,1,-6,59,15,7,2,51
1501936783837277,-26,-5,-10,-6,-9,-7,-5,-4
1501936783837277,13,3,6,-7,-37,-6,-2,-3
1501936783837277,-11,-3,-12,-106,6,2,-3,-1
1501936783837277,-3,1,6,0,11,4,3,2
1501936783851332,7,-1,2,-49,-6,-4,-2,5
1501936783851332,-2,-5,-16,0,6,1,-1,8
1501936783859328,5,3,1,38,34,3,2,1
1501936783859328,-6,-2,11,-42,-10,-9,-2,-6
1501936783874331,0,-2,-25,-35,3,3,0,-10
1501936783874331,-1,4,30,18,2,-5,-5,-14
1501936783875265,4,-6,-27,14,3,-3,-2,-4
1501936783875265,-8,-2,-1,-3,-22,-2,0,-3
1501936783896300,-7,-2,8,-40,3,-1,-5,2
1501936783896300,2,2,15,105,54,10,5,6
1501936783904311,-4,2,9,-24,-32,-4,3,34
1501936783904311,-1,-5,-40,-127,-17,-1,-3,-41
1501936783920333,5,2,14,72,14,1,0,8
1501936783920333,2,-2,-4,43,-9,-2,-4,-4
1501936783920333,20,2,8,-79,-4,0,2,9
1501936783920333,-28,-4,-19,-13,4,2,-3,-25
1501936783934344,2,1,11,31,-7,-2,2,17
1501936783934344,-3,-2,-7,58,31,3,-4,-10
1501936783935269,15,2,1,-42,-43,-17,-2,-12
1501936783935269,-4,2,-4,-22,-2,10,3,6
1501936783957289,-10,-5,-2,13,2,-1,-2,-13
1501936783957289,0,-2,-2,-35,-13,0,2,9
1501936783957289,-9,-6,-9,4,10,-2,-5,-16
1501936783957289,16,6,16,27,13,-14,-2,15
1501936783980336,1,0,20,94,17,11,2,1
1501936783980336,-8,-3,0,-33,-8,2,0,1
1501936783980336,-6,-5,-9,108,13,0,-4,-9
1501936783980336,-1,-5,-7,45,12,-3,-4,-5
1501936783994313,-3,1,7,-78,14,0,2,-5
1501936783994313,10,0,-9,-20,-7,1,-1,16
1501936783995272,-4,-3,-9,-69,-8,-1,-1,-3
1501936783995272,0,-5,0,-6,-2,-2,-4,2
1501936784017300,8,0,-2,-4,-10,-5,-4,-5
1501936784017300,-10,2,-8,11,12,3,2,7
1501936784017300,-7,-5,0,-74,-36,-5,-5,3
1501936784017300,2,-1,7,81,31,2,-2,3
1501936784040340,-4,-5,-21,-14,-25,-10,-4,1
1501936784040340,0,-1,-9,-61,-13,7,1,-12
1501936784040340,0,5,19,23,19,5,2,-3
1501936784040340,4,-5,-3,-8,-12,3,2,6
1501936784054313,-9,1,20,96,6,-5,2,-17
1501936784054313,-9,-3,-21,-28,-21,-16,-7,-17
1501936784055284,15,-2,6,45,17,8,0,14
1501936784055284,-2,2,9,-14,-10,-6,-4,-2
1501936784077293,-15,3,14,35,16,5,1,11
1501936784077293,-1,-5,-21,-43,-11,-4,-2,-8
1501936784077293,-7,1,-4,-79,-6,-5,-1,-4
1501936784077293,7,-1,-2,18,-1,2,0,3
1501936784099318,2,0,1,48,27,6,1,-3
1501936784099318,-1,1,15,-42,-23,-3,-3,-34
1501936784106320,-3,3,-7,-38,8,6,1,5
1501936784106320,-1,-4,-11,-31,-8,0,1,-1
1501936784114319,-3,-4,5,-3,-19,-7,-1,-4
1501936784114319,12,-2,-13,46,12,-3,-6,17
1501936784115289,0,1,-15,-43,14,11,9,-2
1501936784115289,2,0,8,-9,-19,-11,-4,-9
1501936784136345,-19,-3,0,-60,-3,4,0,-11
1501936784136345,4,-2,-10,-63,-19,-15,-3,12
1501936784137316,-4,2,28,101,5,0,0,-7
1501936784137316,-6,-5,-42,-46,-7,2,-1,1
1501936784160345,7,1,1,-23,-3,0,1,1
1501936784160345,0,-1,2,32,0,-3,-1,6
1501936784160345,9,-1,-6,-18,15,-5,-3,-9
1501936784160345,-2,3,23,51,20,5,4,4
1501936784174324,-11,-7,-20,-23,-32,-9,-5,-5
1501936784174324,-4,2,5,0,4,4,1,-8
1501936784175299,20,2,22,4,-5,-2,-6,-2
1501936784175299,6,1,-5,-42,6,0,0,-4
1501936784197303,2,1,-2,15,-1,-1,-1,14
1501936784197303,-2,2,38,70,-1,7,4,-4
1501936784197303,-22,-11,-33,25,-3,-6,-1,13
1501936784197303,2,3,21,-8,-1,-4,-6,-9
1501936784220355,5,-2,-16,-5,-2,1,-1,-3
1501936784220355,-3,0,17,-10,9,-17,-2,9
1501936784220355,1,-2,10,71,16,21,2,-14
1501936784220355,-10,1,-12,-55,-25,-3,-4,-3
1501936784234360,0,-9,-25,46,2,-2,1,-5
1501936784234360,3,-3,-25,-32,0,-6,-1,6
1501936784235294,-14,-8,1,7,-11,-12,-5,-14
1501936784235294,2,-9,-51,-46,-17,-3,-3,11
1501936784256349,1,4,28,62,30,3,1,-5
1501936784256349,6,-4,-22,-118,-8,1,-4,9
1501936784257319,1,2,-2,-30,-12,-8,-3,7
1501936784257319,2,0,10,118,35,8,5,1
1501936784280317,-14,-4,-18,-30,-17,-7,-4,0
1501936784280317,0,1,4,45,6,5,3,12
1501936784280317,5,7,29,46,9,4,0,4
1501936784280317,0,-1,-9,-46,-18,-13,-4,-4
1501936784294348,26,-4,-10,5,-2,4,4,31
1501936784294348,-24,-3,0,-6,-11,4,1,-19
1501936784295290,-3,3,8,42,8,0,0,-3
1501936784295290,-6,-1,-7,-37,-4,-2,-4,-11
1501936784316330,7,4,17,-19,5,-1,-2,-2
1501936784316330,6,-5,-9,20,-32,-4,-1,4
1501936784317329,-27,-4,2,51,8,1,0,-8
1501936784317329,17,2,15,26,-9,-5,-4,13
1501936784340353,-16,4,-1,22,-5,9,-4,-35
1501936784340353,4,3,14,32,31,8,6,1
1501936784340353,-1,-4,-17,-99,-32,-13,-7,-2
1501936784340353,-2,-1,38,66,19,3,0,0
1501936784354334,4,1,-4,-4,-15,-9,-2,-8
1501936784354334,7,6,16,42,4,5,-4,2
1501936784355300,1,-8,-35,3,-13,-9,0,1
1501936784355300,-10,2,6,-46,0,9,4,4
1501936784376354,2,-3,-15,-12,-12,-5,-5,-6
1501936784376354,-11,-1,6,-10,35,2,0,-11
1501936784377330,5,2,-3,-63,-30,-5,1,38
1501936784377330,-2,-1,-2,36,3,-4,-6,-39
1501936784400293,-20,-1,-1,32,-1,-2,0,-3
1501936784400293,5,-1,-2,-36,-3,3,1,4
1501936784400293,10,-5,-16,-9,10,-4,-4,3
1501936784400293,-2,4,15,14,4,12,5,11
1501936784414360,-21,-5,-11,-49,-3,-14,-2,-9
1501936784414360,11,4,-2,-39,-7,19,2,-5
1501936784415295,-4,0,11,5,-2,-6,-1,-13
1501936784415295,-2,-4,-9,42,-2,-3,1,7
1501936784437330,10,1,2,-24,11,-5,2,11
1501936784437330,-11,-5,-9,-92,-50,-8,-4,-7
1501936784437330,29,2,-1,51,-2,4,2,21
1501936784437330,-22,-3,0,-34,7,3,-3,-28
1501936784460300,7,3,13,23,-24,2,0,2
1501936784460300,-6,-5,-13,29,14,-10,-5,-9
1501936784460300,-12,0,15,-27,12,2,-4,-24
1501936784460300,6,-6,-37,-48,-20,-5,2,3
1501936784473339,9,-2,-2,8,16,3,-1,6
1501936784473339,3,3,15,86,10,0,0,-5
1501936784481301,-17,-3,1,25,26,-2,-4,-13
1501936784481301,-4,-3,-4,74,6,-1,0,6
1501936784497331,22,3,4,-92,-33,-2,-2,3
1501936784497331,-8,-3,-4,12,5,-8,3,11
1501936784497331,3,3,2,35,14,10,2,-10
1501936784497331,-7,-9,-4,-38,-6,-5,-4,3
1501936784520366,-8,-6,-38,-14,2,-1,-3,9
1501936784520366,22,-1,5,35,0,-5,0,18
1501936784520366,-11,1,-18,-22,-14,7,10,-41
1501936784520366,-2,6,13,-55,1,4,-7,-15
1501936784533309,-9,-5,-13,-23,-31,-3,-1,-4
1501936784533309,-3,-9,-21,-51,-7,-8,-5,6
1501936784541313,-11,-3,6,49,-1,-6,-5,-1
1501936784541313,15,1,-17,-48,-11,-1,1,15
1501936784556360,-5,1,11,24,19,1,-1,-19
1501936784556360,-4,-1,-1,-42,-7,1,-2,-11
1501936784557338,8,0,3,29,-15,-4,-2,11
1501936784557338,-5,1,8,27,7,1,1,5
1501936784580323,-1,-2,19,58,33,5,1,-11
1501936784580323,-2,-2,-9,22,-46,-9,-1,9
1501936784580323,-5,0,0,-20,5,6,-3,6
1501936784580323,3,2,6,-10,-2,-7,-2,1
1501936784593342,-2,2,28,96,9,6,4,7
1501936784593342,6,-4,-49,-47,-8,-1,-5,-24
1501936784601373,-11,-4,11,44,-2,-2,-1,-3
1501936784601373,-4,2,-4,-13,-7,5,4,7
1501936784617333,-13,-2,-11,-51,-4,-2,-4,-7
1501936784617333,-4,3,13,12,14,3,1,0
1501936784617333,4,-1,-12,-29,1,-6,-6,7
1501936784617333,-7,-7,-12,47,15,-1,0,-6
1501936784640366,6,1,19,-55,-5,3,5,-4
1501936784640366,-6,-4,-13,2,-2,-11,-7,5
1501936784640366,6,1,-6,-65,2,8,5,-4
1501936784640366,4,2,19,56,12,3,5,10
1501936784653350,4,1,-1,-7,8,-2,-7,-3
1501936784653350,-6,-2,-6,-31,-7,-4,-2,-12
1501936784661319,10,0,13,-31,3,-3,-3,12
1501936784661319,0,-5,-23,-10,-14,-2,-1,0
1501936784677334,0,-1,-9,-57,-2,1,0,5
1501936784677334,6,1,8,30,31,10,4,14
1501936784677334,-5,6,30,31,6,-6,-3,0
1501936784677334,-7,-2,-8,-25,-14,0,1,0
1501936784700333,-5,-7,-15,0,-2,-4,-6,0
1501936784700333,4,5,20,101,23,9,2,8
1501936784700333,-6,-12,-20,6,5,-9,-4,-8
1501936784700333,0,-5,10,-41,-24,-7,-4,-3
1501936784713334,6,-1,-7,-29,-11,-6,-2,9
1501936784713334,-6,-2,8,80,35,11,4,-4
1501936784722330,-1,-2,-26,-90,-40,-7,-4,0
1501936784722330,-3,1,2,-35,-9,-3,-4,-13
1501936784737382,1,-2,6,46,7,9,3,8
1501936784737382,-5,1,1,-49,-11,-8,-1,1
1501936784738341,-5,-2,-11,8,7,3,-2,-39
1501936784738341,3,2,5,5,23,4,-1,-3
1501936784760367,1,1,18,-11,-26,-10,-4,8
1501936784760367,-6,1,13,9,2,4,2,-2
1501936784760367,4,-6,-18,-45,-5,-17,-4,5
1501936784760367,1,2,15,41,8,11,-1,-2
1501936784773384,9,4,6,17,16,3,0,-2
1501936784773384,-9,-1,-6,-109,-25,-5,-2,-8
1501936784782322,-3,-1,5,45,-10,-5,-2,8
1501936784782322,-5,-1,-8,13,25,-1,-4,3
1501936784796358,-13,-2,-9,-20,-28,-1,-2,1
1501936784796358,10,1,3,54,2,2,2,4
1501936784797356,10,1,-9,18,1,3,0,2
1501936784797356,-4,4,26,41,8,-1,2,-7
1501936784820331,2,-3,-20,59,45,0,-3,0
1501936784820331,-2,-5,-10,-64,-8,4,2,3
1501936784820331,3,2,9,-8,-22,-2,-2,5
1501936784820331,12,-3,0,-36,-16,-9,-3,16
1501936784842360,0,0,1,-30,8,-3,-1,-9
1501936784842360,-20,-1,10,47,-6,-4,-3,2
1501936784843319,4,-4,-23,-44,-4,3,1,2
1501936784843319,2,-5,-15,51,-2,-5,-1,15
1501936784856326,0,-2,-4,21,-4,-8,-3,-11
1501936784856326,-2,-2,1,27,-2,-1,3,-9
1501936784857357,-3,2,3,51,22,-5,-4,-1
1501936784857357,-24,1,-3,-9,-13,16,6,-13
1501936784879360,5,1,3,8,10,4,0,3
1501936784879360,0,0,7,-7,-31,-5,-4,-5
1501936784880321,-9,-7,-22,25,7,-11,-7,-9
1501936784880321,10,-2,1,-65,-14,-4,0,-1
1501936784902362,-3,1,5,-17,-18,-5,2,3
1501936784902362,-2,1,2,29,14,7,-2,-16
1501936784903337,5,4,13,-48,-17,5,2,11
1501936784903337,-2,-4,-1,66,17,-6,-5,-10
1501936784916361,-2,-1,0,-88,-31,-5,2,0
1501936784916361,10,-2,-20,21,16,1,-3,9
1501936784917323,-8,1,8,-42,-3,-3,0,2
1501936784917323,4,1,-3,14,6,1,1,11
1501936784939352,1,2,13,117,21,2,0,0
1501936784939352,3,-3,2,-96,-25,-9,-5,-6
1501936784940333,-9,-3,4,39,3,7,5,-9
1501936784940333,8,3,4,-3,18,-1,-1,2
1501936784962384,-4,-1,-9,1,-18,-2,-3,-3
1501936784962384,7,-4,6,5,5,-8,-5,3
1501936784963349,-6,1,1,63,15,0,0,-3
1501936784963349,1,-1,2,-73,-27,-3,2,10
1501936784976353,2,2,9,14,14,11,5,9
1501936784976353,-6,-5,-19,41,17,-6,-6,2
1501936784977364,7,-2,7,8,-7,-1,0,6
1501936784977364,-4,0,1,79,13,-4,-3,2
1501936784999371,-9,-1,-1,31,1,2,-2,-3
1501936784999371,0,0,6,-22,16,2,1,2
1501936785000329,3,7,33,17,4,7,6,11
1501936785000329,-6,-9,-47,-39,-30,-8,-12,-14
1501936785022394,3,-1,-1,43,4,-3,3,-2
1501936785022394,-1,4,14,-19,-9,-2,1,-16
1501936785023329,-8,-6,-28,-28,3,5,2,1
1501936785023329,3,1,8,2,2,2,4,38
1501936785036368,-13,-6,-11,-6,-9,-7,-10,-66
1501936785036368,-1,-2,-4,-8,-6,-3,-2,-3
1501936785037329,2,3,-4,-13,19,1,0,2
1501936785037329,4,3,19,-23,-4,1,2,-9
1501936785059354,17,-3,-9,-37,1,3,5,22
1501936785059354,-9,-1,5,11,-12,-12,-4,-8
1501936785060340,-7,-6,-24,-16,11,6,-5,-14
1501936785060340,2,5,-1,86,4,2,1,-5
1501936785082348,6,-4,-7,-21,-11,-9,-3,19
1501936785082348,0,1,-1,16,-2,6,4,-6
1501936785083334,7,1,3,32,0,-3,-2,25
1501936785083334,-10,-3,-9,-23,-11,-5,-3,-42
1501936785096374,-10,-3,11,-21,-12,-2,-6,-4
1501936785096374,7,-3,-18,24,3,-2,0,10
1501936785097368,-5,1,6,-40,-27,-6,-3,5
1501936785097368,-6,-4,-26,-32,6,1,6,-3
1501936785119351,2,1,-9,-44,-9,-2,-1,4
1501936785119351,-7,-3,12,1,29,6,-3,-4
1501936785120370,8,2,-7,-35,-18,-2,-1,-2
1501936785120370,8,0,9,3,6,1,-4,-6
1501936785142379,-10,0,-3,-32,11,1,1,7
1501936785142379,3,-1,5,75,17,1,-3,-13
1501936785143338,-19,0,9,26,-8,-9,-4,-25
1501936785143338,-2,-5,-10,37,8,-4,-3,-1
1501936785156377,-1,-4,-12,-72,-38,9,5,7
1501936785156377,2,-3,-2,8,1,-3,-2,10
1501936785157364,6,-1,-11,25,6,2,1,-3
1501936785157364,-2,-3,6,80,-14,-10,-2,2
1501936785179377,-1,2,17,-23,0,1,0,1
1501936785179377,-1,0,-16,-44,-14,1,5,3
1501936785180341,1,0,-1,-33,-23,-4,-5,-6
1501936785180341,1,5,19,11,28,3,-2,3
1501936785202379,0,-7,-39,-65,-17,-2,-1,-1
1501936785202379,2,0,8,25,-16,-3,-1,0
1501936785203341,1,-3,8,7,17,-1,1,4
1501936785203341,-2,0,-1,-44,-20,1,-1,-13
1501936785217341,2,7,21,-9,-13,2,-4,10
1501936785217341,-16,-5,-15,-24,-18,-9,-1,-40
1501936785217341,6,-3,-1,-25,7,2,0,-6
1501936785217341,-14,4,27,-2,14,9,-1,2
1501936785239415,-7,-3,-12,-21,-9,-9,-2,-16
1501936785239415,7,-4,-22,17,-6,0,-1,25
1501936785240357,-5,-3,10,23,11,2,-1,-14
1501936785240357,0,-5,-7,-70,-47,-19,-6,-5
1501936785262390,13,1,8,91,30,2,-2,8
1501936785262390,-8,2,-2,-74,-10,7,3,0
1501936785263366,3,0,-4,66,5,-2,0,12
1501936785263366,5,2,15,19,6,1,1,8
1501936785276414,-5,-6,-22,3,4,-10,-5,-7
1501936785276414,5,1,10,36,5,2,0,3
1501936785277381,-3,-1,-3,-40,-9,6,2,0
1501936785277381,-2,-1,1,5,2,-2,0,1
1501936785299346,-4,-1,9,45,9,4,1,-3
1501936785299346,4,1,5,-21,5,-2,-2,3
1501936785300344,-4,0,-2,27,0,-8,-4,3
1501936785300344,-1,-3,-10,-23,-2,-8,-3,-2
1501936785322388,2,0,4,15,15,13,3,4
1501936785322388,-2,1,-3,-7,-22,-3,-1,4
1501936785323345,-1,-1,-3,16,5,1,0,-3
1501936785323345,3,-2,-7,-55,-22,-6,-3,2
1501936785336413,5,0,8,26,2,-6,1,-3
1501936785336413,-6,0,5,-16,7,2,0,4
1501936785344393,1,1,-3,6,-1,3,2,0
1501936785344393,-2,0,-1,29,12,-3,-2,-6
1501936785359387,-4,-2,2,0,-3,-6,-2,-8
1501936785359387,-2,-2,-1,-2,-1,1,-3,-3
1501936785360357,2,-2,-2,-8,-2,-4,0,2
1501936785360357,2,-3,-7,-3,7,2,0,3
1501936785382366,-2,0,1,5,1,-4,-3,1
1501936785382366,0,-1,3,-4,0,0,-2,-2
1501936785383351,-2,1,4,3,-5,-4,-4,-2
1501936785383351,-2,-1,-1,0,2,4,0,-3
1501936785396364,-2,0,-6,-2,5,4,2,3
1501936785396364,1,-1,2,-36,-5,-16,-3,0
1501936785397348,-2,0,6,13,1,17,2,2
1501936785397348,1,0,-4,-5,0,-1,-2,1
1501936785419393,0,0,-2,16,4,-9,-2,1
1501936785419393,0,-1,-2,8,10,6,-3,0
1501936785420362,-2,-2,-7,-41,-17,-5,-2,-1
1501936785420362,1,-1,9,31,8,-2,1,-1
1501936785442393,-6,-1,2,-14,-3,2,-2,-1
1501936785442393,-2,1,-2,12,6,0,-5,-1
1501936785443372,-1,-1,-3,-5,-1,-4,0,-1
1501936785443372,0,-1,-1,34,2,0,-1,-1
1501936785465365,1,-3,-1,17,6,0,-2,2
1501936785465365,-1,-1,2,3,-2,0,-1,-1
1501936785465365,-1,-3,-2,12,1,-1,0,-1
1501936785465365,0,-1,-5,-14,-3,-2,0,5
1501936785479415,-1,-1,2,-6,-1,0,-4,-3
1501936785479415,-1,0,-1,3,-3,2,5,0
1501936785480398,0,-3,-5,-40,-6,-5,-4,-4
1501936785480398,1,-2,-6,71,20,-5,-2,0
1501936785502401,-5,-3,5,-51,-30,6,1,-1
1501936785502401,0,-1,0,-6,-7,-14,-4,-1
1501936785503358,2,0,-2,21,2,11,1,-6
1501936785503358,-3,0,0,-28,-3,0,0,0
1501936785516395,1,0,-8,-38,8,1,-1,2
1501936785516395,-2,-1,3,80,11,-3,-2,-4
1501936785524391,-10,-1,-9,-89,-23,-7,3,-5
1501936785524391,4,0,-2,12,-3,3,-6,1
1501936785539419,1,2,5,64,8,-4,0,-3
1501936785539419,0,-2,14,-6,3,6,2,5
1501936785540365,-5,-4,-25,-33,-1,-9,-4,-3
1501936785540365,-2,-1,-7,-43,-7,1,-6,-4
1501936785562417,2,-3,-3,9,4,-4,1,-2
1501936785562417,-2,1,-1,0,4,1,-1,-6
1501936785563364,1,0,12,46,10,5,0,2
1501936785563364,0,-4,-7,-49,-12,-5,1,1
1501936785576430,-4,-1,5,24,5,3,-4,1
1501936785576430,-2,-2,-4,10,-4,-3,-1,-1
1501936785584419,0,-2,6,0,1,-1,0,5
1501936785584419,-1,-1,-2,-2,-2,-5,-4,-8
1501936785599400,-1,0,-1,3,0,-10,-2,-6
1501936785599400,-2,-1,-6,-34,-3,16,3,1
1501936785600367,1,0,5,35,7,-3,-2,1
1501936785600367,-2,0,4,-6,3,3,1,0
1501936785622428,-1,-1,-7,-15,3,-3,-1,-1
1501936785622428,-2,0,-2,-42,-17,0,3,0
1501936785623364,3,-4,12,38,-4,-7,-5,-6
1501936785623364,-4,0,-2,2,4,7,1,-5
1501936785636428,-2,-2,-1,0,-7,-12,-1,-5
1501936785636428,3,-2,-3,-7,8,6,-3,7
1501936785644434,2,3,-9,29,23,7,0,3
1501936785644434,-7,-5,0,-62,-42,-16,5,-6
1501936785659374,1,-4,0,-4,3,6,-5,11
1501936785659374,8,-2,-5,24,1,-6,-2,-3
1501936785660371,-4,1,5,24,3,-11,-2,-6
1501936785660371,3,0,2,19,11,15,0,1
1501936785682383,-1,-1,-3,2,0,-1,1,3
1501936785682383,-2,0,3,-2,-1,0,2,4
1501936785683396,0,1,-2,3,-2,-4,-2,-3
1501936785683396,0,0,4,34,6,0,-2,10
