timestamp,emg1,emg2,emg3,emg4,emg5,emg6,emg7,emg8
1501934428962507,3,12,33,20,12,-1,-4,2
1501934428962507,3,-4,-4,-83,0,11,6,3
1501934428962507,1,10,-15,-39,25,0,-2,-4
1501934428962507,-1,-12,-34,-75,-38,-3,-1,0
1501934428964501,5,-1,16,76,47,8,2,0
1501934428964501,-8,7,-17,-35,-42,-5,-7,-9
1501934428965484,1,-12,-20,-21,-2,-3,10,16
1501934428965484,-2,4,-12,-43,21,2,-3,2
1501934428972504,-3,-10,-8,-52,-25,-17,-42,-26
1501934428972504,14,15,23,-11,65,28,63,26
1501934428978533,3,2,55,-11,-14,-1,-9,18
1501934428978533,1,6,6,-79,-10,2,17,-33
1501934429002461,-5,-17,-89,72,22,-3,-13,13
1501934429002461,7,12,37,-33,-61,-13,-20,-4
1501934429003468,1,3,21,92,25,8,0,5
1501934429003468,-5,-2,49,38,23,-5,1,14
1501934429009502,5,17,3,-91,-48,9,-1,-4
1501934429009502,3,-13,-43,-44,19,-15,-1,0
1501934429032474,-22,-21,-93,-85,-28,-17,-27,-32
1501934429032474,8,10,41,-16,17,17,27,10
1501934429071464,-7,-7,-7,50,2,-19,-29,14
1501934429071464,0,5,22,18,3,11,26,6
1501934429072472,12,3,6,43,18,7,-1,16
1501934429072472,1,17,-15,4,21,24,14,0
1501934429073494,-7,-21,-31,11,-82,-30,-77,-13
1501934429073494,-2,3,1,-71,4,2,71,25
1501934429075528,-6,-1,7,60,14,4,-24,-34
1501934429075528,-5,-6,-6,-68,-3,-7,28,5
1501934429083523,13,16,13,47,77,21,38,9
1501934429083523,2,2,10,65,18,-2,-42,-12
1501934429090475,-3,-15,-48,-96,-36,-20,-15,6
1501934429090475,-9,-1,27,68,17,-3,-9,15
1501934429098526,6,11,59,1,24,14,41,-50
1501934429098526,-4,-10,-55,0,-50,-16,-54,5
1501934429113534,-6,7,6,63,38,3,99,-3
1501934429113534,14,5,49,124,23,19,-32,3
1501934429120537,-8,-7,-50,-16,-24,-7,-27,-6
1501934429120537,6,-3,15,103,42,15,32,42
1501934429146476,-7,-11,-20,-86,-49,-7,-30,-43
1501934429146476,20,13,-17,29,-16,-16,4,-8
1501934429146476,-1,20,94,92,13,8,-4,15
1501934429146476,22,-9,-46,-33,-29,-6,9,-15
1501934429158496,-11,-5,4,31,10,2,-24,13
1501934429158496,-18,-7,37,-6,-23,-4,13,-15
1501934429159477,6,-1,-13,-18,7,2,-8,1
1501934429159477,-1,2,13,2,-36,-12,-48,-40
1501934429181501,-15,-1,23,-30,-39,-5,38,33
1501934429181501,0,-16,-38,-82,-25,-8,-8,-35
1501934429182475,-32,3,-14,26,11,4,12,4
1501934429182475,-2,5,22,70,7,2,-20,-9
1501934429195506,17,3,16,43,25,7,21,21
1501934429195506,9,-2,-10,58,4,-9,-18,25
1501934429203482,2,-9,-33,-88,-33,-4,16,-9
1501934429203482,-2,6,25,-50,-10,1,10,2
1501934429218515,18,1,-18,-59,11,2,-37,4
1501934429218515,-6,1,-2,-31,28,5,14,12
1501934429219503,3,-6,0,23,20,-2,7,-2
1501934429219503,-6,-10,-17,-30,-23,-15,-20,-3
1501934429241548,3,-3,-19,-37,-13,0,-19,-17
1501934429241548,-6,-3,0,32,28,1,4,33
1501934429242476,-12,2,-9,-115,-40,0,-24,-10
1501934429242476,16,-3,-21,-8,42,9,63,32
1501934429264480,26,-2,-8,-100,-27,-20,-50,-7
1501934429264480,-37,-20,-70,-72,-45,-6,25,-36
1501934429265480,8,-4,-8,25,17,7,-6,10
1501934429265480,-5,9,33,-2,-1,6,-3,1
1501934429278487,-8,-9,-18,89,43,-2,1,3
1501934429278487,20,6,7,-104,-52,-2,-14,5
1501934429279478,9,7,39,81,70,13,13,13
1501934429279478,-17,-14,-42,-47,-12,-17,-22,-37
1501934429301479,12,19,69,19,-37,0,20,23
1501934429301479,-25,-13,-49,-56,-6,-3,-20,-6
1501934429302480,39,4,19,90,24,12,27,9
1501934429302480,-35,-7,-13,44,8,-4,17,-12
1501934429324533,-5,-2,20,68,-1,-5,-11,-12
1501934429324533,4,3,10,72,12,-2,0,12
1501934429325481,12,9,23,-124,-49,-2,22,3
1501934429325481,0,6,28,26,53,9,-17,15
1501934429338546,12,4,-44,59,11,-2,-3,-19
1501934429338546,-36,-6,-11,28,-3,2,8,-35
1501934429339489,2,-8,-23,2,-22,-10,-3,1
1501934429339489,11,7,9,-66,8,8,-15,-12
1501934429361493,-13,1,1,89,39,6,16,-3
1501934429361493,20,3,20,-10,-35,-5,-40,0
1501934429362486,-13,-14,-37,-99,0,-9,18,0
1501934429362486,-13,-1,4,65,-1,0,-5,-23
1501934429384484,3,1,9,35,-2,-1,-14,13
1501934429384484,1,-6,-21,-94,-11,-5,-4,-20
1501934429385484,2,3,1,-5,3,1,0,2
1501934429385484,3,-5,-26,-115,-55,-8,11,47
1501934429398485,-29,3,8,-82,-1,4,22,-38
1501934429398485,69,3,19,127,24,3,-41,45
1501934429399491,-45,-12,-6,33,17,-5,23,-9
1501934429399491,16,6,-14,-16,-9,8,11,9
1501934429421485,29,-1,41,127,7,-3,-7,33
1501934429421485,-39,-2,-33,-127,-36,-7,-4,-52
1501934429422487,15,-1,-7,14,2,5,2,47
1501934429422487,6,-9,6,61,43,-4,-24,-9
1501934429444490,-3,-1,-10,-91,-20,-1,6,16
1501934429444490,-6,-3,-10,-25,-4,-5,3,-16
1501934429445490,30,4,28,108,6,0,-3,47
1501934429445490,-29,-10,-6,25,-28,-11,-2,-21
1501934429468490,-6,4,-19,-36,-8,4,-15,-1
1501934429468490,9,-3,4,60,57,3,10,6
1501934429469490,-32,2,-7,-98,-26,-7,7,8
1501934429469490,26,2,14,28,16,2,-2,21
1501934429481522,-5,1,2,-74,1,8,4,4
1501934429481522,-8,3,27,-5,20,2,-15,-16
1501934429482529,14,-6,-29,-83,-8,-8,-7,4
1501934429482529,-10,-2,-17,-72,-4,-4,-7,-30
1501934429512515,8,6,24,53,40,10,16,14
1501934429512515,2,2,11,38,-20,-4,9,1
1501934429512515,-11,-5,16,114,1,-12,-23,-38
1501934429512515,3,-3,-12,21,-5,4,-7,-3
1501934429518550,-29,-2,17,-79,4,-5,-5,-9
1501934429518550,-3,0,8,-1,7,2,27,15
1501934429519500,-4,-2,-24,-38,-15,2,-12,-14
1501934429519500,26,13,33,96,74,21,12,8
1501934429541535,-6,-11,-27,30,-33,-20,-59,-47
1501934429541535,-9,-7,5,63,-17,-15,54,14
1501934429542505,29,5,10,107,11,8,2,-6
1501934429542505,-33,-2,33,3,29,9,-11,-35
1501934429564536,6,4,-2,46,24,6,5,-3
1501934429564536,-14,3,19,72,54,3,-53,-13
1501934429565497,18,-1,-6,-82,-18,-12,22,9
1501934429565497,-1,-7,-87,-112,-30,-6,28,20
1501934429578555,-14,-6,2,81,17,0,-5,-11
1501934429578555,14,11,32,41,9,8,5,-10
1501934429579504,-47,-13,-27,42,-25,-5,9,-10
1501934429579504,20,0,-14,-57,-15,-6,-18,12
1501934429601501,0,-1,-9,22,13,0,15,11
1501934429601501,11,9,18,-78,-4,5,10,1
1501934429602498,-2,2,15,31,-12,4,-21,-46
1501934429602498,-10,-5,29,-56,5,-10,1,30
1501934429626499,-5,-7,-48,-111,-51,-6,-18,-24
1501934429626499,31,-4,26,70,9,0,15,36
1501934429626499,-1,9,16,-11,-2,5,1,-15
1501934429626499,11,-2,25,127,-11,-16,-5,0
1501934429638532,-32,-7,-1,-52,-39,1,15,-24
1501934429638532,15,7,2,-17,-4,3,-12,3
1501934429639514,-16,-4,-20,-103,5,-8,-36,-3
1501934429639514,23,3,-4,29,1,9,34,-8
1501934429661544,-25,1,8,-2,-8,-3,12,-41
1501934429661544,-23,-13,-41,-110,-30,-12,-13,-19
1501934429662504,7,4,21,108,24,7,-35,-2
1501934429662504,-32,-4,-8,-56,-30,3,42,-17
1501934429684542,24,8,45,72,28,9,-5,43
1501934429684542,-15,-13,-50,-63,-47,-16,0,6
1501934429685519,12,1,-13,25,23,2,3,7
1501934429685519,-4,0,29,63,22,-7,-24,1
1501934429699546,14,-4,14,100,17,3,10,33
1501934429699546,-1,6,22,19,33,6,-6,-10
1501934429700504,-22,-2,-19,0,-12,-5,9,-28
1501934429700504,-3,-7,0,21,-19,-9,-38,-34
1501934429721505,-14,-3,-26,-118,-4,4,38,-13
1501934429721505,15,7,0,45,32,9,0,38
1501934429722512,-45,-8,14,-26,-16,-5,-1,-48
1501934429722512,5,15,58,21,34,7,-3,11
1501934429744539,-21,-21,-68,103,-21,-8,-25,-20
1501934429744539,-9,-9,-34,7,-18,-3,0,-29
1501934429745506,23,1,-4,-23,0,1,-13,13
1501934429745506,-12,1,1,-2,-8,-3,17,-9
1501934429758539,24,3,29,2,11,-4,-9,19
1501934429758539,-3,0,14,-18,-30,8,15,10
1501934429759514,0,-9,-43,-37,-28,-5,1,18
1501934429759514,2,7,7,34,4,-1,-21,25
1501934429781516,-1,-2,9,-102,-29,-4,22,17
1501934429781516,-1,-3,-33,75,5,1,-10,-44
1501934429782522,10,-5,9,26,18,-3,-3,57
1501934429782522,-1,2,-13,-96,-47,1,-4,15
1501934429804519,8,2,-3,94,27,-2,1,-8
1501934429804519,9,1,21,-35,-34,-10,-11,22
1501934429805511,16,0,2,-66,7,4,10,-12
1501934429805511,21,-7,-8,-38,1,1,-3,19
1501934429818542,5,8,10,-116,-29,4,2,11
1501934429818542,-8,-5,6,99,22,-5,9,-36
1501934429826509,3,4,13,2,-43,-1,2,4
1501934429826509,-3,-11,-39,-54,-20,-10,-27,10
1501934429841543,-20,-3,3,5,7,1,20,-15
1501934429841543,15,6,14,9,16,4,-15,22
1501934429842523,2,2,-9,-71,-25,-3,-1,4
1501934429842523,-20,-2,3,-10,22,5,15,-38
1501934429863511,-7,-2,-15,2,-15,-10,-22,22
1501934429863511,-14,-7,-17,58,11,-4,4,8
1501934429864513,-9,-2,-15,-12,14,4,-16,-12
1501934429864513,11,8,8,107,45,9,29,17
1501934429878547,27,6,3,-78,-45,-7,-26,26
1501934429878547,-11,-8,6,56,11,6,25,-5
1501934429886557,-16,-8,-36,-89,-10,-4,-10,15
1501934429886557,-6,-4,-22,99,-3,-6,-5,-15
1501934429901558,40,4,18,18,26,10,3,33
1501934429901558,-77,-6,-33,-85,-8,-10,-13,-94
1501934429902517,13,3,18,52,9,2,16,14
1501934429902517,-12,0,13,27,-5,1,-14,-15
1501934429924515,-1,-6,-27,59,-4,-3,-8,-12
1501934429924515,31,9,19,-128,-36,0,4,56
1501934429931516,6,0,24,127,32,0,5,-3
1501934429931516,-11,-4,-20,-33,-8,2,-4,-1
1501934429938516,-18,-7,2,16,-20,-17,3,-21
1501934429938516,9,6,27,99,26,9,17,6
1501934429947529,8,1,-17,-35,-20,-8,-19,15
1501934429947529,-16,0,17,-34,9,0,-8,-31
1501934429961554,-14,-11,-35,60,-1,9,23,-12
1501934429961554,-7,-6,8,-82,-22,-14,-21,5
1501934429962519,-5,2,23,127,26,-5,3,-19
1501934429962519,10,2,11,-40,-12,0,16,-17
1501934429983521,1,0,-8,-34,33,4,-9,3
1501934429983521,-14,-2,-12,-48,4,2,3,-32
1501934429984521,11,8,-4,-5,46,19,3,6
1501934429984521,-15,-15,-39,-84,-22,-20,5,-14
1501934429998524,-11,7,4,-55,12,1,-15,-9
1501934429998524,13,0,9,43,1,-1,1,32
1501934430006554,35,11,19,-50,5,10,7,19
1501934430006554,-64,-14,-29,-43,16,3,-3,-41
1501934430021533,41,6,-13,8,-18,-5,3,12
1501934430021533,-4,1,10,82,15,1,7,22
1501934430022522,-17,-8,-9,-76,-19,-3,-38,-69
1501934430022522,15,7,15,34,-8,-5,19,37
1501934430043597,2,-5,6,11,-14,-5,4,-4
1501934430043597,0,1,-15,36,-11,0,-17,1
1501934430052537,-11,-3,6,55,-7,-7,12,-5
1501934430052537,8,1,7,79,-11,0,-8,0
1501934430067524,-4,2,1,-58,52,11,3,4
1501934430067524,16,3,-10,29,-10,-5,2,9
1501934430068559,24,-5,-5,-46,-13,-7,4,53
1501934430068559,-31,3,17,-23,-9,3,-10,-32
1501934430089567,-5,4,10,110,9,4,2,-4
1501934430089567,12,-12,-31,-32,-24,-13,-26,-8
1501934430091525,-13,6,25,83,1,1,31,15
1501934430091525,27,-6,-31,-53,-3,-2,-21,16
1501934430103559,-5,4,50,-5,-33,-2,7,-21
1501934430103559,-42,-10,-17,56,38,2,-34,-51
1501934430112527,-16,-6,-7,72,3,0,32,-1
1501934430112527,29,2,-23,-45,-18,3,2,14
1501934430126529,-26,-2,18,-80,-28,-4,-15,-19
1501934430126529,10,4,8,-72,0,3,5,-13
1501934430134530,-1,-1,-4,44,43,7,-1,9
1501934430134530,2,6,11,-59,-14,4,-3,-11
1501934430149540,-23,-9,-38,-9,11,-7,9,28
1501934430149540,23,10,51,27,-12,3,-3,13
1501934430151532,-6,-7,-24,0,11,-2,3,-14
1501934430151532,11,2,7,-24,-16,-2,-5,2
1501934430163579,-8,-3,8,-25,-3,-4,-23,-3
1501934430163579,34,0,-5,3,8,4,54,44
1501934430172547,-20,1,9,-65,-51,1,-6,-9
1501934430172547,18,-5,-23,95,14,-8,-22,-10
1501934430187548,-37,-3,9,86,29,-6,-12,-35
1501934430187548,-2,-7,-22,-23,-24,-3,11,36
1501934430188532,-2,-5,-12,34,10,-2,-30,-24
1501934430188532,-1,-2,9,51,-7,0,23,14
1501934430209602,21,0,-27,-92,-29,-3,2,19
1501934430209602,-17,2,4,13,17,6,-17,-6
1501934430211558,-11,-11,-41,-112,-26,-6,14,1
1501934430211558,-5,2,25,-45,-1,-6,-9,11
1501934430223583,7,3,1,22,19,3,0,-16
1501934430223583,12,0,-7,31,7,-1,-22,-19
1501934430232549,-14,3,38,55,3,-5,12,-16
1501934430232549,-1,-4,-16,91,-4,-3,-4,-8
1501934430247554,24,0,2,-79,-31,0,6,14
1501934430247554,-8,2,9,-47,-2,0,2,-4
1501934430248535,3,0,4,9,2,1,-9,0
1501934430248535,4,6,14,-24,15,3,6,22
1501934430269576,-6,-2,13,127,34,4,-5,-37
1501934430269576,16,16,34,-21,-13,13,-15,-6
1501934430271572,13,-7,-11,-115,-47,-12,51,39
1501934430271572,1,3,13,17,-2,-3,-15,-36
1501934430283580,3,-4,-13,-71,1,1,-2,-15
1501934430283580,-3,2,36,-22,2,3,-4,1
1501934430292542,-7,-7,-22,-28,-14,-4,-18,-14
1501934430292542,12,-8,-27,83,2,-3,6,35
1501934430307540,-2,-1,13,42,5,6,6,7
1501934430307540,-16,-2,-9,-58,-8,-10,9,-10
1501934430308541,7,0,-24,6,21,8,-17,5
1501934430308541,-2,-1,26,-34,-12,-2,-4,17
1501934430329541,3,2,-8,-23,13,-1,14,14
1501934430329541,-7,-4,-3,-5,0,-6,-8,10
1501934430331552,0,6,22,56,12,-1,2,-3
1501934430331552,2,7,-1,-128,1,11,-7,27
1501934430343603,13,-1,21,-26,-15,-3,1,1
1501934430343603,-11,-7,-16,-11,10,0,16,-4
1501934430352544,4,2,13,82,7,1,-19,-11
1501934430352544,-11,-4,-15,98,21,-4,-29,-19
1501934430367541,-8,0,19,64,15,1,34,39
1501934430367541,-2,-9,-16,45,-10,-6,7,-4
1501934430368571,38,6,24,44,5,-4,-29,13
1501934430368571,-20,1,4,43,34,5,20,-46
1501934430389570,-5,-5,-27,-69,-42,-8,-9,-6
1501934430389570,4,-2,-24,23,-14,-3,-2,13
1501934430391548,-8,-1,7,52,46,5,8,-12
1501934430391548,9,2,10,-2,-20,0,0,10
1501934430412545,-13,3,-6,18,-1,0,-17,-8
1501934430412545,1,-7,-12,-95,-14,-3,8,-6
1501934430413546,-6,1,4,22,-3,-3,-4,-2
1501934430413546,-3,-7,-15,-32,5,0,12,6
1501934430427544,9,1,-9,-63,-13,-3,-22,2
1501934430427544,3,1,2,121,8,2,25,19
1501934430428545,-11,-1,-15,-116,-11,-2,-4,-10
1501934430428545,1,-2,5,41,-11,-4,8,2
1501934430449547,4,-3,-31,-67,10,4,-26,6
1501934430449547,-2,-2,-38,-109,6,-1,6,9
1501934430451548,-11,-2,5,-7,-14,1,5,-10
1501934430451548,1,1,0,14,-8,-3,-5,1
1501934430463546,9,4,18,60,11,3,6,15
1501934430463546,1,1,1,-59,24,1,-10,-2
1501934430472551,-9,-2,-6,-14,-16,-5,-11,-15
1501934430472551,6,-1,-9,-37,-1,0,9,5
1501934430487559,-6,2,20,87,13,0,13,1
1501934430487559,-8,-2,3,87,-4,-5,2,-6
1501934430488549,-7,3,-1,29,-4,-3,-35,-41
1501934430488549,20,3,13,42,20,2,27,16
1501934430509583,-4,-8,-3,-2,-10,-2,-5,2
1501934430509583,-2,2,21,21,-7,-1,-2,-9
1501934430511549,-5,-6,-8,9,0,-3,-5,-6
1501934430511549,10,2,20,-57,13,1,-4,2
1501934430523588,-7,2,-12,79,32,3,2,-10
1501934430523588,3,-3,15,59,-17,-4,-18,-6
1501934430532584,14,-2,-7,74,-7,-7,14,39
1501934430532584,-21,-9,-24,-118,-12,-4,-13,-21
1501934430547562,-9,4,13,6,2,-2,3,-26
1501934430547562,-17,-3,-11,-31,3,0,-13,-15
1501934430548553,-1,2,11,5,4,4,13,8
1501934430548553,-8,-4,6,118,-16,-5,-10,4
1501934430569561,-7,-11,-38,-11,-28,-12,-5,0
1501934430569561,17,9,20,-31,32,11,12,8
1501934430571553,-6,-7,-23,-64,7,-5,7,7
1501934430571553,-5,-4,12,-79,-1,-5,-12,-7
1501934430583555,1,-1,-5,24,-18,-4,-6,3
1501934430583555,2,-2,-7,-9,-14,-4,-8,-3
1501934430592570,-10,-4,-3,-11,28,4,3,-28
1501934430592570,-6,-1,-1,-57,-12,-4,-9,22
1501934430606556,3,1,12,37,11,0,20,14
1501934430606556,-1,-2,-24,-43,-8,-1,2,-4
1501934430608556,-3,6,21,74,23,8,3,9
1501934430608556,10,-2,-23,-14,-7,-1,-17,-6
1501934430629565,-13,-5,-13,-103,-26,-4,21,18
1501934430629565,15,-4,9,36,4,-3,-8,-46
1501934430631565,-2,8,18,-35,-8,1,7,-6
1501934430631565,-8,-9,-23,-14,-9,-4,-12,-25
1501934430643593,3,1,1,9,6,1,-4,2
1501934430643593,-7,-2,9,80,13,0,-5,15
1501934430652562,6,-1,10,-83,-40,-3,-1,2
1501934430652562,-4,-1,-18,-49,-47,-5,7,9
1501934430667578,-1,-2,-15,-13,9,3,2,8
1501934430667578,1,5,22,-1,-14,-1,3,-1
1501934430668561,-2,-8,-50,-53,-2,-8,-10,-12
1501934430668561,2,2,14,120,36,11,-7,19
1501934430689625,1,-1,-13,-75,-53,-1,-4,7
1501934430689625,-2,-1,-12,-44,-6,-2,11,-24
1501934430695622,2,0,7,20,-1,-4,-7,11
1501934430695622,-2,-3,6,96,12,-4,8,-2
1501934430712562,5,7,23,22,26,8,-1,-3
1501934430712562,-18,-8,-10,-24,4,-4,-15,2
1501934430719566,6,1,-4,-116,-16,1,7,-8
1501934430719566,-2,3,-27,10,-37,-9,2,-5
1501934430727573,13,-1,13,56,21,1,-12,-23
1501934430727573,-3,-1,-14,34,-8,-5,2,22
1501934430728564,-8,-3,0,37,4,1,-4,1
1501934430728564,1,4,30,68,22,9,5,-7
1501934430749567,0,-2,-10,-73,-15,-3,2,3
1501934430749567,-1,-4,-11,36,0,0,-6,7
1501934430751564,2,-1,6,39,8,1,1,11
1501934430751564,6,11,29,18,8,4,13,2
1501934430772566,-4,-8,2,67,34,-5,-23,-10
1501934430772566,2,-7,-1,19,-31,2,8,40
1501934430773566,-4,-3,-21,-55,-22,-2,25,-8
1501934430773566,-1,0,-12,-100,15,3,-4,2
1501934430786602,2,3,22,45,36,1,3,2
1501934430786602,5,-2,-15,11,-23,-2,-8,7
1501934430793612,-7,-2,-4,-65,-30,-1,-9,-5
1501934430793612,-6,-4,7,99,7,2,-2,-1
1501934430809568,-4,-9,-54,-47,-18,-2,0,-2
1501934430809568,1,7,9,-70,-1,3,-5,-10
1501934430811570,-2,-7,13,48,2,-8,6,-2
1501934430811570,6,-5,-23,37,6,-9,1,11
1501934430831579,-15,2,19,-72,-65,3,-4,-19
1501934430831579,-2,-5,-4,38,12,4,2,5
1501934430833581,-1,4,4,2,7,2,-9,-3
1501934430833581,-2,-1,2,-45,-4,-1,-5,2
1501934430847588,2,2,19,96,17,-8,2,-6
1501934430847588,-3,-2,-25,-42,-8,-5,1,0
1501934430848571,15,0,2,-55,0,0,-13,1
1501934430848571,-12,-6,9,-42,2,-2,6,-9
1501934430869609,-3,-3,-25,-6,-9,-3,-11,-15
1501934430869609,-7,1,7,-97,-25,-5,7,-7
1501934430871607,4,3,11,48,16,-2,-8,5
1501934430871607,-9,-2,-6,-47,-11,0,6,-8
1501934430891572,23,2,-7,-64,23,2,0,54
1501934430891572,-22,-13,5,44,-30,-10,-11,-30
1501934430893573,11,0,-3,54,7,2,16,-1
1501934430893573,-10,-5,-28,-116,-51,-8,-2,-18
1501934430906575,-4,-2,-3,58,11,5,-2,8
1501934430906575,7,3,13,38,24,1,-11,-8
1501934430913575,-6,-1,23,42,5,-1,-4,14
1501934430913575,-2,1,-6,68,26,2,2,-10
1501934430929576,-7,-7,-7,8,3,-3,-7,-16
1501934430929576,-3,-2,6,-76,1,-2,2,10
1501934430931576,-5,-4,-32,-9,-12,-7,7,-12
1501934430931576,8,1,24,-61,0,-5,-4,12
1501934430951609,-10,-2,-20,-47,4,-1,1,-10
1501934430951609,0,0,9,7,7,1,-31,-41
1501934430953579,-6,-2,-7,102,21,9,28,7
1501934430953579,7,0,15,98,10,-2,-12,21
1501934430974610,-6,2,13,-63,-20,1,13,-16
1501934430974610,-10,3,-21,-53,9,1,1,0
1501934430976582,1,-6,11,-27,-21,-12,-12,8
1501934430976582,6,1,15,68,0,5,2,-7
1501934430989618,-2,1,-9,17,-14,-3,-3,-3
1501934430989618,-9,0,-3,115,27,4,11,14
1501934430995618,0,-1,-12,-42,15,2,-25,-13
1501934430995618,-2,0,9,3,-47,-6,15,12
1501934431019628,1,-2,-4,-89,-4,-2,-14,-32
1501934431019628,1,-4,-15,-22,4,8,2,7
1501934431021607,-15,-1,-12,9,-7,-2,5,5
1501934431021607,9,5,15,-55,14,1,-1,0
1501934431026645,4,1,-10,4,1,2,10,7
1501934431026645,4,3,5,-31,24,2,3,-23
1501934431033600,0,-1,6,2,-7,-2,-9,4
1501934431033600,8,3,6,34,13,5,1,16
1501934431049623,-15,2,25,4,-6,-5,-11,-18
1501934431049623,10,-1,0,-2,-5,3,8,18
1501934431051582,-18,-4,-1,-26,9,-2,-14,8
1501934431051582,-10,-7,-12,30,16,0,4,-20
1501934431071643,11,-3,-21,-15,-16,-9,-9,8
1501934431071643,-6,-1,2,65,-5,-3,2,-5
1501934431073583,9,1,-15,-22,-15,1,1,-18
1501934431073583,-4,-2,-10,-6,-7,-1,-7,-7
1501934431085628,-7,-3,12,22,7,-4,-1,-3
1501934431085628,5,1,2,-31,-2,-1,4,11
1501934431094592,4,0,-2,-28,-7,-1,-21,-2
1501934431094592,-7,-1,-3,-12,17,4,14,-7
1501934431109628,3,-3,2,34,4,-3,1,6
1501934431109628,1,1,6,-8,-28,-4,-9,-8
1501934431111586,0,4,-3,-14,23,4,0,8
1501934431111586,-4,-2,9,72,3,1,-1,-7
1501934431131654,0,0,11,55,0,5,7,6
1501934431131654,7,-7,-33,-21,0,-5,1,15
1501934431133587,-8,-4,-21,-10,-3,-4,1,-13
1501934431133587,3,2,3,36,-6,-1,-7,1
1501934431146650,-2,-5,-11,2,-11,-7,0,0
1501934431146650,-2,2,7,-14,-15,-2,-4,-1
1501934431153618,-6,-7,-26,46,4,4,16,-5
1501934431153618,4,0,-10,-85,11,2,-6,1
1501934431169629,-2,0,8,88,1,2,0,-2
1501934431169629,1,5,34,-31,7,-22,-7,2
1501934431171589,-5,-6,-28,-60,-16,12,-4,-2
1501934431171589,0,0,3,-15,-3,0,2,1
1501934431191655,1,0,-2,-11,13,-1,-8,1
1501934431191655,-4,0,1,-14,-4,-2,3,-17
1501934431193590,8,2,18,115,26,-1,13,22
1501934431193590,-6,-3,-31,-57,-31,-8,-10,-2
1501934431205658,-6,-2,9,35,-4,3,-7,-8
1501934431205658,5,-6,-33,7,5,-1,12,9
1501934431222594,9,3,28,89,11,0,-4,22
1501934431222594,-18,-6,-35,-71,-18,-6,-16,-44
1501934431229633,-3,1,18,51,8,-2,9,-9
1501934431229633,-2,-2,6,25,6,6,-4,-2
1501934431231595,13,5,10,52,31,4,7,22
1501934431231595,-7,-7,-12,-3,-36,-10,-1,3
1501934431251605,5,-1,-3,-24,8,7,-2,0
1501934431251605,-5,2,11,-24,0,0,2,-13
1501934431253605,3,-3,5,-24,-16,-8,0,-3
1501934431253605,7,1,4,32,20,3,1,15
1501934431274595,0,2,-12,-25,1,-3,1,1
1501934431274595,-3,1,18,2,-2,5,0,-1
1501934431276595,-1,-3,0,-48,-17,-5,-7,-7
1501934431276595,-2,5,6,-49,27,8,-1,-1
1501934431296596,14,-5,-8,-103,-24,-9,-1,37
1501934431296596,20,3,1,48,12,6,0,38
1501934431298596,-21,-3,-8,-37,-21,-2,4,-18
1501934431298596,-5,-1,-5,-28,10,3,7,-13
1501934431311600,2,-3,-13,27,7,-2,-10,3
1501934431311600,2,3,-7,-59,-1,-9,-7,1
1501934431313598,-2,-3,3,-48,32,8,2,-17
1501934431313598,4,-3,24,78,-27,1,0,15
1501934431325600,-3,2,0,16,-2,-4,12,-11
1501934431325600,-16,-6,-17,29,-12,-3,-4,-4
1501934431334600,-17,-3,-12,-34,-8,-13,-10,2
1501934431334600,-8,-1,12,28,16,-1,-8,-26
1501934431349634,12,5,32,52,4,3,6,21
1501934431349634,-13,-9,-38,33,-17,-8,-8,-24
1501934431351600,14,5,18,1,-13,-3,3,15
1501934431351600,-9,-4,-4,60,10,0,1,5
1501934431371646,-7,1,-9,-54,-15,6,0,-13
1501934431371646,7,0,3,10,14,6,5,11
1501934431373603,6,-1,4,-48,-33,-6,-19,-20
1501934431373603,8,0,-7,-84,-4,-2,18,21
1501934431394600,4,1,-2,4,-24,-6,-17,-33
1501934431394600,-6,1,0,-1,9,8,13,7
1501934431396602,-1,1,-7,-3,-7,-1,-8,-17
1501934431396602,2,-2,6,92,21,-8,-11,5
1501934431409601,1,-3,-19,-27,4,1,-5,22
1501934431409601,-9,-2,-7,46,-3,-2,8,-38
1501934431411607,10,5,2,43,38,6,8,9
1501934431411607,-12,0,-9,-38,-25,-5,-22,-26
1501934431431637,-5,2,9,50,20,6,21,5
1501934431431637,6,0,7,-34,2,-2,-10,4
1501934431433606,-4,-1,5,56,9,-2,5,4
1501934431433606,6,-3,0,-55,-15,11,7,-2
1501934431445639,-6,6,19,43,44,-4,-10,-13
1501934431445639,-12,-4,-8,65,-8,-2,-3,-15
1501934431454606,-3,-6,2,23,-15,-3,-3,9
1501934431454606,9,-4,-11,-39,-11,-8,0,6
1501934431469639,-14,2,17,33,9,5,-4,-7
1501934431469639,15,-5,-9,-86,-28,-9,-6,39
1501934431471610,-14,-5,-8,46,0,-1,11,-24
1501934431471610,1,-5,-1,38,-5,-2,2,5
1501934431492608,11,1,9,-36,1,0,-1,11
1501934431492608,-6,-4,-1,37,5,-3,4,0
1501934431494609,-2,-3,-19,-43,-17,-3,-6,0
1501934431494609,0,6,17,1,17,-2,-2,3
1501934431505641,-5,-9,-24,-37,-19,-6,-2,-6
1501934431505641,2,3,7,15,10,11,-4,7
1501934431514611,1,1,12,62,22,0,2,5
1501934431514611,2,-1,-5,-51,-5,-5,-8,0
1501934431529608,1,-6,-18,22,11,7,2,-9
1501934431529608,1,0,-2,-39,-22,-5,4,-5
1501934431531611,5,7,20,61,15,10,16,18
1501934431531611,-3,-8,-26,0,-35,-12,-15,-20
1501934431551612,-8,-8,-19,29,-5,-11,-7,-4
1501934431551612,1,1,-2,0,13,3,-11,-6
1501934431553612,0,4,27,-18,4,-5,3,-14
1501934431553612,1,-2,-19,3,11,7,-1,11
1501934431565645,-12,-1,10,-4,-19,0,17,4
1501934431565645,-5,-1,2,-7,8,-4,-9,-22
1501934431574613,5,-2,6,52,-6,2,-7,8
1501934431574613,4,2,3,-38,0,0,-6,4
1501934431596621,-10,-2,-5,11,0,5,7,1
1501934431596621,3,3,33,23,13,-4,-1,-6
1501934431598616,-13,-7,-35,-39,-22,-7,-4,19
1501934431598616,-2,0,-1,-89,-15,-2,4,-2
1501934431611613,3,0,6,-8,1,-3,-10,-6
1501934431611613,-3,1,10,33,19,0,0,13
1501934431613616,13,2,-12,-111,-25,0,-3,2
1501934431613616,-1,1,41,127,39,2,11,12
1501934431635641,15,-4,-37,-128,-35,-14,-12,-1
1501934431635641,-14,1,19,84,3,6,4,-8
1501934431637617,-6,-5,-19,37,-10,0,-6,-1
1501934431637617,-4,1,1,-37,3,-6,3,23
1501934431649650,3,0,-4,58,36,3,-4,1
1501934431649650,0,-4,-4,-49,-30,-8,-2,-13
1501934431651617,-3,5,24,-25,7,7,6,0
1501934431651617,2,-6,-9,-6,-12,-3,-1,-11
1501934431671616,-7,-1,9,78,25,1,-5,8
1501934431671616,-2,-1,-7,-12,-5,-1,14,6
1501934431673622,-1,0,5,-16,-6,-8,-12,-8
1501934431673622,3,-2,-24,-30,-3,-4,7,-5
1501934431694628,2,-1,-1,22,12,1,-6,1
1501934431694628,5,8,7,-31,9,17,17,-13
1501934431695621,-8,-9,-4,-104,-37,-14,-23,-22
1501934431695621,-9,1,2,56,13,4,17,6
1501934431708653,2,0,5,59,6,-6,-14,5
1501934431708653,6,-1,-12,-58,-23,-6,3,3
1501934431715622,-1,1,0,6,4,1,-5,-2
1501934431715622,-2,0,13,28,6,4,2,-17
1501934431731621,-4,0,18,-40,-11,-2,4,-12
1501934431731621,-8,-8,-35,-43,-3,4,-8,-7
1501934431733623,-2,1,-5,-33,19,2,-6,-18
1501934431733623,2,-8,-20,36,3,-8,-11,10
1501934431754631,3,3,17,-45,-27,2,11,3
1501934431754631,-8,-5,-16,-34,4,-1,-3,3
1501934431756624,0,-3,-9,-73,-31,-3,5,0
1501934431756624,-6,-1,6,-73,-12,-1,-5,-10
1501934431769624,4,-2,0,13,-2,-2,-4,5
1501934431769624,-2,3,27,22,12,-6,-12,-10
1501934431771634,-3,-10,-39,-21,-7,-5,4,1
1501934431771634,4,-2,4,15,4,0,-10,-13
1501934431799624,-6,-1,-17,-50,1,-1,7,2
1501934431799624,-4,-3,8,33,-15,-4,-19,-7
1501934431801628,12,5,16,55,20,1,26,37
1501934431801628,3,5,21,86,15,4,-4,-4
1501934431814626,-7,-5,-15,-13,-16,-6,-3,-9
1501934431814626,10,-1,-2,5,14,-3,-5,19
1501934431815628,-8,-6,-20,-32,-10,-1,-14,-34
1501934431815628,2,0,-5,-24,-7,-4,2,13
1501934431829628,-7,0,2,-15,12,8,8,-6
1501934431829628,4,1,1,24,19,1,-18,2
1501934431835628,-1,-2,6,-32,-5,-4,19,-8
1501934431835628,0,-3,-9,-39,-29,-7,4,10
1501934431851627,-5,-4,-3,40,15,0,-5,-16
1501934431851627,1,3,12,-21,-15,-4,0,13
1501934431853629,-5,-3,-12,-6,13,-1,-8,-9
1501934431853629,-1,5,13,15,13,4,-2,-7
1501934431874663,1,3,28,31,-5,1,7,12
1501934431874663,-5,-8,-12,108,34,0,1,-1
1501934431876630,5,1,9,34,-31,-2,-18,16
1501934431876630,-2,0,-1,-15,2,5,9,-10
1501934431888664,0,3,8,31,-18,-6,-1,-8
1501934431888664,5,2,16,13,6,5,7,10
1501934431895638,-10,-4,-10,-40,5,-2,2,-8
1501934431895638,1,-8,-38,31,-12,-9,-30,9
1501934431911631,-4,-3,-14,-50,-12,-4,8,-27
1501934431911631,3,-3,-16,-11,-10,0,14,4
1501934431913633,-4,0,22,30,5,8,-2,-4
1501934431913633,1,2,-3,-80,-17,0,6,11
1501934431934699,1,-2,-3,-26,-14,-2,-10,2
1501934431934699,0,0,1,21,-12,-5,-5,-1
1501934431936634,-1,-1,-12,37,2,0,-9,-10
1501934431936634,0,-1,22,58,0,-6,-7,14
1501934431948667,-3,0,-12,-85,4,3,28,-6
1501934431948667,-6,-3,5,40,8,-3,-9,-23
1501934431955645,3,2,-8,-37,-2,4,8,21
1501934431955645,-4,-3,-4,36,17,-1,-3,-14
1501934431971669,3,4,9,-23,-24,-6,-2,12
1501934431971669,0,-1,12,-12,18,2,2,1
1501934431973636,0,0,-5,15,10,-3,-3,-12
1501934431973636,-8,-4,10,78,2,1,3,-2
1501934431994699,1,-6,-34,-94,-23,1,-13,1
1501934431994699,-5,4,9,62,14,4,19,-7
1501934431996639,7,5,19,20,-24,-8,-13,8
1501934431996639,3,6,35,19,29,0,-4,2
1501934432008711,-6,-4,-25,40,7,6,-12,-1
1501934432008711,-7,-4,-20,-69,-38,-5,-1,-4
1501934432015681,15,4,11,33,8,-2,3,36
1501934432015681,-1,3,0,-45,-19,-1,1,-1
1501934432031705,-14,-3,5,60,23,1,-20,-32
1501934432031705,2,-1,-3,-11,2,0,16,8
1501934432033674,-4,-5,-11,-9,-18,-1,-1,-17
1501934432033674,1,4,2,-25,4,4,0,2
1501934432055652,-3,-7,-16,-81,-4,-11,1,-8
1501934432055652,-1,-1,-20,-56,-4,3,-9,11
1501934432056652,7,3,16,105,12,2,11,-2
1501934432056652,-8,-7,-20,-24,-1,0,4,-3
1501934432068701,-1,5,17,-44,-16,-1,0,4
1501934432068701,0,-1,-4,18,6,-3,-13,-4
1501934432075685,-5,-5,-15,33,12,2,3,-6
1501934432075685,-1,2,3,-18,-6,-3,0,-11
1501934432091702,6,2,20,96,49,7,5,13
1501934432091702,2,2,-14,-92,-33,-4,1,4
1501934432093643,-7,-5,-7,-30,-3,-6,-17,-11
1501934432093643,-5,-6,-21,-12,-11,-3,-13,-3
1501934432114686,10,8,42,15,-2,8,34,12
1501934432114686,-3,-7,-14,21,-2,-6,-16,-19
1501934432116646,-5,2,-1,-39,-4,3,21,11
1501934432116646,1,1,-8,-34,7,1,0,-10
1501934432136683,-8,0,9,95,9,1,-4,9
1501934432136683,0,1,2,-61,-26,-8,-10,-9
1501934432138647,-4,0,-7,-51,-5,-1,-10,-14
1501934432138647,0,-2,10,25,11,3,-2,-4
1501934432151685,6,-1,-15,22,8,-1,-8,9
1501934432151685,0,-2,1,14,-13,-3,24,11
1501934432153682,-6,0,19,127,11,-1,-8,-4
1501934432153682,0,-1,-17,28,-4,3,-4,-8
1501934432175686,-2,-6,-13,-7,-18,-5,-4,6
1501934432175686,5,-1,2,23,32,-2,5,24
1501934432177650,0,3,6,-69,-18,2,-1,-13
1501934432177650,5,3,3,24,22,5,10,12
1501934432188663,-1,-5,-15,-104,-30,-8,-17,-10
1501934432188663,-4,-5,-17,-12,-10,-4,-7,-3
1501934432197650,-1,0,4,14,5,9,4,0
1501934432197650,4,-3,-8,-15,-14,-1,1,9
1501934432211695,-5,-4,-7,29,11,-4,-3,-4
1501934432211695,-7,-1,5,26,10,0,-3,-3
1501934432213650,5,-2,16,12,8,-9,-6,9
1501934432213650,-2,-1,-27,-44,4,4,10,-9
1501934432234701,-1,0,16,88,13,-2,-10,-5
1501934432234701,1,2,3,-64,-8,2,6,8
1501934432235652,-1,-5,-18,6,-6,-4,2,-9
1501934432235652,0,-1,14,41,11,-3,-5,7
1501934432248656,2,3,8,42,-10,-2,-2,-2
1501934432248656,-1,-6,-8,51,-3,1,-1,-2
1501934432257653,-4,1,-18,-88,-4,2,-6,-16
1501934432257653,-8,-5,9,-26,-10,-7,-4,-6
1501934432271696,1,-9,-24,28,-8,-6,-6,10
1501934432271696,-1,1,3,-19,4,7,14,-5
1501934432273686,1,-7,-18,-53,3,-4,4,15
1501934432273686,-5,2,-1,-3,-25,-4,5,-10
1501934432294696,3,3,6,-2,21,2,-9,0
1501934432294696,6,1,7,-30,-19,1,-7,12
1501934432295663,-7,-5,-27,25,6,-7,-7,-6
1501934432295663,1,-5,-7,56,11,-1,-12,1
1501934432308656,-5,-4,-4,19,-6,-8,11,-1
1501934432308656,3,6,9,98,25,5,4,-5
1501934432317660,-1,1,12,-14,-13,-1,-4,2
1501934432317660,1,3,-3,-62,-1,-2,-2,-13
1501934432331718,-2,-2,1,19,-10,0,-15,-4
1501934432331718,-6,-3,2,23,-2,-9,5,-14
1501934432333657,-4,-2,0,4,0,1,1,-1
1501934432333657,3,1,-7,-42,-6,3,-18,-11
1501934432361723,2,3,12,-35,5,3,27,20
1501934432361723,4,4,12,-61,-2,-2,-2,19
1501934432363659,-4,-5,5,66,12,-1,-5,-10
1501934432363659,0,0,-1,-42,2,-1,2,3
1501934432368678,0,2,4,-82,-14,1,-2,-3
1501934432368678,-4,-8,-6,36,-6,-5,-11,-7
1501934432384696,-1,3,-7,-52,1,-3,1,-2
1501934432384696,-2,-2,10,79,20,0,15,17
1501934432391706,4,1,-3,-29,-7,4,1,-1
1501934432391706,-2,3,20,-25,19,6,-7,-7
1501934432393674,-2,-3,2,-43,-8,-3,-9,-6
1501934432393674,-8,-9,-15,110,-10,-5,1,-13
1501934432414725,3,-1,-2,-59,11,-1,-3,-1
1501934432414725,4,-1,-21,32,-1,-1,4,11
1501934432415672,-7,-3,18,-14,-5,-2,-3,2
1501934432415672,1,3,0,-100,-13,4,-1,0
1501934432428679,-6,-3,-7,17,3,1,0,-12
1501934432428679,1,-1,-7,-40,-3,-2,-11,0
1501934432437664,1,-1,-11,30,1,-3,0,-9
1501934432437664,-1,0,12,27,0,-5,1,0
1501934432451698,-3,-2,-8,-7,-10,1,4,-4
1501934432451698,2,0,21,26,11,4,-3,12
1501934432453664,-8,-8,-34,78,-9,-7,9,-15
1501934432453664,-3,-3,-7,-65,-12,1,2,-3
1501934432474725,5,-2,-3,22,5,-1,-7,-5
1501934432474725,-9,-3,3,24,-7,-7,-9,-9
1501934432475667,7,6,21,31,11,-1,4,14
1501934432475667,-1,-2,2,18,-20,-2,-6,-8
1501934432488677,-1,1,8,14,0,1,-2,-2
1501934432488677,-3,-5,-36,-79,-28,-8,-14,-10
1501934432497665,-4,2,17,-4,4,6,12,-4
1501934432497665,3,0,-1,11,-5,3,8,16
1501934432511700,-6,-4,-11,-39,-4,-5,-6,-6
1501934432511700,2,1,9,47,6,2,5,-7
1501934432513668,5,2,12,-18,-1,-3,-19,18
1501934432513668,-5,0,-8,-60,-2,2,14,-23
1501934432534732,0,-4,4,120,36,5,8,9
1501934432534732,0,2,-4,13,-10,-7,-10,-9
1501934432536669,-9,-8,-13,-35,-26,-2,2,6
1501934432536669,6,2,2,-37,5,2,-7,-14
1501934432548694,5,4,2,16,3,1,-2,2
1501934432548694,-5,-3,-6,-10,1,-3,1,-8
1501934432557670,1,2,-2,64,15,5,4,7
1501934432557670,4,2,28,61,-18,-5,-8,6
1501934432571733,-8,-4,-10,-3,-7,-5,5,-3
1501934432571733,-2,-6,2,4,7,-4,4,-3
1501934432573672,0,2,5,-13,-12,1,-3,-10
1501934432573672,-1,-1,-12,-77,-7,0,-10,-5
1501934432594714,1,8,23,-31,5,-4,-5,8
1501934432594714,-8,-7,-11,5,0,3,9,-3
1501934432596692,0,-1,0,16,8,1,-6,-10
1501934432596692,-1,-6,-13,60,-2,-8,4,5
1501934432616685,-2,1,10,7,-5,-2,-15,-4
1501934432616685,7,2,-3,-22,5,10,10,10
1501934432622685,-1,-1,-11,-44,10,1,8,-2
1501934432622685,-5,-3,9,54,-6,-10,3,2
1501934432633674,1,3,-1,-39,0,-1,-6,-1
1501934432633674,-7,-3,-2,8,-5,-4,1,-10
1501934432634679,3,4,15,-4,18,5,0,-1
1501934432634679,3,3,0,-48,18,2,-3,20
1501934432654720,-6,-6,-10,2,1,-3,-5,-25
1501934432654720,12,-2,-2,9,-8,0,5,6
1501934432655691,-14,-1,-7,-8,-14,-2,-8,1
1501934432655691,13,8,21,-21,31,8,20,18
1501934432676746,-6,-11,-46,-83,-49,-7,3,-1
1501934432676746,0,0,-2,-60,-22,2,-7,-4
1501934432678677,4,1,15,78,8,-7,-11,-2
1501934432678677,-4,-4,-19,-7,-10,2,-4,0
1501934432691739,0,0,-2,-34,-5,3,5,1
1501934432691739,-3,0,-1,49,23,-2,-5,-3
1501934432693678,0,-3,-5,-71,2,-2,1,0
1501934432693678,-7,-1,-12,21,-8,-3,-3,-6
1501934432714751,-1,1,11,-42,-1,2,10,-1
1501934432714751,0,-1,-1,-4,-11,-3,-3,6
1501934432715696,-3,1,23,54,7,-2,-5,-6
1501934432715696,0,-1,-21,31,6,-1,-1,-1
1501934432736756,-1,-5,-14,-28,-27,-3,-6,20
1501934432736756,-1,6,32,127,45,8,-5,-8
1501934432738702,5,-6,-25,-116,-35,-6,14,7
1501934432738702,-3,-5,4,59,7,0,-5,-8
1501934432751730,-2,0,-12,-10,4,-1,-1,6
1501934432751730,1,1,11,12,1,-6,2,-11
1501934432758691,-6,-1,-9,-51,-22,6,0,8
1501934432758691,8,4,27,47,28,-3,-7,2
1501934432774745,1,-5,-8,26,8,2,13,12
1501934432774745,-5,1,3,14,3,-1,-21,-17
1501934432775696,4,1,2,10,0,3,7,-8
1501934432775696,-3,0,7,21,0,-1,2,-1
1501934432796683,-8,-3,16,12,-21,-2,-17,-14
1501934432796683,-2,0,-1,-51,-10,-4,25,14
1501934432798703,1,-3,-10,13,15,-1,-3,1
1501934432798703,3,4,3,-6,23,6,4,9
1501934432811729,0,0,4,-56,-20,-8,-21,-32
1501934432811729,0,-7,-14,-12,-9,-4,6,10
1501934432818707,-5,2,15,28,4,0,-2,-9
1501934432818707,-5,0,9,-10,-30,-2,2,0
1501934432834746,4,3,-14,-22,16,2,0,-10
1501934432834746,0,-1,2,-89,-20,-1,-9,-1
1501934432835723,-3,-2,4,72,13,-9,-2,1
1501934432835723,-5,-3,2,3,-3,1,-4,-13
1501934432856727,-1,-4,-26,92,40,7,16,4
1501934432856727,14,0,-5,-102,-59,-1,1,45
1501934432858689,2,0,-7,11,4,2,0,-2
1501934432858689,-7,-7,-11,-6,-6,-9,-12,-13
1501934432871734,4,1,8,80,16,1,5,9
1501934432871734,-4,2,0,31,26,6,-8,-10
1501934432878714,-1,-3,-14,-13,-4,-1,5,4
1501934432878714,2,-1,-3,-15,-1,1,14,9
1501934432894722,-6,6,26,25,14,1,-7,-7
1501934432894722,-9,-15,-58,-51,-8,-8,-7,-8
1501934432896690,-10,-2,3,79,15,0,-14,-24
1501934432896690,-5,0,6,-92,-47,-7,8,7
1501934432915729,5,-2,6,68,30,3,-5,-15
1501934432915729,-4,7,15,-3,6,3,5,-18
1501934432924703,4,0,-1,-3,-15,-1,1,10
1501934432924703,0,-1,-12,58,18,1,-7,-4
1501934432931762,-3,-3,-10,10,-20,-8,3,6
1501934432931762,0,-1,5,53,8,2,2,0
1501934432937730,0,1,13,-42,-7,1,-6,-6
1501934432937730,-1,-5,-3,30,18,-4,-26,-6
1501934432955753,-3,1,23,-35,-10,-6,25,17
1501934432955753,-4,-1,-10,-8,14,4,-6,-4
1501934432960706,5,5,27,72,41,4,4,-6
1501934432960706,-5,-4,0,-95,-30,-5,3,-2
1501934432976739,-8,1,1,-65,-10,-2,-7,-36
1501934432976739,-2,-4,-8,73,0,-3,1,-5
1501934432978695,0,0,-2,5,15,-1,0,7
1501934432978695,-5,-2,-1,67,-25,-5,-2,-8
1501934432990757,3,-3,-29,-81,-7,9,-7,6
1501934432990757,7,1,12,127,17,-5,9,7
1501934432999707,-15,-4,-7,-54,-18,-5,-4,-14
1501934432999707,2,-3,-16,-21,-3,-1,-4,3
1501934433014758,2,5,3,-67,-25,-3,2,16
1501934433014758,-7,-5,-3,-7,-11,0,-5,-18
1501934433015698,9,1,8,-40,-6,-4,-3,16
1501934433015698,-7,-7,-8,-52,24,0,13,-6
1501934433036698,-1,1,7,39,1,0,-5,-1
1501934433036698,0,0,-2,17,5,-1,3,9
1501934433038697,2,2,-4,-65,-20,1,-9,3
1501934433038697,-4,-5,-26,-12,13,1,7,2
1501934433051699,1,1,23,15,-34,-5,-11,-1
1501934433051699,-8,-5,0,-4,5,-5,4,-1
1501934433058717,5,-1,-17,-2,6,3,5,12
1501934433058717,-3,-1,12,-30,1,2,-7,5
1501934433074738,-5,-8,-27,-11,-19,-6,-2,-2
1501934433074738,4,2,0,-31,-11,2,-3,-4
1501934433075725,-7,-6,-5,-48,-1,-8,-10,-9
1501934433075725,8,5,20,66,9,2,1,11
1501934433096765,-4,-2,8,-18,-21,-2,9,-5
1501934433096765,-2,5,13,-73,23,4,1,2
1501934433098738,2,-6,-35,8,-15,0,-1,-1
1501934433098738,6,-1,4,26,-8,-3,-10,10
1501934433110713,-14,-2,-5,127,52,-1,-6,-18
1501934433110713,4,1,0,-45,-20,-4,10,14
1501934433119707,1,-3,10,97,25,0,-10,-9
1501934433119707,-5,-1,-23,-39,-1,3,7,-1
1501934433134745,4,-3,-2,94,11,0,-2,10
1501934433134745,-2,-3,-12,-20,2,0,-7,-7
1501934433135705,-3,0,5,24,1,3,1,-3
1501934433135705,1,2,17,26,-1,-4,-1,-8
1501934433156743,-2,-3,-15,12,11,-2,9,2
1501934433156743,3,-2,-11,-6,-10,0,-8,8
1501934433158740,0,0,3,-13,-19,-4,4,0
1501934433158740,0,5,21,29,0,2,-6,-7
1501934433170746,2,-9,-23,-60,-20,-3,-4,8
1501934433170746,-11,-1,12,24,0,-3,-4,-12
1501934433185756,5,-2,-1,-47,-7,0,8,-3
1501934433185756,-5,-3,-11,27,1,1,2,3
1501934433194740,3,3,1,-45,-18,-3,-7,-4
1501934433194740,-5,2,20,35,9,3,5,3
1501934433195708,-1,-4,-19,-42,12,0,-3,4
1501934433195708,-3,1,11,20,-3,-5,-2,-7
1501934433216778,2,-2,-11,32,5,1,-9,3
1501934433216778,-6,-2,-6,-12,-24,-3,7,-25
1501934433218722,3,3,21,8,4,-5,-4,21
1501934433218722,3,-1,-8,16,-4,3,6,6
1501934433239750,-2,4,6,-63,4,-4,2,0
1501934433239750,0,-4,-8,-7,-3,2,-14,-14
1501934433240747,-4,2,13,-41,-22,-2,7,0
1501934433240747,-1,-4,-11,21,6,-1,-1,-1
1501934433261748,3,-1,13,-12,-2,-1,-1,4
1501934433261748,-3,-2,-15,-30,9,3,5,5
1501934433263748,5,2,19,100,7,-2,3,1
1501934433263748,3,-3,-16,93,7,-1,-6,-7
1501934433276755,-6,1,12,13,0,-1,-2,-3
1501934433276755,3,0,-4,-12,-26,-5,-13,-3
1501934433278723,-2,0,-5,63,26,3,27,10
1501934433278723,-4,-8,-4,-54,-21,-2,0,-15
1501934433290772,9,2,6,7,16,-1,4,20
1501934433290772,-2,-4,-16,-75,-5,-2,-6,-9
1501934433299714,-5,-3,9,56,-2,-3,-8,-9
1501934433299714,-1,1,-3,-23,7,-1,-3,1
1501934433314777,-2,-2,15,-22,-4,4,-1,-1
1501934433314777,0,-1,5,55,19,0,4,9
1501934433315751,-2,0,-14,-77,-22,-4,-2,3
1501934433315751,-1,-2,-16,-27,-12,-5,-2,-9
1501934433336759,-2,3,8,8,4,0,-6,-12
1501934433336759,1,-2,5,15,14,1,1,14
1501934433338725,0,1,6,7,-5,7,3,7
1501934433338725,3,-1,-16,-108,-13,-4,4,5
1501934433350780,-6,-4,15,41,-21,1,1,2
1501934433350780,3,7,26,127,25,4,1,5
1501934433359752,-5,-5,-23,47,6,-2,-6,-19
1501934433359752,-3,2,14,-26,4,0,-11,-1
1501934433374764,-2,-6,-24,-39,-43,-8,-4,-2
1501934433374764,-5,-1,3,-31,-4,1,7,0
1501934433375719,-2,-2,-3,-11,-6,2,-7,-5
1501934433375719,-1,0,6,40,32,-2,-1,-1
1501934433396718,1,2,12,18,10,2,-2,-4
1501934433396718,-2,-3,-14,19,-3,2,-6,-2
1501934433398719,-2,-2,0,-33,-13,-9,-10,10
1501934433398719,-7,-1,0,28,-1,2,13,-13
1501934433410781,5,-1,10,73,43,4,9,9
1501934433410781,-8,0,-7,-71,-30,-13,-5,-11
1501934433419754,2,1,-6,67,18,12,-1,-12
1501934433419754,0,6,18,-19,9,4,-4,2
1501934433434760,-5,-5,-9,7,1,3,7,-3
1501934433434760,2,4,26,-40,22,-4,-1,4
1501934433435722,-3,-2,-7,-5,-25,-1,-4,-7
1501934433435722,-5,-5,-16,-12,-8,-1,-3,6
1501934433455758,4,1,-4,-11,6,4,5,-4
1501934433455758,6,1,13,4,-6,-3,-4,18
1501934433471771,-9,-10,-21,-124,-14,-8,-3,-7
1501934433471771,5,0,6,27,-7,-4,-3,5
1501934433471771,4,1,7,34,12,-5,-18,-6
1501934433471771,-3,-4,-12,-2,1,2,19,14
1501934433479758,-7,4,5,90,21,8,5,4
1501934433479758,-11,-1,-11,-64,-46,-9,-4,-19
1501934433494796,13,-3,-14,-11,-14,0,-6,-11
1501934433494796,-19,-6,-9,59,6,3,0,3
1501934433500771,3,1,29,37,7,-31,-9,-9
1501934433500771,12,-5,-25,-84,-33,21,3,2
1501934433516789,-16,4,7,41,13,-4,1,-6
1501934433516789,16,2,1,27,-1,2,-2,16
1501934433518727,6,4,8,-67,-13,3,16,9
1501934433518727,-4,-9,-21,75,19,-18,-15,1
1501934433530797,2,0,5,18,-11,-1,-8,-1
1501934433530797,2,-3,-2,-97,-36,-5,6,0
1501934433539736,-1,-5,-31,-4,0,5,2,19
1501934433539736,-8,3,19,12,-2,-5,2,-11
1501934433554771,15,3,-11,33,-9,6,-1,17
1501934433554771,-14,-12,-11,-12,-10,-13,-12,-11
1501934433555730,3,-1,-14,-2,-20,-3,-6,-8
1501934433555730,8,2,11,76,-5,7,1,19
1501934433576763,-7,-8,-30,-82,25,-1,6,3
1501934433576763,5,3,4,3,-9,-4,-10,-21
1501934433578730,2,1,6,-42,-3,6,3,-10
1501934433578730,-1,-6,-26,10,20,-2,0,15
1501934433599774,-6,2,18,-33,-11,-21,-16,-7
1501934433599774,0,0,18,37,23,20,31,-33
1501934433600733,-4,1,2,28,1,1,4,-2
1501934433600733,4,0,9,-20,-3,1,-3,8
1501934433614747,-8,0,-11,-34,-2,-5,-5,-8
1501934433614747,17,-2,-5,-29,-8,-13,-19,2
1501934433615732,-3,2,29,110,22,18,6,2
1501934433615732,-17,-6,1,-21,-21,-13,-9,-12
1501934433636780,6,4,-9,-49,2,5,9,34
1501934433636780,-2,-5,-25,23,-30,-9,6,13
1501934433638735,5,2,9,-53,4,-5,4,-1
1501934433638735,0,2,8,-14,-2,1,-15,-29
1501934433659778,-4,1,1,27,5,4,4,5
1501934433659778,2,5,8,39,18,4,2,-4
1501934433660735,-6,-7,-13,-31,1,-5,-17,-1
1501934433660735,3,4,24,45,3,-4,31,24
1501934433674779,-3,-9,-20,-44,-7,-3,-9,-20
1501934433674779,1,6,22,28,12,-8,-4,-6
1501934433675737,-13,-8,-22,19,-3,7,-12,-18
1501934433675737,1,2,13,37,15,11,2,-2
1501934433696795,13,8,27,40,17,6,8,9
1501934433696795,-13,-11,-48,-76,-10,-14,-8,-5
1501934433698738,7,0,-6,-4,-8,0,-1,21
1501934433698738,-2,0,-6,41,15,1,-1,-17
1501934433719771,0,2,18,76,-13,-2,1,3
1501934433719771,-7,0,-5,2,3,-5,-18,-19
1501934433720738,6,-1,4,-19,4,0,-2,7
1501934433720738,-2,-2,0,-108,-23,8,24,-23
1501934433733737,-6,-7,-36,54,-15,-5,-3,3
1501934433733737,-1,0,8,37,-6,-14,1,-2
1501934433740748,-1,4,2,10,23,10,-4,-10
1501934433740748,1,-1,1,29,9,-2,-12,7
1501934433756772,-6,-3,-1,-4,-10,1,-1,-6
1501934433756772,-4,2,12,-20,-2,3,5,1
1501934433758742,2,-8,-14,30,8,-8,-4,0
1501934433758742,-8,-2,0,93,24,-2,-4,1
1501934433779774,3,-1,16,-124,-42,-4,5,-5
1501934433779774,-7,7,8,61,8,1,-4,7
1501934433780743,0,-2,-12,-78,-27,2,0,-10
1501934433780743,-6,2,10,6,4,0,-2,7
1501934433793775,-10,-3,-9,15,13,-4,7,-1
1501934433793775,3,-6,-21,-46,5,4,-6,-7
1501934433800784,-6,3,10,-23,-18,-8,-1,7
1501934433800784,5,0,-4,10,7,-8,-10,-4
1501934433816783,-2,-4,-10,-53,-2,5,4,2
1501934433816783,2,1,-3,47,7,15,6,6
1501934433818756,4,4,-3,20,8,-1,7,0
1501934433818756,-2,-4,-22,-62,-31,-8,-6,-3
1501934433839813,-3,-3,10,-4,13,-2,0,5
1501934433839813,6,1,7,30,-2,-4,-5,1
1501934433840783,-3,5,26,-45,-3,-1,1,2
1501934433840783,12,-6,-3,-4,0,-7,1,15
1501934433853798,-18,1,-8,-11,-7,8,-5,-39
1501934433853798,-3,-1,7,-12,-5,-3,2,-9
1501934433860789,15,3,4,17,2,-2,-10,3
1501934433860789,-11,-6,-16,-4,-1,-2,8,18
1501934433876788,5,-6,2,-40,-16,-7,-2,9
1501934433876788,-1,-2,-4,-3,13,6,6,-12
1501934433878747,-6,-1,12,65,19,0,-2,-13
1501934433878747,-2,1,-11,-52,-19,-3,-9,-5
1501934433899787,3,-3,-3,59,17,-3,-1,-1
1501934433899787,-3,0,10,-84,-24,11,-1,5
1501934433900750,-2,0,15,76,-3,-10,3,-3
1501934433900750,8,-1,-7,57,0,-1,-4,3
1501934433913795,-10,-7,-36,-32,-2,0,-3,-12
1501934433913795,0,-3,-13,-10,-7,-8,-5,0
1501934433920813,-6,-3,1,23,42,2,2,-3
1501934433920813,-1,1,11,-60,-12,2,1,-2
1501934433936788,8,4,19,19,9,3,-7,4
1501934433936788,0,1,0,-11,-5,-4,4,6
1501934433938751,-12,-10,-33,22,0,6,4,-7
1501934433938751,2,0,-4,5,20,2,-1,6
1501934433959795,2,3,19,72,-3,-1,6,-12
1501934433959795,3,-2,0,30,7,-2,-4,0
1501934433960753,4,-4,-7,-26,-30,-12,1,7
1501934433960753,-9,-2,8,35,11,3,-10,-1
1501934433973813,-9,-1,4,-64,-31,-12,-3,-31
1501934433973813,-8,0,2,14,2,1,1,1
1501934433980794,17,1,-10,-25,-6,6,-3,11
1501934433980794,5,1,3,-11,2,4,-2,-2
1501934433996820,-5,-2,5,-18,11,0,-5,12
1501934433996820,-5,-5,9,85,2,-7,-10,-3
1501934433998754,-5,1,0,-6,-17,-4,3,9
1501934433998754,25,11,28,19,29,9,11,-2
1501934434019789,-24,-10,-9,-74,-17,-2,-5,8
1501934434019789,6,1,6,-28,-2,-1,4,10
1501934434020756,-20,-1,-1,-12,-4,-8,-5,-3
1501934434020756,3,-2,-1,41,-9,5,-3,-7
1501934434033764,9,4,20,102,26,2,6,4
1501934434033764,-2,0,5,13,-14,1,0,1
1501934434047773,-7,-5,-19,-36,-14,-7,-2,-7
1501934434047773,0,0,-8,-69,0,-6,-6,4
1501934434056824,15,4,8,3,-21,3,9,4
1501934434056824,-26,-5,-15,79,27,6,1,-5
1501934434058758,3,1,2,-33,-6,-8,-3,-6
1501934434058758,-9,-5,2,-7,-4,-9,-15,1
1501934434079831,16,-2,-7,33,15,0,18,-3
1501934434079831,14,1,4,-21,2,10,-2,27
1501934434080762,4,2,5,-17,-15,2,-3,-8
1501934434080762,-14,-4,-13,-42,-20,-6,2,-19
1501934434092820,-4,4,2,-54,3,-1,-13,1
1501934434092820,12,-1,-2,-9,-27,-7,-6,6
1501934434101824,0,-3,-3,-33,-15,2,4,-6
1501934434101824,-4,-3,-8,3,7,1,2,8
1501934434116801,-6,-1,7,85,19,-22,-8,-4
1501934434116801,3,0,-5,-48,5,25,5,-5
1501934434118761,1,-1,-6,29,1,-6,2,20
1501934434118761,1,1,4,3,-8,1,2,-6
1501934434139805,-8,-4,2,29,12,-4,-1,-1
1501934434139805,-7,-7,-23,25,-3,-11,-12,-7
1501934434140763,5,2,11,-7,-2,-1,-1,-5
1501934434140763,-10,-3,4,24,-1,0,-1,-7
1501934434152785,3,2,-8,-11,1,4,-6,3
1501934434152785,3,3,10,25,20,-9,2,0
1501934434161802,-5,-4,-29,-45,-9,13,8,-8
1501934434161802,0,1,9,-1,16,-8,-2,1
1501934434176824,2,-1,-9,7,-3,6,-10,9
1501934434176824,15,0,0,8,11,2,10,4
1501934434178767,-8,-3,2,-22,21,-1,9,5
1501934434178767,14,3,-1,22,-12,-2,-14,-19
1501934434199808,-7,-1,-2,27,-3,1,4,13
1501934434199808,5,-2,-10,-95,-13,-5,0,1
1501934434200766,-9,1,12,87,23,2,-6,-3
1501934434200766,3,-2,0,-7,-8,3,2,1
1501934434212787,-2,0,4,0,-6,-13,-4,-3
1501934434212787,-15,-4,7,27,5,9,-16,-24
1501934434221835,1,3,7,-75,-12,5,14,-1
1501934434221835,2,2,21,25,11,0,8,15
1501934434236805,1,1,-32,-24,-5,0,-4,-5
1501934434236805,-3,2,10,56,6,-7,3,-4
1501934434238795,-1,-2,-3,-21,-6,-3,-14,-5
1501934434238795,-4,1,7,13,0,6,1,-1
1501934434259841,-2,-8,-29,-54,-1,-8,3,-3
1501934434259841,1,0,-7,-31,30,8,1,11
1501934434260772,-3,-2,12,99,20,-1,-6,-19
1501934434260772,-3,3,2,-72,-31,-7,-4,-5
1501934434273775,1,-1,-11,-56,1,9,7,-5
1501934434273775,-13,-1,5,24,-3,-7,-5,-23
1501934434281801,1,3,7,55,2,-4,3,2
1501934434281801,-6,-7,-20,19,3,2,4,0
1501934434296817,1,1,16,37,0,-3,-6,0
1501934434296817,4,-1,1,-34,-8,-2,1,6
1501934434298775,1,1,5,-98,4,-1,-10,0
1501934434298775,0,-4,-25,23,-25,-20,-1,1
1501934434319813,3,1,14,5,1,28,9,10
1501934434319813,-2,4,9,44,-9,-2,-4,-6
1501934434320775,0,-8,-14,8,-9,-10,-5,1
1501934434320775,-2,-1,-4,-94,-13,-3,-8,8
1501934434332833,7,-2,-6,32,5,-7,2,-4
1501934434332833,-10,1,-10,-86,-16,0,7,-13
1501934434341784,2,-2,21,37,11,-4,-10,3
1501934434341784,-4,2,-1,-36,-17,8,4,-4
1501934434356814,1,3,20,92,2,-4,-11,-3
1501934434356814,-1,-1,-7,-26,5,-4,1,-1
1501934434358790,1,0,-5,10,-28,-5,8,15
1501934434358790,-6,-4,1,39,32,6,4,-11
1501934434379810,3,1,-1,5,-22,-1,8,9
1501934434379810,3,5,-6,-109,-51,-2,-3,-4
1501934434380778,-4,0,12,46,12,-3,-15,-12
1501934434380778,0,-1,-5,-18,7,4,17,2
1501934434392820,-8,-5,-20,-38,6,-12,-20,-2
1501934434392820,-6,-1,6,18,10,14,28,6
1501934434401796,5,2,-9,22,-3,7,0,3
1501934434401796,-6,-6,-1,-64,-1,-7,-17,-3
1501934434416821,-2,2,2,23,-9,1,9,0
1501934434416821,-1,-5,9,98,14,-8,11,11
1501934434418814,-3,0,-3,-106,-32,-6,-14,-10
1501934434418814,2,0,0,50,26,6,0,-6
1501934434439830,2,2,9,-99,-5,6,-3,-10
1501934434439830,-4,-11,-13,-21,-16,-25,-19,-1
1501934434440807,1,2,1,-16,11,12,17,5
1501934434440807,-5,-2,-1,68,17,-2,-2,-5
1501934434452807,7,6,23,-25,-9,5,-2,5
1501934434452807,-4,-6,3,-21,-13,-9,-6,-5
1501934434461796,0,-2,-28,-86,-16,-3,2,11
1501934434461796,-5,-2,7,44,4,-9,-10,-15
1501934434476825,-7,0,-2,30,0,1,-7,-1
1501934434476825,2,2,9,66,21,-2,19,10
1501934434478795,-7,-3,-25,-38,1,9,-2,-16
1501934434478795,-3,-2,0,30,-17,0,0,5
1501934434499824,0,-1,12,36,16,-1,-1,1
1501934434499824,-1,-7,-30,-44,1,-8,-16,-8
1501934434500784,-1,1,-2,42,1,-4,5,21
1501934434500784,11,-1,1,49,5,7,18,-2
1501934434521829,-2,-2,3,-29,1,-8,-5,14
1501934434521829,6,2,-2,18,3,6,-2,-12
1501934434523785,-1,-1,4,-34,-3,-5,4,-3
1501934434523785,-5,-4,-12,-10,7,-2,-12,7
1501934434536816,0,-2,-8,-8,-2,6,4,2
1501934434536816,0,1,15,-93,-10,0,-15,-12
1501934434538794,2,2,23,127,12,0,15,3
1501934434538794,4,-1,-12,-29,-22,-7,0,3
1501934434559829,-3,-4,-13,12,-7,-2,9,-6
1501934434559829,-1,1,-9,-38,-4,3,-6,5
1501934434560796,-2,-1,1,25,-2,-5,-7,-14
1501934434560796,-3,-1,5,-20,17,-6,-6,1
1501934434581847,-3,-4,-14,30,-7,7,-4,-10
1501934434581847,-8,-2,-3,76,14,6,5,-6
1501934434583791,1,-8,-8,21,-22,-8,-5,9
1501934434583791,0,1,1,-22,3,-1,-3,2
1501934434596788,-4,1,8,19,10,-5,0,-14
1501934434596788,4,-2,-9,2,-1,-4,-2,9
1501934434598790,-2,0,5,-38,-1,0,1,-5
1501934434598790,7,3,-3,1,-9,-1,2,18
1501934434619796,1,1,11,-8,-2,4,-1,-6
1501934434619796,0,1,-5,-26,3,6,-2,0
1501934434625857,-6,0,1,40,13,-1,-7,-7
1501934434625857,2,1,-2,-29,1,3,6,5
1501934434641824,-3,-6,-2,51,-10,-10,-4,-4
1501934434641824,-5,-2,2,-16,0,-8,-2,-13
1501934434643824,-1,-2,-3,-49,-4,3,1,-4
1501934434643824,-4,5,17,-10,-2,1,-4,-8
1501934434656811,0,-3,-19,2,12,6,1,2
1501934434656811,-1,0,-7,-9,-22,-3,-6,6
1501934434662826,-1,4,17,-32,1,0,3,2
1501934434662826,11,-3,-10,-78,-5,-2,-10,-30
1501934434679805,-9,-2,-14,3,13,0,12,-6
1501934434679805,29,4,15,40,-11,3,1,34
1501934434680796,-27,-7,-11,-4,1,-7,-9,-49
1501934434680796,-2,3,-2,26,1,6,10,15
1501934434701843,4,0,6,-32,-5,-10,-8,2
1501934434701843,-4,2,2,20,4,6,0,-14
1501934434703799,23,-1,-11,23,2,-2,-2,19
1501934434703799,-13,-4,2,-10,-12,-3,2,21
1501934434716813,-10,1,9,-4,0,2,-3,-44
1501934434716813,19,-4,-21,-20,-4,-7,1,-11
1501934434722838,-27,-3,1,49,-1,-5,1,2
1501934434722838,-10,-6,-6,-89,-14,-7,-16,-12
1501934434739839,-4,-2,2,54,4,1,1,2
1501934434739839,3,5,26,31,13,6,10,0
1501934434740799,6,-2,-12,17,3,-2,-4,-1
1501934434740799,3,-7,-23,-7,-14,-6,3,2
1501934434761847,3,-3,-12,-64,-9,-13,-7,37
1501934434761847,-10,2,11,61,19,20,-2,-4
1501934434763818,10,0,6,-101,-49,-6,4,0
1501934434763818,-8,1,14,99,19,-3,-9,5
1501934434776820,7,-3,7,49,-16,-3,6,13
1501934434776820,5,-2,-19,-9,-8,-7,-8,13
1501934434782833,-12,-5,-5,-8,7,0,3,25
1501934434782833,14,0,-1,76,13,4,-4,-2
1501934434799840,-17,-1,1,-99,-28,-6,-3,-27
1501934434799840,-9,1,6,-8,3,0,1,-5
1501934434800801,22,3,9,59,24,7,-5,15
1501934434800801,-16,-7,-6,-57,-14,-7,1,-35
1501934434829804,14,-1,-14,-26,16,-1,1,24
1501934434829804,-11,-2,3,-69,-12,-11,-9,-8
1501934434830803,3,1,-4,14,4,7,-2,6
1501934434830803,2,1,3,35,11,5,11,15
1501934434836811,8,-4,-18,-38,-3,2,-2,4
1501934434836811,-12,-4,7,13,-6,-6,-5,-8
1501934434842804,4,2,-2,20,-8,3,-1,-8
1501934434842804,-4,-1,-2,77,39,5,0,-1
1501934434859844,-4,2,15,-43,-15,1,2,0
1501934434859844,2,0,12,67,11,-6,-4,4
1501934434860805,-10,-7,-19,-52,-4,-11,-7,-19
1501934434860805,3,2,3,-22,2,5,-2,-3
1501934434881820,0,0,3,-2,4,-3,15,24
1501934434881820,-5,-3,-8,11,7,4,1,-18
1501934434883808,2,3,3,21,5,0,1,-5
1501934434883808,-3,-5,16,84,0,-3,-16,5
1501934434896809,-11,-4,-14,-84,-11,-17,-6,-23
1501934434896809,-6,-2,-2,-14,-15,6,9,6
1501934434902808,-16,-3,5,10,1,-4,-3,-7
1501934434902808,0,-1,-16,-56,-25,-3,3,-3
1501934434919819,0,1,5,64,12,4,-13,-5
1501934434919819,-2,-1,-2,-39,8,-1,2,14
1501934434920810,6,0,6,6,6,-2,3,-7
1501934434920810,0,-1,1,-1,-4,-5,2,9
1501934434941820,0,2,0,8,5,7,-2,-7
1501934434941820,2,-4,-7,6,1,-4,-1,1
1501934434943811,-2,-1,-2,-4,5,-2,-8,-2
1501934434943811,0,1,-1,-29,-8,-2,5,0
1501934434956813,2,0,1,6,-1,6,-6,-6
1501934434956813,-7,-3,-10,-14,-6,-12,1,6
1501934434962811,3,-1,-1,-5,3,10,10,6
1501934434962811,-4,-1,-1,5,-5,-1,0,1
1501934434979824,-3,-3,2,19,9,-1,-11,-40
1501934434979824,-1,0,0,7,0,-1,1,9
1501934434980813,-1,-2,-4,-3,1,-4,-4,-2
1501934434980813,-7,-1,-5,-38,-11,0,-6,-21
1501934435001814,2,-1,-3,18,-3,-12,6,11
1501934435001814,-8,-2,0,-10,-5,5,-14,-16
1501934435003815,-1,1,-3,-15,-3,1,-1,-8
1501934435003815,4,0,-2,-9,-3,3,24,16
1501934435015827,2,-1,1,14,1,-4,-9,8
1501934435015827,-8,-3,-2,0,-4,-3,-3,-7
1501934435024816,3,-1,-3,-8,-1,2,1,4
1501934435024816,6,0,-1,0,-2,-6,-9,3
1501934435039849,-15,-2,2,7,1,0,-2,-9
1501934435039849,3,-1,-3,-11,-7,-11,4,2
1501934435040816,-9,1,0,2,7,15,-13,-20
1501934435040816,6,0,-2,-7,-3,0,15,13
1501934435061851,1,-2,-2,2,0,0,4,11
1501934435061851,4,0,-3,-3,-4,-6,-5,-1
1501934435063817,-4,-3,-1,-2,-1,-2,-3,-8
1501934435063817,1,-2,-2,-1,-2,0,-18,-4
1501934435075861,6,1,0,4,5,3,13,11
1501934435075861,-7,0,-1,3,-1,-6,-1,-7
1501934435084827,10,-1,0,-3,-2,1,4,7
1501934435084827,1,0,-2,-6,-3,1,1,3
1501934435099852,-7,-3,-1,2,0,-1,4,4
1501934435099852,1,1,-1,-3,0,1,-5,-2
1501934435100819,1,-1,-3,-3,-1,-9,0,4
1501934435100819,-1,0,-1,-4,1,0,-8,-1
1501934435121856,-4,-2,0,6,0,3,2,-4
1501934435121856,3,-1,-1,0,-1,2,5,4
1501934435123823,-2,-3,-3,-2,-4,-14,-2,6
1501934435123823,-5,-2,0,-1,-1,10,0,-10
1501934435136822,3,1,1,3,-1,1,1,0
1501934435136822,0,0,2,-3,-1,0,-3,1
1501934435144824,4,-1,-6,1,0,3,-2,7
1501934435144824,-2,0,0,8,-3,-8,-7,-5
1501934435159856,-2,-5,-3,-5,-4,-1,-2,2
1501934435159856,3,0,0,-2,2,6,4,3
1501934435160823,-5,1,0,1,-3,-10,-1,-4
1501934435160823,-2,2,5,14,4,-2,-1,-4
1501934435181856,2,2,-1,-54,-2,5,-5,9
1501934435181856,-3,-2,2,33,-1,-5,-6,-4
1501934435183825,-3,0,-1,-14,0,3,8,-8
1501934435183825,-1,-2,-7,10,-4,-1,-2,10
1501934435195833,-3,-2,4,-2,3,0,-3,-7
1501934435195833,2,-1,2,-15,1,-2,-2,-5
1501934435204825,-1,0,-6,2,-3,3,7,-2
1501934435204825,0,-1,3,24,7,-1,3,-2
1501934435219835,0,-2,-10,-14,-15,-7,-11,2
1501934435219835,-3,-2,0,-5,-1,-2,3,1
1501934435220826,4,2,4,7,4,1,9,12
1501934435220826,-4,-2,-9,-11,-5,-4,-9,-5
1501934435241836,-1,0,-2,-35,4,1,3,4
1501934435241836,1,-1,9,33,-3,3,0,3
1501934435243828,0,-2,-3,-10,-8,-3,-8,-5
1501934435243828,-2,-1,-4,-10,-1,0,2,0
1501934435255836,0,-1,3,4,1,-3,0,0
1501934435255836,2,-1,6,65,3,1,-5,5
1501934435264828,1,-3,-18,-65,2,2,-1,10
1501934435264828,-6,-4,3,-45,-17,-9,-8,-17
1501934435279827,0,0,1,37,7,-1,-3,-2
1501934435279827,-5,1,4,77,5,2,7,-11
1501934435281829,1,-2,-2,11,-8,-5,-7,5
1501934435281829,1,1,-7,-50,2,2,-15,4
1501934435301891,6,-1,3,60,3,-1,5,-5
1501934435301891,-10,-4,-13,-113,-12,-2,4,7
1501934435303863,1,-1,3,-15,0,1,-4,-6
1501934435303863,0,-1,-2,-23,0,3,2,0
1501934435315890,-1,0,4,48,0,-4,-1,-2
1501934435315890,5,1,0,-9,8,2,-4,2
1501934435324845,-7,-5,-7,-5,-17,-10,-3,-8
1501934435324845,-1,-2,12,42,4,-4,3,-1
1501934435338895,-6,-1,-1,4,0,3,-1,-5
1501934435338895,5,-1,-7,-26,-4,-2,3,1
1501934435345898,-2,1,1,-31,4,-1,0,-1
1501934435345898,-1,-2,3,55,-2,-2,2,-4
1501934435361874,1,-3,-6,11,0,1,-2,10
1501934435361874,-4,0,-2,-17,-6,-2,-6,-4
1501934435363842,1,1,5,19,3,0,-1,-1
1501934435363842,4,-1,-2,-12,-2,0,1,2
1501934435375902,-3,0,-4,-30,2,2,-2,0
1501934435375902,-1,-3,4,24,-4,-3,-3,-3
1501934435384836,4,0,-4,-15,-5,0,0,10
1501934435384836,-4,1,-1,12,1,-1,8,-4
1501934435406909,0,-1,-2,-24,0,0,5,4
1501934435406909,9,2,-4,-12,2,1,3,3
1501934435408837,-8,1,2,32,4,1,-2,-10
1501934435408837,-3,-2,-4,-20,-3,-2,-1,-2
1501934435421851,-6,-1,-1,-7,-5,-3,-7,-14
1501934435421851,-1,-3,-4,-12,-5,-3,0,2
1501934435423838,2,-3,1,17,-1,-5,-1,2
1501934435423838,1,3,2,3,8,8,3,3
1501934435435853,-1,0,4,3,-2,-1,-6,-1
1501934435435853,-2,-2,-4,-10,-1,-1,8,1
