timestamp,emg1,emg2,emg3,emg4,emg5,emg6,emg7,emg8
1501935767880191,-22,0,-14,43,1,0,1,-17
1501935767880191,7,10,43,-27,-6,2,6,7
1501935767884230,-5,-9,-31,-92,-33,-8,-1,-4
1501935767884230,-8,0,10,-6,-12,-3,-3,-13
1501935767885191,23,3,6,58,25,7,-2,40
1501935767885191,0,-9,-47,-57,-27,-9,-7,-37
1501935767886223,-20,4,11,-8,20,5,4,9
1501935767886223,-14,-14,-15,-72,-4,-15,-6,-5
1501935767890208,0,4,15,31,-7,-6,-2,-4
1501935767890208,-8,-1,-4,-27,-6,3,-2,-6
1501935767901229,13,8,38,109,36,14,4,5
1501935767901229,-2,0,-19,108,-11,-8,-3,-1
1501935767905245,18,5,2,55,8,4,0,4
1501935767905245,-8,-5,20,84,23,-2,-2,-1
1501935767920228,4,0,-7,-15,-8,3,-2,-1
1501935767920228,-24,2,-12,-86,-18,4,2,-32
1501935767929200,13,0,-9,-72,-16,2,0,0
1501935767929200,-2,-2,8,127,4,-5,2,11
1501935767951199,1,-3,5,-11,-18,-8,-3,0
1501935767951199,9,11,28,37,46,14,4,6
1501935767951199,-14,-11,-26,-41,-43,-19,-3,-5
1501935767951199,0,2,-3,11,18,6,0,-2
1501935767965245,2,-1,-19,68,2,-3,3,4
1501935767965245,41,-3,-1,47,-14,-10,-8,55
1501935768007195,-3,-6,15,-29,7,5,4,33
1501935768007195,0,-3,-7,-44,3,3,2,-19
1501935768007195,-37,-7,-18,45,2,-1,-4,-36
1501935768007195,2,-2,-35,-23,-10,-7,-7,8
1501935768010262,2,5,12,-110,-33,-3,-2,-26
1501935768010262,7,6,20,36,32,6,2,64
1501935768011202,1,-5,-5,-8,-21,-7,0,-6
1501935768011202,-8,-6,-13,-46,-5,2,-1,0
1501935768019196,-34,-3,-3,70,26,-7,-9,-41
1501935768019196,0,-1,-15,-57,-16,-6,-1,-17
1501935768025272,21,5,-1,-54,-7,0,1,19
1501935768025272,-16,-2,26,16,0,-4,1,-16
1501935768040241,20,9,12,109,18,11,5,32
1501935768040241,-17,-14,-3,31,0,-11,-4,-24
1501935768047262,12,5,13,26,23,4,0,27
1501935768047262,3,-4,-16,-45,-13,1,2,-6
1501935768056204,24,11,22,12,3,5,1,20
1501935768056204,-13,-7,-14,-67,-8,-2,-4,-14
1501935768079209,-4,-2,-6,-64,4,-2,-1,-6
1501935768079209,3,0,-23,-8,-6,0,2,15
1501935768080199,1,-6,-13,-64,-26,-4,-1,-9
1501935768080199,4,3,-6,24,0,7,1,5
1501935768092234,3,-4,-17,-60,-5,2,0,-1
1501935768092234,13,0,-13,-25,16,4,0,-8
1501935768101246,-17,-4,-4,-40,15,-10,-5,2
1501935768101246,2,2,8,16,-15,-3,0,-11
1501935768116240,-9,-3,17,127,4,-3,-3,5
1501935768116240,5,0,-3,-81,-17,-2,0,2
1501935768118202,0,0,-10,47,0,5,0,-17
1501935768118202,-10,-19,-29,-2,-5,-22,-7,6
1501935768139221,5,4,24,20,-1,0,-3,-9
1501935768139221,-11,-8,-9,-84,-6,-4,-5,-5
1501935768140202,1,-1,12,0,-27,-10,-2,-9
1501935768140202,-4,0,1,-37,-27,-4,-2,0
1501935768152264,3,0,-1,40,25,5,1,-9
1501935768152264,4,-4,-8,7,-36,-8,2,21
1501935768161204,-2,-1,-5,38,17,1,0,-15
1501935768161204,3,4,-12,-25,-11,5,5,8
1501935768176243,-9,-2,15,112,38,1,-2,-6
1501935768176243,8,16,41,-40,-10,8,3,8
1501935768178213,-16,-18,-24,101,-25,-22,-3,-5
1501935768178213,13,4,0,51,12,6,1,3
1501935768198248,-6,-4,-2,-69,-7,-5,-2,-9
1501935768198248,-14,-3,7,127,35,6,-4,-23
1501935768200204,5,-4,-38,-128,-14,4,-3,7
1501935768200204,1,-4,5,6,-15,-10,-6,-9
1501935768212246,3,0,2,52,-8,2,3,20
1501935768212246,-13,-4,6,5,-22,-14,-7,-48
1501935768221205,1,3,9,3,4,5,1,8
1501935768221205,12,2,-15,-21,13,6,-2,19
1501935768236250,-2,5,-2,0,-14,6,3,-5
1501935768236250,-6,-6,-6,-48,15,-8,-5,2
1501935768238212,4,-3,-17,-67,-5,0,0,5
1501935768238212,-2,8,39,66,42,17,2,-15
1501935768259208,4,-9,-39,-113,-34,-19,0,5
1501935768259208,-4,-3,-4,36,13,6,-1,5
1501935768260210,1,1,25,-70,-7,-2,0,6
1501935768260210,1,7,6,-23,15,10,1,-7
1501935768272238,-4,-7,-19,10,-5,-6,-5,-8
1501935768272238,5,1,6,-86,-18,0,3,12
1501935768281209,2,-4,10,127,9,-6,-2,12
1501935768281209,-2,5,-3,7,2,2,-2,-10
1501935768296231,-17,-6,-37,-86,-23,-4,0,-5
1501935768296231,7,7,19,127,46,11,1,21
1501935768298230,-12,-7,-41,21,-14,-9,-6,-9
1501935768298230,-2,1,15,41,-17,-7,0,1
1501935768319233,2,1,8,-40,-18,1,-3,-4
1501935768319233,5,0,6,39,9,0,1,8
1501935768320212,0,1,13,33,24,7,1,0
1501935768320212,-4,-4,-4,70,16,1,2,-2
1501935768332233,11,11,30,-10,6,5,-2,5
1501935768332233,-5,-2,-4,0,-8,-4,-2,-10
1501935768341213,8,1,-4,13,-2,0,3,4
1501935768341213,-11,-5,10,-20,-8,-9,-4,-1
1501935768356255,3,3,27,6,36,13,0,4
1501935768356255,-1,-5,-7,81,-10,-7,0,-3
1501935768358219,1,5,21,-16,15,3,0,2
1501935768358219,-3,-4,-1,-51,-15,-7,-4,-20
1501935768379231,5,5,-3,-66,-5,6,1,1
1501935768379231,-4,-1,21,8,6,-8,-5,-4
1501935768380217,2,3,5,-12,-6,2,5,3
1501935768380217,4,1,11,6,1,6,-1,6
1501935768401274,5,-1,-8,-70,-11,-4,-1,14
1501935768401274,-7,1,1,50,9,2,0,-16
1501935768403229,-4,1,0,-108,-13,4,0,-8
1501935768403229,6,1,11,43,6,-3,-3,9
1501935768416262,-3,-2,-1,11,-5,0,0,-7
1501935768416262,5,2,17,62,6,-1,1,7
1501935768418224,3,-6,-22,9,8,-1,-2,-3
1501935768418224,-11,-6,-8,6,0,-5,-6,-9
1501935768439236,5,0,-3,-30,-13,-3,2,8
1501935768439236,-10,-5,-12,41,0,0,-4,0
1501935768440223,4,0,-9,-105,-38,-4,0,2
1501935768440223,-5,-2,-16,70,-5,-2,1,1
1501935768461265,-2,-3,-5,-32,-5,-7,-1,3
1501935768461265,2,-3,-6,24,-14,-4,-1,0
1501935768463224,-2,2,-7,-10,2,-2,-3,-6
1501935768463224,1,0,-6,-91,-9,3,2,4
1501935768476264,-5,-3,3,74,0,-5,-3,-6
1501935768476264,6,3,-13,-128,-6,3,2,7
1501935768478222,-7,-6,7,127,19,-2,-3,-19
1501935768478222,7,3,13,46,8,0,-1,10
1501935768499240,-3,-2,-39,-30,-46,-4,-2,-6
1501935768499240,4,2,6,66,2,2,5,7
1501935768500238,-4,-1,-1,-23,-3,-3,-1,-1
1501935768500238,5,3,7,-45,2,5,4,13
1501935768521286,-7,-3,-32,70,46,4,-2,-20
1501935768521286,3,-8,-1,39,-28,-14,-5,36
1501935768523227,-16,-7,-18,-1,-5,-2,-3,-23
1501935768523227,2,4,14,54,10,3,-1,0
1501935768535285,-1,1,10,47,3,-2,-3,-2
1501935768535285,2,2,-10,-106,1,3,1,-2
1501935768542259,2,1,-3,-67,9,1,-1,7
1501935768542259,-2,-1,-7,70,12,-3,0,-2
1501935768559257,0,-2,3,-50,-39,-6,1,4
1501935768559257,-3,4,14,79,49,4,-2,-14
1501935768560235,7,-2,-25,-72,-46,-7,-2,4
1501935768560235,-10,-3,6,34,-1,-2,-2,-9
1501935768581268,-3,-8,-8,-7,1,-3,-2,3
1501935768581268,0,-1,0,-20,2,1,-1,-7
1501935768583238,1,3,10,75,18,3,2,3
1501935768583238,-3,-4,-21,-88,-28,-4,1,1
1501935768596270,2,5,41,112,27,3,1,0
1501935768596270,-8,-8,-37,-120,-68,-9,-5,-9
1501935768602298,-5,-2,2,-6,19,-1,-1,-12
1501935768602298,1,-5,-28,-10,-7,-1,-2,-5
1501935768618272,-10,-2,19,110,5,-6,-2,2
1501935768618272,1,1,-1,-9,12,4,-1,-10
1501935768620230,5,3,5,-48,-9,2,-3,9
1501935768620230,-7,-5,-10,-43,-16,-8,-1,-4
1501935768641273,4,7,37,33,29,12,3,0
1501935768641273,-2,-12,-33,13,-30,-9,-4,3
1501935768643230,-8,-4,8,23,-9,-7,-4,-7
1501935768643230,2,-1,-11,-56,2,-1,-4,-3
1501935768655291,0,-1,-7,-13,7,-2,-3,-2
1501935768655291,5,4,15,-40,4,1,0,-6
1501935768662273,-2,0,-5,33,1,1,1,2
1501935768662273,2,-1,-5,-30,-11,-1,-3,-1
1501935768678275,-1,-2,0,-13,-6,-4,1,-1
1501935768678275,0,1,-3,54,22,9,3,-2
1501935768680242,-2,1,3,-56,-27,-1,-1,11
1501935768680242,-6,0,11,37,16,-1,-4,-7
1501935768701275,6,-6,-32,7,-22,-8,-1,-8
1501935768701275,2,3,12,-14,6,-3,0,6
1501935768703233,7,1,24,41,8,3,2,3
1501935768703233,-6,-6,-12,5,-10,-4,-3,-6
1501935768715236,-2,1,-5,-106,1,3,-1,1
1501935768715236,-3,-4,7,-41,-11,-5,-3,-6
1501935768722233,3,-3,-24,-27,14,4,0,-2
1501935768722233,-2,0,22,55,1,-3,2,8
1501935768739262,0,1,5,38,8,0,0,1
1501935768739262,-1,5,26,62,14,4,3,1
1501935768740244,-1,-1,-2,17,-2,-2,-2,3
1501935768740244,0,-5,-15,-61,-10,-6,-1,-2
1501935768761279,-2,-2,-5,61,9,1,-1,1
1501935768761279,0,2,8,35,10,4,-3,-2
1501935768763248,-6,-4,-5,95,12,-1,-2,-4
1501935768763248,2,0,7,-89,-49,-5,2,1
1501935768775313,1,-1,3,1,5,-6,1,5
1501935768775313,-3,-7,-35,11,-11,-4,1,5
1501935768782300,5,3,21,54,15,3,-8,-7
1501935768782300,-9,-1,-6,-17,2,-2,-1,-3
1501935768799264,1,0,0,24,14,5,-1,6
1501935768799264,-1,1,15,-1,-12,-5,0,-3
1501935768800253,-2,-3,-11,-16,0,-3,2,8
1501935768800253,2,4,-4,-20,14,4,0,-5
1501935768821287,-1,-3,6,-54,-2,0,-3,-5
1501935768821287,1,-14,-55,76,-4,-7,-4,7
1501935768823241,0,5,14,32,4,0,2,-2
1501935768823241,3,3,17,31,12,6,1,4
1501935768835285,-6,-5,-20,-31,-15,-6,-1,-4
1501935768835285,1,2,-6,62,28,7,0,-5
1501935768842277,0,-3,11,22,3,0,-3,3
1501935768842277,-4,4,21,13,-22,-1,6,8
1501935768859270,0,-2,-8,-63,-16,-3,-2,-12
1501935768859270,-5,-1,5,36,6,-1,-3,-6
1501935768860255,-4,-3,-8,-37,1,-5,1,1
1501935768860255,2,0,17,58,40,9,-7,-6
1501935768881261,-3,-2,8,-14,-1,-2,-4,-2
1501935768881261,-1,3,-9,-84,-5,3,0,-7
1501935768883243,-3,-1,2,62,17,1,-1,-2
1501935768883243,6,4,-1,-91,-19,0,1,4
1501935768895300,-2,-4,-30,-67,-17,-6,-1,3
1501935768895300,0,-1,13,17,4,-1,-2,-3
1501935768904245,1,2,6,28,6,2,0,-5
1501935768904245,2,-1,2,42,5,-2,-1,2
1501935768919276,-3,-1,9,0,4,-1,-4,-6
1501935768919276,-8,-1,7,19,-18,-9,-5,-13
1501935768920246,12,3,9,-109,-20,1,7,25
1501935768920246,-7,-5,-1,16,-1,-6,-8,-21
1501935768941290,-2,-2,9,55,10,-1,-3,1
1501935768941290,5,5,12,89,36,15,5,4
1501935768943247,-5,-5,-24,-120,-40,-14,-6,-6
1501935768943247,-3,-9,-31,37,4,3,-4,-2
1501935768955317,0,-1,-4,93,17,-1,2,-1
1501935768955317,4,3,-10,-128,-22,2,0,6
1501935768964250,-7,-4,-9,78,15,-5,-3,-5
1501935768964250,6,1,4,-52,-3,-2,2,7
1501935768986250,-7,-2,-7,72,-1,0,-2,-13
1501935768986250,-4,-3,15,-20,8,-3,3,3
1501935768988252,-2,1,-11,-93,-6,1,-2,-4
1501935768988252,-1,-2,-1,39,-21,-8,-3,-1
1501935769001251,5,7,32,20,0,2,3,8
1501935769001251,-5,-10,-56,-58,-25,-9,-5,-6
1501935769003250,0,-2,9,97,2,-3,-1,-4
1501935769003250,-4,-2,-16,8,9,0,-1,-1
1501935769023300,4,0,-10,-104,-18,4,2,4
1501935769023300,-3,3,32,53,15,-2,-1,-2
1501935769025251,-2,-4,-24,-49,-2,0,1,-5
1501935769025251,-4,-4,-10,-14,6,-5,-1,9
1501935769046299,1,2,1,30,-11,6,-2,-2
1501935769046299,1,0,14,32,14,-1,3,5
1501935769048253,-2,2,16,37,8,2,-3,-6
1501935769048253,2,-3,-23,-7,-17,2,1,0
1501935769060313,-1,-1,8,19,-1,-7,-3,0
1501935769060313,-4,-4,14,-43,-2,2,-4,-5
1501935769067312,2,1,3,-25,2,0,0,2
1501935769067312,1,1,3,-4,5,3,2,-2
1501935769083297,2,-2,-7,54,15,-2,-2,7
1501935769083297,-3,-1,-4,-84,-28,-3,-2,-6
1501935769085265,2,4,11,-5,-1,5,1,2
1501935769085265,-1,-2,-26,-46,-7,-6,-4,-7
1501935769106297,-6,-3,-2,-29,-3,-4,4,-2
1501935769106297,1,-1,18,66,21,-1,-2,1
1501935769108291,-1,3,27,68,-14,-1,-5,-7
1501935769108291,-1,-3,-14,15,1,2,0,0
1501935769120299,-1,-6,0,59,18,-1,-5,-1
1501935769120299,-1,0,-21,-79,-22,-4,2,1
1501935769127326,-1,0,7,-66,5,3,3,-3
1501935769127326,-2,3,14,89,9,2,3,-3
1501935769143283,7,-1,-28,-99,-6,-4,-6,0
1501935769143283,3,9,45,54,13,11,2,2
1501935769151278,0,-9,-28,46,2,-9,-4,2
1501935769151278,-7,1,13,1,3,3,1,-10
1501935769166302,-6,-7,-10,58,18,-2,-2,-3
1501935769166302,-2,0,2,-40,-28,-8,0,0
1501935769168260,0,-3,-6,39,13,2,-1,-2
1501935769168260,5,1,5,-31,6,1,1,5
1501935769180303,-6,-1,13,60,-10,-6,-4,-3
1501935769180303,1,2,0,29,1,-1,-2,1
1501935769187304,-3,0,11,-66,-1,0,-1,-1
1501935769187304,0,-1,16,71,-8,-3,2,7
1501935769203304,-2,-2,-7,-30,-10,4,-2,-5
1501935769203304,-1,0,-10,-8,17,2,-4,-2
1501935769205262,-5,-8,-2,-28,-13,-8,-2,4
1501935769205262,1,3,15,14,17,-3,-4,-6
1501935769226264,0,1,5,-25,-9,2,5,1
1501935769226264,7,-5,-20,-60,8,1,-2,2
1501935769228263,0,0,-24,-27,11,7,-1,7
1501935769228263,-4,-4,0,-16,-19,-11,-1,-1
1501935769240301,0,1,5,7,-1,-1,1,-3
1501935769240301,-2,-3,-25,-8,-1,-3,-2,-9
1501935769247307,2,-2,-6,31,-19,-4,-1,4
1501935769247307,-4,-10,-26,-74,-13,-5,-6,-1
1501935769263314,3,6,8,-57,3,7,1,0
1501935769263314,-3,-6,1,12,-9,-1,-2,2
1501935769265275,-2,-1,-2,-6,-8,-1,-3,-7
1501935769265275,0,0,-4,34,13,6,-2,-4
1501935769286306,7,4,24,15,-4,-3,-1,9
1501935769286306,-6,-3,-11,-44,-5,-5,2,2
1501935769288268,-4,-3,-24,109,26,1,0,-2
1501935769288268,-3,2,25,4,-10,-3,4,2
1501935769300331,-5,-6,-28,-70,-18,-11,-6,-4
1501935769300331,2,0,4,35,-4,0,1,3
1501935769307337,1,0,7,-19,3,-1,2,10
1501935769307337,3,0,-6,17,-6,0,-4,-1
1501935769323312,-4,-3,-2,44,0,0,2,-3
1501935769323312,2,1,11,85,5,1,1,0
1501935769325268,-5,-4,-19,14,10,-2,-5,-8
1501935769325268,5,2,3,-25,-10,2,1,6
1501935769346312,-1,4,27,-16,-2,1,2,-3
1501935769346312,-9,-8,-39,-86,-10,-5,-6,-10
1501935769348271,3,0,12,19,3,6,6,-1
1501935769348271,-1,0,-4,-13,2,0,-2,0
1501935769360291,2,2,6,53,18,2,2,-1
1501935769360291,-1,-1,16,-68,-28,-6,-4,-3
1501935769369274,-4,-3,3,40,-1,-3,-3,-9
1501935769369274,-1,-2,-9,-9,0,0,0,-3
1501935769384291,0,-1,-5,-70,-12,0,-1,2
1501935769384291,-4,-1,-4,26,9,1,-1,-2
1501935769385283,3,0,2,-18,-14,-3,-3,-4
1501935769385283,-1,-1,5,28,13,5,-2,-1
1501935769406312,-1,1,-4,-10,8,0,-2,-3
1501935769406312,1,3,2,-13,-9,-1,3,3
1501935769408291,-3,1,4,39,8,2,1,-2
1501935769408291,1,1,0,-26,-1,0,-1,3
1501935769420287,1,-3,-4,-4,-10,-2,-2,-1
1501935769420287,0,-2,14,29,14,0,-1,-1
1501935769429278,-1,-1,10,84,0,2,-2,-5
1501935769429278,0,-2,-4,-49,-20,-9,-3,1
1501935769443325,-4,-5,-16,55,11,-1,0,1
1501935769443325,-1,3,4,30,2,2,-3,-2
1501935769445309,5,3,-1,-48,0,5,3,-2
1501935769445309,-7,1,15,-41,-2,-3,0,-3
1501935769466321,-5,-8,-11,-13,-17,-11,-6,-7
1501935769466321,3,2,13,127,18,0,1,2
1501935769468277,-4,-1,-3,-61,-16,-2,-5,-3
1501935769468277,-1,-2,-13,6,-4,-3,1,1
1501935769480293,1,-1,7,61,10,4,-2,0
1501935769480293,-1,-1,0,29,14,2,0,-3
1501935769489281,-6,0,14,-37,-16,-7,-2,-5
1501935769489281,4,0,-3,-5,2,0,-1,10
1501935769503338,-3,-4,-21,-17,-10,1,-1,-12
1501935769503338,2,-2,3,-64,0,-4,-2,6
1501935769505312,-15,-2,-1,60,1,-3,-3,-18
1501935769505312,4,-1,1,-2,8,0,0,1
1501935769526320,0,3,5,-31,-2,3,0,2
1501935769526320,4,2,0,38,11,7,1,2
1501935769528281,-3,-5,-13,-122,-37,-12,0,3
1501935769528281,-2,-4,4,88,13,-3,-3,-5
1501935769540297,-1,0,4,-12,-4,-2,-2,4
1501935769540297,-1,-1,-5,4,5,3,-1,-8
1501935769549286,5,4,12,-11,17,5,1,8
1501935769549286,-2,1,-12,14,18,5,-1,-6
1501935769563325,-2,-8,-10,-11,-23,-10,-1,8
1501935769563325,-5,4,14,-5,-7,-3,1,-7
1501935769565293,1,-3,-14,59,2,-1,1,3
1501935769565293,0,-2,-2,45,6,-1,-3,-2
1501935769586326,-1,4,5,-51,6,3,4,4
1501935769586326,1,1,9,-80,-5,0,2,0
1501935769588287,-3,-9,-29,-31,-16,-7,-3,-1
1501935769588287,2,2,1,38,4,5,1,-1
1501935769600300,1,-3,4,48,8,-1,-3,-8
1501935769600300,-4,-5,-15,-69,-28,-7,-2,-2
1501935769609288,7,7,7,77,29,10,3,3
1501935769609288,-3,-4,3,-72,-27,-9,0,1
1501935769623330,-2,0,2,-12,-4,2,-1,-7
1501935769623330,-4,-3,-11,89,11,-5,-4,1
1501935769625298,7,4,28,97,-6,-1,0,9
1501935769625298,0,-5,-11,-14,17,-1,-2,-6
1501935769646330,-4,5,5,-40,2,4,3,7
1501935769646330,0,-2,-6,46,6,2,0,0
1501935769648288,-3,0,0,-110,-23,-4,-6,-4
1501935769648288,-3,-4,-11,-61,-13,-7,-3,-4
1501935769660305,4,-1,-5,33,-2,-1,-1,1
1501935769660305,-4,-3,8,-32,9,2,-1,-6
1501935769669291,-2,-4,-12,-21,-11,-5,-1,0
1501935769669291,0,-2,-20,-85,-6,3,-1,-4
1501935769683332,-1,-2,-8,46,-1,-5,-2,-3
1501935769683332,-1,-2,-1,-43,-7,-4,-3,0
1501935769690304,3,4,8,24,-1,3,0,-3
1501935769690304,-7,-6,1,0,-12,-9,-1,2
1501935769706350,1,1,18,118,8,3,-1,-7
1501935769706350,0,-1,-16,-29,0,1,-2,0
1501935769708303,-5,-3,-19,-86,5,0,-2,-3
1501935769708303,7,6,5,-39,-12,3,3,5
1501935769720307,-3,-2,-3,21,-8,-8,-2,-4
1501935769720307,1,-9,-18,15,-31,-10,-5,3
1501935769729294,-3,-2,1,20,11,1,-3,-1
1501935769729294,-4,-5,-2,73,1,-1,-1,-1
1501935769743341,1,1,12,-46,2,1,1,0
1501935769743341,-2,-2,-22,61,21,-1,-1,-7
1501935769745294,-1,2,-4,-34,-1,-3,0,2
1501935769745294,0,-4,2,49,8,0,-4,-7
1501935769766308,-4,-2,-11,-99,2,3,2,9
1501935769766308,-3,-1,5,20,-11,-2,-1,0
1501935769768295,-3,-6,-16,-75,3,-1,0,1
1501935769768295,-3,1,7,65,-2,-2,-1,-3
1501935769780310,-2,1,8,28,-1,-2,-1,-1
1501935769780310,3,1,16,43,-5,2,0,2
1501935769789299,0,-4,-13,-73,-8,-3,1,3
1501935769789299,-3,-1,8,40,8,1,-2,-9
1501935769803338,-1,-1,-15,4,11,-4,-2,0
1501935769803338,3,4,3,-53,-2,8,2,8
1501935769805297,-4,-2,10,42,-9,-11,-3,-4
1501935769805297,0,3,10,-102,9,5,3,6
1501935769826343,1,-6,7,1,-11,-9,-6,-1
1501935769826343,1,0,-6,-41,-17,-1,0,-7
1501935769828300,-1,0,10,49,2,2,1,-1
1501935769828300,0,0,6,53,15,3,-1,1
1501935769848340,2,6,14,-23,3,5,1,0
1501935769848340,-4,-5,-11,-7,-1,-7,-4,0
1501935769850302,-1,-2,-3,63,7,1,3,-7
1501935769850302,-1,1,-6,10,-6,-1,-2,3
1501935769863341,-2,0,1,27,-11,-3,0,1
1501935769863341,-3,-3,-3,8,1,-4,-4,0
1501935769865310,1,0,6,15,7,3,0,5
1501935769865310,2,3,1,6,29,8,3,-2
1501935769886347,-1,-2,-4,-21,-11,-3,-2,1
1501935769886347,-4,-2,9,0,1,-2,-3,-2
1501935769888305,1,0,5,31,-6,-1,-4,-2
1501935769888305,-3,-2,-5,66,8,-2,-3,-1
1501935769908348,0,-2,-5,22,0,1,1,1
1501935769908348,7,6,35,45,-5,0,4,5
1501935769910313,-1,3,8,20,5,2,-1,-6
1501935769910313,-7,-12,-14,42,-14,-14,-6,-2
1501935769923348,0,-1,-7,-9,-6,-3,0,2
1501935769923348,-1,4,-4,60,5,3,1,-8
1501935769925305,1,-1,17,-8,-4,-1,-3,1
1501935769925305,0,-5,-26,-52,-8,-4,-4,0
1501935769946345,-2,-3,-21,50,18,1,0,-6
1501935769946345,-3,-2,2,-61,7,2,-1,-7
1501935769948304,1,0,-11,-8,0,-2,1,2
1501935769948304,-2,1,-1,-45,-7,2,-2,-1
1501935769968348,0,-1,-8,-89,-15,0,-1,1
1501935769968348,4,-2,8,82,11,0,-5,5
1501935769970307,-9,-4,-30,-15,-2,-4,1,-2
1501935769970307,0,0,16,-21,5,0,0,-6
1501935769983307,1,0,9,44,9,4,2,3
1501935769983307,1,1,1,1,-7,-1,-1,3
1501935769990309,-6,-7,-5,23,-18,-10,-5,-8
1501935769990309,2,1,5,27,7,4,0,2
1501935770006352,-1,3,-1,-7,-4,1,-1,-4
1501935770006352,-5,-7,-4,16,7,-6,-4,-4
1501935770008308,5,4,10,52,12,-4,-1,6
1501935770008308,-5,2,3,-48,-12,3,3,-3
1501935770028353,0,-4,-5,44,0,-2,-1,-1
1501935770028353,-1,-2,-12,-77,-2,2,2,-1
1501935770030317,3,3,13,-72,-8,0,1,3
1501935770030317,2,0,-11,-26,-5,-2,-2,2
1501935770043350,-5,-5,-21,-4,-6,-2,-5,-6
1501935770043350,-2,1,-3,-9,2,3,-1,4
1501935770050326,-1,-1,3,99,13,4,0,-7
1501935770050326,-4,-1,11,-32,-7,-4,-1,-8
1501935770066353,7,-2,-37,-49,0,2,-3,5
1501935770066353,-7,-7,-8,-8,1,-6,-2,-7
1501935770068320,1,-1,0,-105,-17,2,-3,5
1501935770068320,-3,-3,9,55,-24,-10,-2,-4
1501935770088356,-5,-2,15,14,6,-2,-5,-8
1501935770088356,2,2,3,37,-13,-1,1,3
1501935770090349,2,2,-18,-70,5,1,2,-5
1501935770090349,-1,-5,-22,-15,-7,-2,1,1
1501935770103353,-3,1,19,-28,-7,-3,0,-1
1501935770103353,2,5,13,7,6,4,0,1
1501935770110329,-2,-7,-30,35,23,3,-1,-1
1501935770110329,0,1,-5,-61,-21,-6,-2,1
1501935770126359,-3,-3,5,44,7,-7,-3,-1
1501935770126359,-3,-1,-2,-69,-8,-1,-2,-4
1501935770128315,3,2,20,49,11,7,2,2
1501935770128315,-1,-2,-12,41,13,-3,-3,-1
1501935770148358,-2,0,5,-103,-10,-2,1,1
1501935770148358,0,-5,-14,37,2,1,1,-7
1501935770150316,-7,0,2,-59,-9,-4,0,0
1501935770150316,-2,-3,2,73,16,2,0,-1
1501935770163323,6,8,26,-17,-25,-2,1,7
1501935770163323,-6,-3,-9,-60,-23,-4,-4,-13
1501935770170332,4,-5,1,87,5,-1,-2,6
1501935770170332,1,3,15,-69,4,0,1,-1
1501935770186376,-5,-3,-3,94,14,0,-1,-5
1501935770186376,3,5,15,34,25,6,1,4
1501935770188319,1,0,-17,-74,-22,-2,-1,-1
1501935770188319,-2,-5,-35,11,4,0,-1,-2
1501935770208358,-2,0,11,-12,-12,-4,-1,0
1501935770208358,2,0,-24,-64,1,-2,-1,2
1501935770210329,-2,3,18,73,14,1,0,-1
1501935770210329,0,-3,15,86,-4,-6,-2,2
1501935770223320,-4,-5,-13,-42,1,-1,0,-7
1501935770223320,-5,2,8,31,-1,-1,-1,2
1501935770230334,2,-1,-8,6,4,0,0,-1
1501935770230334,0,-1,-15,-59,-4,2,-2,-2
1501935770246323,0,0,1,37,4,4,-2,2
1501935770246323,3,-1,19,43,-6,-6,2,1
1501935770248322,0,2,35,32,0,-2,-3,-1
1501935770248322,-1,-3,-15,13,-15,-2,-1,2
1501935770268324,0,-2,2,-12,-1,-4,-3,-2
1501935770268324,-1,0,-18,1,1,6,-1,-4
1501935770270326,-7,-6,18,34,13,-8,-4,-7
1501935770270326,6,5,35,14,14,5,2,5
1501935770282357,3,3,-5,-9,20,6,4,2
1501935770282357,0,-8,-20,-95,-32,-6,-4,1
1501935770291325,-9,3,1,31,-1,-2,-1,-6
1501935770291325,-3,0,15,-25,1,1,-1,-2
1501935770306326,-5,-6,-16,40,14,-1,-2,-9
1501935770306326,-1,-3,-4,-12,5,-4,0,2
1501935770307329,4,2,1,58,18,6,1,1
1501935770307329,-4,0,-15,-80,-15,-2,0,-7
1501935770328339,1,-1,-3,-39,-4,-2,1,11
1501935770328339,-1,-2,-4,-16,4,-2,-2,-1
1501935770330339,-3,-4,-12,-49,-8,0,-3,-3
1501935770330339,1,0,-3,33,7,2,2,0
1501935770342333,2,0,4,-38,3,3,0,-4
1501935770342333,-9,-6,-20,-39,-24,-12,-5,-1
1501935770351330,2,0,-16,8,1,3,2,1
1501935770351330,-4,-4,3,37,-7,-7,-3,-2
1501935770366336,2,0,7,74,17,0,-2,-4
1501935770366336,3,5,10,-32,-8,1,5,4
1501935770368331,0,2,13,-71,-6,-2,-3,-2
1501935770368331,-3,-5,-17,68,0,-3,-3,-2
1501935770388371,-1,1,0,19,6,-1,0,-2
1501935770388371,1,1,14,35,6,4,-1,-2
1501935770390331,-4,-4,-8,45,5,-3,0,0
1501935770390331,6,4,13,22,2,0,-1,1
1501935770402333,0,2,1,-8,-27,-3,-2,-2
1501935770402333,-6,-5,-8,16,17,4,-2,-9
1501935770411345,2,1,6,29,-16,1,1,-1
1501935770411345,-4,-4,-15,-28,-4,-8,-3,-2
1501935770426333,-1,-6,-37,-36,-14,-3,-2,-1
1501935770426333,1,3,9,60,10,-1,-2,-1
1501935770427339,1,-2,1,11,19,1,-5,4
1501935770427339,-2,-1,5,-33,-19,-3,-3,0
1501935770448377,-1,3,19,30,-4,-1,-1,2
1501935770448377,0,-4,-22,-73,-10,-5,-1,-1
1501935770450335,4,-1,-9,-45,-4,1,0,-6
1501935770450335,-11,0,13,49,10,1,1,0
1501935770462406,-1,-2,-8,-72,-13,-1,-1,-3
1501935770462406,4,6,10,32,5,5,2,6
1501935770471377,-4,-5,12,13,-12,-6,-4,-11
1501935770471377,2,-4,-47,-73,6,1,-1,-1
1501935770486368,-3,-2,11,18,-10,-2,0,0
1501935770486368,-4,-1,9,79,4,-1,-2,-2
1501935770488337,0,1,-9,-100,-5,1,1,3
1501935770488337,-1,-5,9,46,-4,-7,-4,-3
1501935770508377,-1,1,-3,1,7,-2,-5,-1
1501935770508377,-2,-3,-13,1,-7,-5,-3,-5
1501935770510350,-1,3,1,18,12,3,1,2
1501935770510350,3,5,24,83,2,9,2,1
1501935770522401,-2,-3,-3,9,2,-3,-1,2
1501935770522401,0,0,20,-7,1,3,1,-4
1501935770531350,0,-1,-6,67,8,-2,0,1
1501935770531350,1,3,4,-71,5,8,3,-3
1501935770546381,-1,-4,-3,18,-2,-8,-3,0
1501935770546381,0,-1,-5,12,3,1,-3,0
1501935770548339,-6,-4,1,14,-14,-5,-2,-2
1501935770548339,3,-2,-20,-23,9,0,0,2
1501935770568384,-1,1,8,23,-13,0,0,0
1501935770568384,-4,-5,-3,13,-19,-6,-3,-7
1501935770570340,3,-1,-8,46,-6,-4,0,4
1501935770570340,-2,-1,-9,-68,-13,-1,-1,-1
1501935770582402,-1,-1,-7,95,17,8,1,-7
1501935770582402,-2,-1,1,60,6,-4,-2,2
1501935770591361,1,-1,6,-66,-16,2,-1,-1
1501935770591361,-4,-3,10,45,-16,-6,-1,-4
1501935770606385,3,-1,-13,-36,-2,-3,-1,2
1501935770606385,-1,-4,-5,-26,-5,-3,-1,2
1501935770608343,2,3,15,38,10,7,0,-1
1501935770608343,-2,-1,0,15,8,-1,-4,1
1501935770628385,-5,-2,0,-92,-13,-3,-2,-7
1501935770628385,5,1,5,-1,15,3,0,-1
1501935770630353,-10,-7,-11,48,-21,-12,-1,1
1501935770630353,2,2,6,-44,-5,1,2,3
1501935770642387,-2,-4,12,72,-4,-6,-2,-2
1501935770642387,-3,-2,4,41,4,-2,-1,-3
1501935770651372,-2,-5,-28,-118,-17,-4,-1,-4
1501935770651372,2,3,7,63,14,5,0,0
1501935770666395,0,-2,-1,-55,11,-3,-4,-2
1501935770666395,-1,3,6,-16,3,0,1,0
1501935770667358,-1,-5,-21,12,11,0,-2,-1
1501935770667358,0,0,13,16,4,-9,-3,-6
1501935770688348,-2,-1,-1,-1,-5,2,1,-1
1501935770688348,0,1,4,14,-8,1,0,3
1501935770690359,2,-4,-5,-43,-5,-1,-1,0
1501935770690359,-4,1,26,45,10,1,-1,-4
1501935770702349,-3,-3,-46,24,4,-1,0,-1
1501935770702349,-2,-3,-7,50,0,-2,0,-3
1501935770711383,-2,-2,5,-22,-14,-4,-1,2
1501935770711383,2,2,9,-60,0,-1,0,0
1501935770726391,-3,2,12,42,-6,0,-1,-8
1501935770726391,3,3,-6,-40,3,0,0,4
1501935770727362,-1,-3,-10,-25,1,2,-1,-2
1501935770727362,1,2,20,99,5,-2,-4,0
1501935770748395,-4,-4,-12,-58,0,-5,-3,-3
1501935770748395,-1,-4,-14,-101,-6,0,2,3
1501935770750351,1,5,15,40,14,4,1,-2
1501935770750351,3,1,-7,14,10,7,2,1
1501935770771394,-2,-3,-19,-83,-43,-6,1,-2
1501935770771394,-1,-1,9,98,6,-1,0,0
1501935770772363,1,4,1,-43,-10,-4,0,-1
1501935770772363,-3,-5,-21,0,0,0,1,4
1501935770786395,8,5,24,8,24,11,0,-5
1501935770786395,-7,-2,7,-20,-5,-2,-2,-1
1501935770787365,-4,-3,-6,16,3,-4,-3,-6
1501935770787365,1,-1,-13,-23,-3,-3,-1,1
1501935770808394,1,2,21,-27,23,5,1,2
1501935770808394,-1,-5,-31,-19,-23,0,-1,-5
1501935770815377,-5,-6,-20,65,11,-4,-2,-4
1501935770815377,-1,-8,-15,-36,-10,-8,-5,2
1501935770831419,-3,2,5,-5,1,4,0,-9
1501935770831419,5,-1,-3,25,0,-1,-3,10
1501935770832360,-2,0,5,22,1,-1,0,0
1501935770832360,1,1,7,8,3,3,-1,0
1501935770846399,-3,-3,-23,-65,-5,-4,-1,2
1501935770846399,-2,3,35,71,19,4,3,-5
1501935770847363,-2,-5,4,83,-18,-6,-5,-2
1501935770847363,-1,3,13,25,1,0,-2,-6
1501935770868400,0,-1,5,20,-1,-2,0,5
1501935770868400,-2,-1,0,-23,-5,-2,-3,-3
1501935770870358,1,-1,0,57,17,0,-1,-1
1501935770870358,-2,-2,-15,-13,-21,-6,2,1
1501935770891402,-1,-1,-3,23,8,0,1,7
1501935770891402,-3,0,-21,-14,6,1,-2,-11
1501935770892360,0,-2,-8,-55,-5,-1,-2,3
1501935770892360,-3,-2,-11,-25,-4,-1,1,-2
1501935770905400,2,0,-2,-53,-5,2,-1,1
1501935770905400,1,3,1,-62,1,0,-1,2
1501935770912407,0,3,10,-5,1,-2,-2,-1
1501935770912407,1,3,17,30,1,1,-1,-3
1501935770928403,-6,-7,-12,11,-4,-3,-3,-3
1501935770928403,-2,-4,-25,-29,11,1,-2,0
1501935770930397,2,2,14,6,-6,0,1,0
1501935770930397,-5,-5,-14,-114,-38,-7,-4,-2
1501935770951403,2,4,13,70,18,8,3,4
1501935770951403,-2,-5,-7,33,-11,-6,-1,-4
1501935770952376,-6,-6,5,-18,-23,-8,-3,-3
1501935770952376,-1,-2,-1,38,19,4,-1,0
1501935770973411,-2,1,-4,68,0,1,-2,0
1501935770973411,-5,-4,0,-57,-10,-7,-1,0
1501935770975402,-1,-1,-10,-114,3,1,1,0
1501935770975402,4,5,-2,-67,18,6,2,1
1501935770988409,-4,-7,2,5,-19,-9,-2,-3
1501935770988409,0,-1,-1,45,4,2,0,3
1501935770990367,-1,1,-6,-21,8,2,-1,-5
1501935770990367,-1,2,11,35,18,2,-1,1
1501935771011389,0,0,1,-12,0,-4,-3,0
1501935771011389,0,-1,13,40,-1,-5,-3,0
1501935771012370,-2,-1,-10,-14,-12,2,2,-2
1501935771012370,-2,-3,-3,9,12,-1,0,-1
1501935771025385,0,-1,-17,-14,-3,2,-2,0
1501935771025385,-2,1,10,85,3,-4,-2,-2
1501935771032408,1,4,25,52,1,-1,-2,1
1501935771032408,-5,-10,-34,-67,-6,-5,-4,-4
1501935771048410,-1,-2,15,4,9,0,-2,-3
1501935771048410,1,0,3,-38,-10,-2,0,-3
1501935771050368,-2,-5,-13,-97,7,-3,-4,-3
1501935771050368,5,6,14,40,-6,6,2,1
1501935771071414,-4,-4,-13,25,-5,-3,0,-2
1501935771071414,1,3,8,-98,-19,6,1,1
1501935771072382,-1,3,7,54,9,-1,1,-4
1501935771072382,-4,-3,-1,71,5,-2,-1,-2
1501935771085414,-1,-5,-20,-48,-25,-8,-1,-2
1501935771085414,2,2,4,67,-1,-1,-3,1
1501935771092415,0,-1,-8,13,0,4,0,1
1501935771092415,0,2,15,-17,15,3,-3,-1
1501935771108383,1,-2,-27,-62,-13,1,2,0
1501935771108383,-1,-2,22,83,15,-7,-3,-3
1501935771110372,-1,-2,-29,-103,-29,-5,-2,1
1501935771110372,1,1,10,-15,-6,-3,0,0
1501935771131417,2,3,13,8,13,7,1,0
1501935771131417,-5,-7,-25,3,-8,-8,-4,-3
1501935771132383,0,4,21,45,28,4,2,-1
1501935771132383,-3,-6,-9,6,-15,-4,-2,-3
1501935771145439,1,3,5,-78,-22,0,-2,-1
1501935771145439,0,0,1,7,12,1,1,1
1501935771152443,0,0,12,53,13,-1,0,1
1501935771152443,-5,-4,-18,-14,-16,-2,-2,-1
1501935771168423,-2,1,12,12,3,-2,-3,-3
1501935771168423,-1,-3,-12,-25,3,1,0,-3
1501935771170375,-2,-2,-9,-4,-5,-2,-1,1
1501935771170375,1,1,4,11,-1,4,1,-1
1501935771191421,1,5,9,40,9,0,1,1
1501935771191421,0,-1,-2,-6,-9,-3,-2,-1
1501935771192378,0,-2,4,-24,-6,2,1,1
1501935771192378,-2,-1,10,53,19,-2,-2,-3
1501935771205382,0,0,21,-22,-5,-3,-2,-1
1501935771205382,1,-2,-20,-66,-13,-2,0,0
1501935771212444,0,-1,-2,-36,-5,-2,-2,-2
1501935771212444,-2,-1,-9,29,-4,0,-1,1
1501935771228420,-1,2,18,38,15,-1,-1,3
1501935771228420,4,6,10,28,14,10,1,-4
1501935771230379,-6,-9,-2,83,-12,-8,-5,-2
1501935771230379,0,-3,-13,3,11,-5,1,0
1501935771251420,-1,-2,0,44,-3,-4,0,-1
1501935771251420,0,2,1,-28,2,6,1,2
1501935771252383,0,2,18,30,7,0,-3,-3
1501935771252383,-2,-5,-8,38,-7,-2,-3,-2
1501935771264423,-3,-4,1,-1,10,-2,-2,-4
1501935771264423,-2,-4,-11,-50,-14,-4,-1,2
1501935771273427,-1,0,8,66,9,4,1,-2
1501935771273427,0,-3,0,-4,-8,-2,-2,-1
1501935771288425,0,0,-7,-54,-10,-1,-2,-2
1501935771288425,-5,-7,-4,16,-9,-10,-3,-1
1501935771290381,2,1,-12,43,14,2,-1,0
1501935771290381,3,3,0,-86,-19,-3,0,-1
1501935771311426,-3,-5,-18,81,1,1,-1,0
1501935771311426,1,3,25,9,0,1,0,-1
1501935771312388,-3,-3,-10,-28,-2,-1,-2,-3
1501935771312388,-3,-1,1,49,3,-3,-1,1
1501935771325384,0,-1,-9,54,13,4,2,-1
1501935771325384,-1,0,4,-87,-24,-5,-2,0
1501935771333432,0,0,-7,10,-6,-4,-2,0
1501935771333432,-1,-3,-4,-35,-4,1,0,-3
1501935771348385,-3,-5,-26,-24,-23,-7,-3,3
1501935771348385,1,-1,9,101,26,7,0,-3
1501935771350396,-2,1,1,10,-16,-4,0,-2
1501935771350396,-2,-1,-6,-68,-17,-6,-1,0
1501935771371427,-2,-2,16,33,14,4,-1,-9
1501935771371427,-2,-2,-9,70,18,2,-1,-1
1501935771373386,2,0,0,-64,-29,-1,0,1
1501935771373386,-2,-5,-16,-1,-2,-4,-2,-2
1501935771384428,-2,-2,3,17,2,-1,0,-1
1501935771384428,0,1,8,4,8,-2,1,0
1501935771393445,3,2,2,-33,2,9,1,-2
1501935771393445,-4,-4,10,87,11,-8,-4,1
1501935771408450,0,2,10,-82,17,5,-1,-7
1501935771408450,-6,-7,-20,67,-12,-4,-2,-1
1501935771410389,1,0,-5,-22,4,-2,0,2
1501935771410389,0,1,-4,-16,-1,2,-2,-2
1501935771431433,0,-1,7,98,20,-1,-2,1
1501935771431433,1,2,12,-27,-9,-1,-2,-1
1501935771432401,-4,-6,-8,28,0,-4,-1,-3
1501935771432401,2,5,23,74,5,6,-2,0
1501935771444440,-2,0,-12,-13,-9,-7,-2,-1
1501935771444440,-3,-1,10,34,6,0,-2,-4
1501935771453439,0,-1,-24,-69,-8,-2,-1,3
1501935771453439,2,4,26,17,-11,3,1,-1
1501935771468434,-2,-6,-8,15,-26,-9,-3,-1
1501935771468434,-3,-1,-16,-55,-3,-4,0,2
1501935771470392,0,1,2,-32,1,6,-1,-7
1501935771470392,-4,-2,6,43,10,-4,-3,0
1501935771492397,1,1,-1,-91,-31,-4,-1,2
1501935771492397,3,2,13,84,7,1,2,1
1501935771494394,-3,-3,-1,-88,-10,-5,0,1
1501935771494394,0,0,-1,-19,11,6,4,-1
1501935771504455,-5,-9,-14,47,10,-2,-2,-1
1501935771504455,2,4,-2,-49,5,1,-1,1
1501935771513442,0,-3,-13,84,0,-3,-3,0
1501935771513442,-1,0,-15,-60,-21,-1,-1,-3
1501935771528396,-1,1,4,8,11,0,-1,2
1501935771528396,0,0,1,-21,0,-1,1,-2
1501935771530403,-2,-3,1,33,26,5,0,-3
1501935771530403,-1,1,-10,26,0,-1,0,3
1501935771551438,-1,0,10,-34,-11,-7,0,-3
1501935771551438,-2,-2,-7,30,-2,2,-4,-2
1501935771552397,1,-1,10,-58,-16,0,1,1
1501935771552397,-3,-6,-11,-45,4,-5,-3,-3
1501935771564441,0,2,7,-6,1,1,0,1
1501935771564441,-1,-5,-10,-6,-4,-1,1,0
1501935771573434,-2,0,2,31,3,-5,-3,-1
1501935771573434,-2,-2,-9,-17,-6,1,-1,0
1501935771588441,0,1,0,22,6,4,-1,-1
1501935771588441,-2,0,-4,-42,-24,-7,-3,-1
1501935771590401,-2,-5,-15,6,5,3,-2,-1
1501935771590401,0,-2,1,20,5,-2,-1,-1
1501935771611448,-1,-1,-1,-16,-10,-2,0,0
1501935771611448,-2,-3,-3,-40,3,-2,-3,0
1501935771612401,3,5,17,91,18,6,1,1
1501935771612401,-3,-8,-13,-4,-15,-7,0,-2
1501935771625400,2,0,4,13,6,-3,-4,-2
1501935771625400,-1,1,1,-25,-3,2,2,1
1501935771633449,0,2,-9,13,-2,2,2,2
1501935771633449,2,6,-1,26,4,3,-1,-2
1501935771648442,-4,0,5,54,9,-3,-3,-2
1501935771648442,-1,-1,-13,-49,0,0,0,-2
1501935771650403,-1,2,17,3,-5,-7,-4,-3
1501935771650403,-1,0,-5,-44,-2,5,-1,-3
1501935771671448,1,-1,-5,-8,3,0,1,1
1501935771671448,-1,-1,4,27,-1,-4,1,0
1501935771672407,-3,-3,-1,-26,-7,-3,-4,0
1501935771672407,-1,0,11,2,9,0,-2,-2
1501935771693473,0,-3,-24,-19,-7,-1,0,-2
1501935771693473,-2,-1,12,21,-23,-3,-1,0
1501935771695404,-2,-2,-5,-11,10,-4,0,-1
1501935771695404,1,0,2,-13,-12,-4,1,2
1501935771708476,-2,-2,1,41,2,1,-3,-2
1501935771708476,0,-1,-4,-74,3,0,-2,-2
1501935771710407,0,0,-7,59,11,5,0,-1
1501935771710407,-5,-6,-15,-80,-19,-8,-2,0
1501935771731440,2,0,1,-61,0,-1,1,0
1501935771731440,-1,-1,4,62,8,-3,-4,-2
1501935771732408,0,1,3,23,10,0,1,0
1501935771732408,2,6,-8,-74,-15,6,1,0
1501935771753438,-2,-2,17,-6,-1,-7,-1,-1
1501935771753438,-1,-3,-21,-4,-10,-5,0,0
1501935771753438,-1,-3,6,13,-4,-2,-2,-2
1501935771753438,-1,-4,-6,19,2,-4,-2,-3
1501935771768423,0,1,9,44,9,7,1,2
1501935771768423,-2,-2,-3,-60,19,3,-2,-3
1501935771768423,-3,-4,-3,-24,-28,-9,-3,-2
1501935771768423,-1,-1,2,8,7,-1,-2,0
1501935771790438,3,6,27,35,1,7,2,1
1501935771790438,-3,-8,-25,3,13,2,-1,-3
1501935771791411,0,0,-4,-34,-5,-1,-1,1
1501935771791411,-1,-3,4,48,4,-3,-1,-2
1501935771813424,-5,-4,-11,-76,-16,-6,-3,-3
1501935771813424,0,2,4,57,4,-2,-3,1
1501935771813424,-1,-3,-9,-23,-1,0,-1,-2
1501935771813424,0,0,3,49,13,7,2,0
1501935771828429,-2,-4,-12,24,1,1,1,-1
1501935771828429,1,3,12,60,11,0,-2,-2
1501935771828429,1,3,12,26,-10,0,0,1
1501935771828429,-3,-7,-27,68,2,-7,-4,-3
1501935771850457,0,1,2,37,-5,-4,0,1
1501935771850457,-2,0,5,-54,-8,2,0,-3
1501935771851414,-4,-4,4,16,12,1,0,-2
1501935771851414,1,2,13,45,10,6,0,-1
1501935771873415,-1,-1,-25,-96,-42,-4,-1,0
1501935771873415,-1,-2,5,51,1,-2,-1,-1
1501935771873415,1,0,7,-34,-8,-2,1,-1
1501935771873415,0,-1,0,-16,1,2,2,-1
1501935771888427,-2,-1,-3,11,0,-3,-2,-1
1501935771888427,-5,-5,1,-26,-14,-8,-1,-2
1501935771888427,-2,-2,12,13,8,-3,-4,-3
1501935771888427,-2,-1,-9,-19,-20,-5,-3,-1
1501935771910459,1,2,11,23,27,7,-1,-1
1501935771910459,0,0,2,-128,-13,1,0,-1
1501935771911429,-3,-3,-8,10,0,-5,-1,-2
1501935771911429,-2,-2,-8,10,-3,-1,-2,-1
1501935771933420,2,2,10,-46,7,-1,-4,1
1501935771933420,-1,-4,-15,122,1,-2,-1,1
1501935771933420,0,1,-2,-22,-2,-2,-1,-1
1501935771933420,0,2,19,4,16,2,1,-2
1501935771948430,2,8,18,76,9,8,4,1
1501935771948430,-2,-9,-22,-48,-7,-5,-3,-1
1501935771948430,-1,-1,1,63,-3,-4,0,-2
1501935771948430,-1,-3,-1,-19,9,-2,-3,-1
1501935771970470,-1,-1,-7,65,10,3,-1,0
1501935771970470,-3,0,12,78,-3,-4,1,-1
1501935771971421,-2,1,-2,22,-5,1,0,1
1501935771971421,0,2,-12,2,11,5,0,-1
1501935771993425,-4,-3,15,68,2,-12,-1,-1
1501935771993425,0,-1,-8,0,-3,-1,-2,-1
1501935771993425,0,-2,-6,-42,3,5,2,0
1501935771993425,0,2,4,29,9,3,1,-1
1501935772008434,-3,-3,-6,-62,-21,-5,-2,-2
1501935772008434,0,1,-9,-12,1,1,-2,0
1501935772008434,2,1,-1,24,10,1,1,1
1501935772008434,-1,-2,2,-28,-13,-5,2,2
1501935772030489,-2,-4,-15,-2,-1,0,-2,-2
1501935772030489,1,3,14,-49,-2,0,0,-1
1501935772031447,-2,-3,1,73,10,-1,-3,-1
1501935772031447,-3,-4,-21,-103,-13,-6,-3,-1
1501935772053454,2,0,4,16,3,1,-1,-2
1501935772053454,-3,-5,-7,-76,-15,-6,-1,1
1501935772053454,-4,-3,4,16,5,-9,-5,-3
1501935772053454,0,2,21,64,-2,-1,2,2
1501935772067493,1,2,-5,-71,-1,8,1,1
1501935772067493,-1,-1,-3,56,11,4,-1,-1
1501935772075438,-4,-3,-7,-15,-8,-1,-2,-3
1501935772075438,-3,-1,11,-63,-29,-11,-4,-2
1501935772090428,-3,-5,-11,18,7,0,-1,-2
1501935772090428,1,3,18,-7,5,3,1,1
1501935772091435,-2,-2,-27,-97,-19,-4,-3,-3
1501935772091435,0,-1,6,25,12,2,-1,-1
1501935772113448,-1,-3,-9,15,-3,-6,-3,-1
1501935772113448,-1,-1,2,-7,-2,0,-2,-1
1501935772113448,3,1,-6,-27,1,1,0,0
1501935772113448,-2,-2,5,-32,-1,-2,-3,-1
1501935772127494,-1,-4,-6,23,3,0,-2,-3
1501935772127494,1,2,-4,-90,8,3,-1,-2
1501935772135477,-3,-7,-19,60,-14,-7,-2,-1
1501935772135477,-2,-2,14,-11,-12,-2,-3,-2
1501935772150472,-1,-1,-19,-11,-9,-6,1,0
1501935772150472,-1,0,4,83,13,5,3,-1
1501935772151444,-2,-2,0,-66,-19,-5,-1,-2
1501935772151444,-1,-1,1,70,-3,-5,0,-3
1501935772173445,-1,0,-1,-64,-16,-6,-3,-3
1501935772173445,0,2,2,-17,-7,2,-2,1
1501935772173445,1,0,7,43,33,9,-1,0
1501935772173445,2,-1,-8,15,-16,-3,-1,0
1501935772187508,-1,1,-4,-64,-1,1,-2,-1
1501935772187508,-1,1,2,68,1,-4,1,-2
1501935772195496,-1,1,10,59,19,3,0,0
1501935772195496,0,3,7,-107,-4,0,0,1
1501935772210499,-3,-6,-3,48,2,-2,-3,-3
1501935772210499,3,-1,-6,-16,-2,1,0,0
1501935772211434,0,-1,-4,-44,-8,-2,-4,-3
1501935772211434,1,3,8,116,18,5,4,5
1501935772233446,-1,-3,1,-74,-7,-2,-1,-4
1501935772233446,-3,-1,-5,57,-8,-3,-2,-2
1501935772233446,1,2,10,-9,-6,-1,-1,1
1501935772233446,0,-3,-27,2,-2,0,-2,-1
1501935772247500,1,0,11,20,22,2,0,-2
1501935772247500,0,-3,-3,-7,2,-4,0,-1
1501935772255480,0,0,4,-1,-11,-2,1,2
1501935772255480,-1,-3,-7,-6,6,1,-2,-3
1501935772270480,1,0,-1,34,4,1,0,1
1501935772270480,-2,-2,1,-19,-1,0,-1,1
1501935772271449,-3,0,-2,-21,-6,0,-1,-8
1501935772271449,-3,-1,-7,-15,-4,-1,0,-3
1501935772293449,-2,-2,8,49,2,-4,-2,-1
1501935772293449,1,1,0,-5,-2,1,-2,0
1501935772293449,1,0,-2,-19,-3,-1,2,5
1501935772293449,-2,-5,-5,-4,0,-4,-4,-8
1501935772307509,-3,-2,-1,6,-6,0,3,1
1501935772307509,-2,-3,-1,6,-1,-1,-1,-2
1501935772315484,0,-2,-3,1,-2,1,1,0
1501935772315484,-1,1,-1,-7,0,1,-1,0
1501935772330485,0,0,0,3,-5,-2,-2,1
1501935772330485,-1,1,0,-4,-3,-5,-2,-2
1501935772331442,-1,0,0,-12,-4,-1,-1,-2
1501935772331442,-1,0,-1,-2,1,-2,-1,2
1501935772361484,-1,-1,-2,-1,-3,2,-2,-1
1501935772361484,-2,-3,-3,-4,-1,-1,-1,-1
1501935772361484,0,0,0,-9,-1,0,-3,-2
1501935772361484,-1,-2,0,3,1,-2,0,-1
1501935772367483,1,2,-8,-25,-3,2,0,0
1501935772367483,-3,-2,6,15,-6,-7,-3,-2
1501935772375454,-1,0,-1,-3,-2,-2,-1,1
1501935772375454,-2,-1,-1,-21,-1,3,0,-4
1501935772390487,-1,2,1,61,10,7,1,-1
1501935772390487,-1,-3,-8,-53,-9,-5,-3,-3
1501935772391458,-2,-2,-1,-3,-1,-2,0,-1
1501935772391458,0,-1,0,-2,-2,-2,-3,1
1501935772413467,-2,0,3,7,0,-2,0,0
1501935772413467,0,1,-2,10,5,4,-1,1
1501935772413467,-1,-1,2,38,-2,-2,-2,-2
1501935772413467,1,0,-6,-21,-3,-2,-3,0
1501935772427512,-2,-2,-1,-12,-8,-2,-2,-2
1501935772427512,0,-1,1,14,2,1,0,-2
1501935772435496,-2,-2,-2,-30,-4,0,-1,-1
1501935772435496,0,-2,1,16,3,0,2,1
1501935772450492,-1,-2,1,-3,-2,0,-1,-1
1501935772450492,0,0,0,0,-1,-2,-1,0
1501935772451464,1,-1,-1,-3,1,0,-3,-1
1501935772451464,-2,-2,-3,7,0,0,1,1
1501935772473467,0,-2,1,1,0,-2,-2,-2
1501935772473467,0,-2,-3,-10,-1,1,1,6
1501935772473467,-2,-3,-2,-4,-1,-1,-1,-3
1501935772473467,-2,0,0,9,-4,-3,-3,-6
1501935772487513,1,0,0,-11,0,-4,-6,4
1501935772487513,3,-1,-2,6,3,6,4,-6
1501935772495520,-5,-3,-3,0,0,1,3,5
1501935772495520,0,-2,-1,2,-2,-1,-4,-2
1501935772510520,-2,-1,-1,-2,-1,-4,2,-1
1501935772510520,-3,0,0,-1,-1,-3,-4,-4
1501935772511452,2,2,-1,-2,-1,-2,0,1
1501935772511452,-1,0,-1,-5,-2,-2,0,0
1501935772533463,0,0,-2,-2,-4,-2,-3,-3
1501935772533463,-2,-2,0,4,0,-1,-1,1
1501935772533463,0,0,-2,-7,-3,-2,0,-3
1501935772533463,-3,-2,0,2,0,1,0,0
1501935772555495,-2,0,-1,-1,0,0,2,-1
1501935772555495,-2,-1,0,5,0,-2,1,-1
1501935772556454,-1,-1,2,-2,-2,-1,-2,0
1501935772556454,0,-1,-1,0,1,1,0,0
1501935772570497,-1,-1,0,-1,-3,-2,-1,0
1501935772570497,0,-3,-1,-4,-4,-2,-2,-1
1501935772571467,1,0,-1,0,1,0,-3,4
1501935772571467,-2,-2,-1,0,1,-1,0,0
1501935772593480,-2,-2,-2,-4,1,4,-2,-3
1501935772593480,-1,1,0,2,0,-1,-1,1
1501935772593480,-6,-2,-2,-1,0,-1,0,-6
1501935772593480,2,-1,-2,-2,-1,0,2,4
1501935772615519,-1,-1,0,-2,-3,-3,0,0
1501935772615519,-1,-2,-6,-7,-3,-2,-5,-1
1501935772616465,1,-2,0,-1,-1,0,0,-1
1501935772616465,-1,-1,-4,-2,-1,-2,-1,-3
1501935772630497,-1,0,0,0,0,-2,-1,1
1501935772630497,0,1,1,1,-1,-2,-1,-4
1501935772631482,0,0,-2,-2,-1,-2,5,1
1501935772631482,-6,0,2,1,-1,-2,-8,0
1501935772653490,9,-3,-3,-3,-1,0,-6,-4
1501935772653490,-1,0,0,-3,1,3,-5,2
1501935772653490,-1,-2,-1,0,0,1,17,16
1501935772653490,1,-2,-4,-2,-1,1,9,-10
1501935772676473,-7,-2,-4,-4,-2,-4,-3,-17
1501935772676473,3,-2,-2,-3,-2,-1,-3,11
1501935772677461,1,1,1,-1,-2,-6,-8,-5
1501935772677461,-1,-1,0,1,1,2,2,3
1501935772690497,-2,1,0,0,0,-2,-10,-9
1501935772690497,-5,-2,-2,1,-1,-1,1,-4
1501935772691462,0,-1,-1,-1,0,2,5,1
1501935772691462,-1,0,-3,-3,-4,-1,-4,0
1501935772713485,-1,-1,-3,-1,-1,-1,4,2
1501935772713485,-2,-1,-2,1,-1,-3,-6,-6
1501935772713485,-1,-2,-2,-4,-2,-2,-7,-7
1501935772713485,-4,-1,1,-1,1,0,2,0
1501935772735505,1,-1,0,-2,-1,0,-2,4
1501935772735505,1,-1,-1,-2,-3,-5,-6,5
1501935772736481,-3,-1,-2,-1,-1,1,-1,-12
1501935772736481,5,-1,-2,0,-1,-1,1,2
1501935772750509,-7,-1,-1,-2,-3,-2,8,0
1501935772750509,-1,-1,-2,-1,1,0,-7,-5
1501935772751466,6,0,-2,-1,2,2,2,10
1501935772751466,1,-2,-2,0,-2,-6,-2,8
1501935772773473,2,2,-1,-1,0,5,1,-3
1501935772773473,-1,-2,0,-2,-2,0,3,-9
1501935772773473,-3,-1,0,0,-1,1,-11,-10
1501935772773473,-2,-3,2,-1,-1,-3,-6,-5
1501935772795513,-3,-3,0,-2,-2,-1,8,13
1501935772795513,-2,1,0,1,1,0,-5,-6
1501935772796481,-1,-1,-2,0,0,0,0,4
1501935772796481,0,0,-1,1,0,0,-1,-8
1501935772810522,-4,-4,-1,0,-2,-4,12,6
1501935772810522,2,1,0,-2,1,-1,-18,-7
1501935772811502,-1,0,0,-1,0,-1,20,6
1501935772811502,0,1,-3,-1,-1,0,-19,-3
1501935772833470,1,-2,-3,0,1,4,38,33
1501935772833470,-5,-3,-4,-3,-1,-2,-3,-23
1501935772833470,29,4,0,3,-1,-1,-10,3
1501935772833470,-35,-10,-1,-2,-2,-1,-1,13
1501935772855509,6,5,3,-1,-2,-3,-24,-15
1501935772855509,2,-1,0,0,-5,-6,8,6
1501935772856471,-12,-2,-2,-3,-1,-1,-5,-1
1501935772856471,12,2,-1,0,2,1,-3,-5
1501935772870543,-4,-5,0,0,0,-3,-14,-5
1501935772870543,-3,0,1,0,1,1,20,17
1501935772871484,28,5,1,0,-1,1,-22,-15
1501935772871484,-38,-10,-3,-2,-2,-2,0,-2
1501935772893477,-15,1,0,-2,-3,-1,-1,-9
1501935772893477,4,0,-1,-1,-3,-3,-9,-5
1501935772893477,-11,-3,-2,-1,-2,-3,3,7
1501935772893477,13,1,0,1,-1,1,6,-3
1501935772915541,3,-1,0,0,0,-2,-23,-9
1501935772915541,-3,-2,0,-1,1,3,15,5
1501935772916486,-26,-11,-3,-2,-1,-3,5,-1
1501935772916486,18,8,3,1,1,0,11,11
1501935772930542,12,-1,-1,0,-1,1,-9,-3
1501935772930542,-6,3,2,1,0,1,12,0
1501935772931476,-9,0,-3,-1,-3,-2,-3,-9
1501935772931476,3,-1,-2,-4,-5,-3,-11,0
1501935772953477,0,0,-1,-1,-1,-1,-6,-12
1501935772953477,1,-4,-2,-2,-1,-2,-1,3
1501935772953477,-1,0,0,-2,-1,0,-1,-1
1501935772953477,-2,1,-1,-1,-1,-2,-4,-9
1501935772975492,4,-2,0,-2,-1,-1,3,4
1501935772975492,-5,-2,1,0,0,-1,-4,-1
1501935772976481,-4,0,-2,1,-2,-1,-2,-3
1501935772976481,8,1,0,1,0,-1,-4,-4
1501935772990520,-4,-3,-2,0,1,1,4,3
1501935772990520,0,1,-3,0,-3,0,-6,1
1501935772991491,-1,-3,-1,-3,-2,-1,-3,-2
1501935772991491,4,0,0,-2,-1,1,4,-2
1501935773012519,-3,0,-1,-1,-2,1,-1,2
1501935773012519,-3,-2,-1,-1,-1,2,-4,-5
1501935773013523,2,-1,0,0,0,-2,1,6
1501935773013523,-1,-2,-2,-3,-1,-4,0,-5
1501935773035523,-3,-1,-1,-3,-1,-4,-1,-2
1501935773035523,1,-1,-1,0,0,-1,0,-4
1501935773036482,-5,-1,-2,-1,0,0,-1,-2
1501935773036482,1,2,2,0,-1,0,3,5
1501935773050524,-2,0,-1,-2,0,-2,-1,-3
1501935773050524,3,-2,1,-1,-2,1,3,7
1501935773051495,-3,-2,-1,-3,-1,0,-1,-2
1501935773051495,0,-1,-2,1,-2,-2,1,-4
1501935773072526,-1,-1,0,-1,0,0,1,2
1501935773072526,-1,-1,-2,0,0,-4,-7,0
1501935773073517,-1,0,0,0,0,1,4,-9
1501935773073517,2,0,-1,-2,-1,-2,2,2
1501935773095549,-3,-1,-2,0,-2,-3,0,1
1501935773095549,1,-1,0,-1,0,-2,-3,-3
1501935773096486,-1,1,0,-1,-2,-2,0,0
1501935773096486,-1,-2,-2,-2,-2,-1,1,0
1501935773110535,0,-3,-1,0,-1,-1,2,3
1501935773110535,-1,0,-1,-1,-1,-1,-2,0
1501935773111502,-1,0,-1,-1,0,-4,-5,-1
1501935773111502,-1,1,-1,-1,1,2,1,-2
1501935773132551,-1,-1,0,-2,-1,-1,-1,2
1501935773132551,0,-1,-1,-2,-1,-1,2,2
1501935773133527,-1,-1,-2,-3,-1,-1,-2,-1
1501935773133527,-1,-1,-2,0,-1,-3,-5,1
1501935773156531,-2,-1,-1,0,0,-1,-1,-4
1501935773156531,-1,-1,-1,0,-1,1,0,0
1501935773156531,-2,0,-1,0,0,1,-1,-2
1501935773156531,-3,-2,-3,-1,-2,-1,-1,-4
1501935773170532,1,-1,-1,-1,0,0,0,-1
1501935773170532,-1,1,-1,-1,-2,-2,0,-3
1501935773171529,-1,-3,0,-1,-2,-2,-4,1
1501935773171529,-1,-1,0,0,-1,-1,-2,-3
1501935773193513,-1,-1,1,-2,0,-2,-1,-1
1501935773193513,-2,-1,-1,-1,-1,-1,-1,0
1501935773193513,-1,2,-2,-1,-2,-1,-2,0
1501935773193513,-1,-2,0,-1,-3,-1,-3,-2
1501935773216563,-1,-1,0,-1,0,1,1,-2
1501935773216563,-2,-2,0,-1,0,-1,0,-1
1501935773216563,0,-2,-2,1,-1,0,-1,-1
1501935773216563,0,-2,-2,-2,0,-3,-3,-3
1501935773229535,0,0,-2,1,-1,-1,-1,-4
1501935773229535,-1,-1,-3,-3,-2,-2,0,0
1501935773238505,-2,-2,-1,-1,-2,-1,1,-1
1501935773238505,-1,-1,1,0,-1,-2,-1,-2
1501935773252568,-3,-1,-1,-2,-2,-1,-1,-1
1501935773252568,1,1,0,-1,1,-1,-1,0
1501935773253527,1,0,-1,0,0,-2,-1,-1
1501935773253527,-1,-1,-1,-2,1,1,-1,-1
1501935773276545,0,0,-2,-1,-1,0,0,-1
1501935773276545,-1,-1,0,-1,-1,-2,0,-1
1501935773276545,-2,-3,0,-1,-2,-1,0,1
1501935773276545,-1,-2,0,0,-1,0,-1,-2
1501935773289536,-1,-1,-1,1,0,0,-2,0
1501935773289536,1,-1,-2,0,0,1,-2,-1
1501935773298523,0,-2,0,-2,0,-3,-1,-2
1501935773298523,-2,-1,-1,-1,-1,-2,-1,1
1501935773313526,0,-2,-2,-1,-1,-1,-1,-3
1501935773313526,-1,-2,1,-2,-2,-2,0,1
1501935773313526,-1,-1,1,-2,-1,-1,0,-1
1501935773313526,0,-1,-2,-2,0,0,-1,0
1501935773336544,0,-1,-1,0,-1,-4,-2,-1
1501935773336544,-2,0,0,0,-3,1,2,0
1501935773336544,0,-2,-1,-1,-1,0,-2,-1
1501935773336544,-2,-1,0,0,0,-2,0,-1
1501935773349541,-1,-1,1,-2,-3,-1,0,-1
1501935773349541,-1,-2,-2,-2,-1,-3,-4,-2
1501935773358513,0,0,-1,-3,0,-1,-1,-1
1501935773358513,-1,1,-1,-2,0,0,1,-2
