timestamp,emg1,emg2,emg3,emg4,emg5,emg6,emg7,emg8
1501936389554538,5,4,-58,37,14,31,-2,1
1501936389554538,9,19,72,-44,-14,14,-1,6
1501936389555531,-7,-27,-90,65,53,21,3,-2
1501936389555531,-10,-13,68,-10,-53,-32,-14,-6
1501936389556587,-6,-1,63,-17,12,-24,-4,-5
1501936389556587,14,28,37,-110,-42,9,7,7
1501936389560582,-11,-20,-22,-37,-47,-18,-13,-10
1501936389560582,11,8,-6,-39,2,8,8,8
1501936389564530,7,25,49,88,38,14,7,0
1501936389564530,-6,-9,60,20,48,7,-9,-13
1501936389566552,9,7,17,88,68,0,-4,3
1501936389566552,7,2,-35,-3,18,17,10,5
1501936389582541,7,18,94,39,-9,-1,1,5
1501936389582541,-13,-14,-41,-28,-34,-25,-13,-11
1501936389589581,9,24,73,-2,40,24,17,10
1501936389589581,-8,-22,32,-97,0,7,-7,-9
1501936389607551,2,1,-8,25,35,13,9,-1
1501936389607551,2,-2,-120,23,27,11,10,4
1501936389621569,-19,-23,4,65,-69,-44,-15,-10
1501936389621569,-16,-23,-99,-73,-74,-30,-14,-14
1501936389624533,-4,-25,-14,45,4,-3,-2,-2
1501936389624533,-5,-10,-1,-101,-16,-11,-1,5
1501936389642584,1,3,-7,-4,18,12,9,-3
1501936389642584,10,22,46,48,42,11,0,1
1501936389682565,5,-5,-20,-37,-43,-12,-8,-3
1501936389682565,-8,2,16,97,14,-9,-3,1
1501936389682565,1,-3,-24,74,10,3,-5,0
1501936389682565,-5,-3,1,-26,32,4,1,-5
1501936389683567,9,7,24,-106,-21,7,4,1
1501936389683567,-5,-11,-52,-121,-3,2,3,5
1501936389688562,-7,-14,-32,-55,-71,-29,-15,-10
1501936389688562,4,-1,20,11,12,6,3,2
1501936389689537,-8,-6,-4,55,-6,3,1,-8
1501936389689537,7,13,19,63,29,22,9,8
1501936389701545,-9,-10,19,99,16,-11,1,2
1501936389701545,-13,-31,-89,-59,-65,-30,-13,-13
1501936389708538,2,3,30,71,110,26,3,1
1501936389708538,-22,-32,-40,-20,-111,-48,-18,-15
1501936389716564,5,11,-5,-41,10,18,7,2
1501936389716564,-1,-3,-18,85,23,2,-2,-2
1501936389731587,1,5,30,108,51,5,3,4
1501936389731587,-4,-8,5,36,-31,-17,-10,-8
1501936389746608,10,15,-24,-15,16,2,4,6
1501936389746608,-12,-20,-47,-5,-54,-23,-9,-6
1501936389755543,0,3,0,-77,3,8,2,1
1501936389755543,3,8,27,-66,31,8,0,-3
1501936389770544,6,10,37,41,24,5,5,2
1501936389770544,3,10,42,-85,-26,4,-3,-1
1501936389771552,-1,-4,-75,-92,-61,-8,1,4
1501936389771552,-9,-12,10,5,41,-4,-12,-13
1501936389792584,4,8,43,90,1,27,12,8
1501936389792584,9,-16,-52,-100,37,-7,-6,-9
1501936389794545,-18,-5,11,127,20,-25,-9,-3
1501936389794545,1,0,-13,45,35,4,3,-4
1501936389806613,0,-3,-11,22,-26,1,-2,5
1501936389806613,4,15,24,124,36,17,6,3
1501936389813574,3,5,34,80,-30,4,2,1
1501936389813574,-2,-5,-19,65,36,4,3,2
1501936389830583,1,-7,0,35,22,-11,-2,17
1501936389830583,-3,9,32,-24,-18,-4,-1,-4
1501936389831547,-9,-14,-65,107,8,-9,-13,-12
1501936389831547,9,11,30,-10,-36,-1,3,6
1501936389851612,-5,3,-5,-19,66,12,-4,-12
1501936389851612,-8,-5,-16,28,-28,-14,-2,-1
1501936389852564,8,-1,3,55,23,5,2,14
1501936389852564,-1,10,20,-100,-21,5,0,-2
1501936389866610,-7,-10,-12,-39,2,-23,-12,-13
1501936389866610,1,12,38,52,20,11,2,-2
1501936389873580,14,-9,-29,20,12,4,6,-1
1501936389873580,-7,0,11,127,51,5,-2,2
1501936389889595,3,0,33,2,-37,-11,5,-2
1501936389889595,4,21,43,-49,17,21,3,1
1501936389890551,-7,-11,26,-9,39,-2,-3,3
1501936389890551,10,4,-7,34,17,3,4,2
1501936389911619,-13,-10,-13,14,18,-3,-7,-5
1501936389911619,0,-4,-22,-55,-82,-20,3,5
1501936389912551,1,4,-9,-1,9,7,0,-7
1501936389912551,-2,3,52,28,28,-7,-3,5
1501936389926590,21,0,-48,4,-29,4,0,1
1501936389926590,-26,-4,58,127,89,11,-6,7
1501936389933592,4,8,5,-97,-53,4,8,-18
1501936389933592,-2,-7,-35,-106,-88,-13,-10,-13
1501936389949595,2,-4,36,38,56,-2,-13,-2
1501936389949595,6,-8,-12,-27,-52,-18,-6,-4
1501936389950557,-17,4,4,76,16,-4,-8,-3
1501936389950557,12,4,13,26,21,9,23,6
1501936389971616,-7,5,-8,-97,-14,6,7,1
1501936389971616,-23,-1,-16,-62,36,1,7,13
1501936389972588,24,2,25,27,12,-1,-8,-8
1501936389972588,7,-4,-19,-42,-38,-23,-18,-11
1501936389986590,2,-3,0,-19,38,5,0,-1
1501936389986590,-14,-14,-7,108,25,-2,-5,0
1501936389993595,-8,2,6,-128,-31,-5,2,7
1501936389993595,-2,-2,-40,17,36,8,-4,6
1501936390009624,5,4,13,-12,-15,7,2,-3
1501936390009624,-8,-12,-24,-61,11,-12,-6,-13
1501936390010557,-5,-5,-24,-4,-33,-18,-4,-1
1501936390010557,12,8,29,68,29,16,3,7
1501936390031627,-31,-12,-27,-97,-86,-14,-7,-6
1501936390031627,19,13,26,94,0,7,-1,-2
1501936390032558,-1,8,34,-28,6,4,2,8
1501936390032558,-5,-4,-10,-9,-38,-3,-3,-3
1501936390046569,-3,5,27,30,22,4,5,4
1501936390046569,10,3,-5,-58,-20,2,0,-2
1501936390061601,-12,-4,14,-43,3,-3,-2,0
1501936390061601,-1,-2,-4,-36,-2,0,-1,21
1501936390069603,9,13,38,118,28,4,3,-23
1501936390069603,-4,-8,-41,-117,-68,-7,4,-5
1501936390070562,4,12,22,65,23,12,-1,4
1501936390070562,-3,-31,-88,11,-31,-18,-10,1
1501936390091602,4,0,19,-103,-45,-8,2,7
1501936390091602,0,-2,-25,-69,15,8,1,1
1501936390092561,-5,-6,-28,-52,-36,-9,1,0
1501936390092561,-7,14,33,-7,36,18,3,-12
1501936390106572,8,-9,-37,45,-10,-5,-2,4
1501936390106572,5,1,9,65,20,4,-2,1
1501936390113577,16,9,15,57,36,7,3,10
1501936390113577,-8,-5,-10,-74,-7,1,-2,1
1501936390129606,-1,4,27,79,13,-2,0,-30
1501936390129606,-9,-11,-68,-47,-48,-17,-4,4
1501936390130565,-11,3,14,61,-1,-1,-1,-16
1501936390130565,17,13,43,53,24,5,3,2
1501936390151606,-7,-9,-26,7,33,8,-6,-2
1501936390151606,-13,-14,6,48,-39,-30,-5,3
1501936390152565,10,-1,2,49,38,4,0,-5
1501936390152565,-3,5,9,87,21,2,8,10
1501936390166580,-14,-6,-23,-58,-69,-11,-6,-2
1501936390166580,17,13,48,60,29,13,0,-2
1501936390173610,-3,-6,-29,-76,-20,-6,2,4
1501936390173610,-7,9,32,-16,-10,6,5,-4
1501936390189608,4,-14,-17,68,49,-4,-11,10
1501936390189608,1,12,29,43,32,14,6,-5
1501936390190568,-9,-10,-29,5,-18,-12,-3,-7
1501936390190568,2,10,18,44,-26,12,3,2
1501936390211584,-6,-9,-1,-12,21,-16,-7,-30
1501936390211584,2,-4,-34,-32,-32,-10,-8,2
1501936390212567,-5,0,8,71,5,13,6,8
1501936390212567,-2,-1,-2,-118,16,2,0,-8
1501936390226593,-8,-15,-17,-46,-40,-14,-6,4
1501936390226593,14,16,16,-49,3,14,6,9
1501936390233611,-15,-8,-30,-102,-17,-4,-5,-8
1501936390233611,15,-4,-16,50,13,5,3,9
1501936390249610,3,12,27,34,-36,4,8,16
1501936390249610,-4,-4,-8,-96,-33,3,1,-9
1501936390250572,-4,-3,9,0,4,-9,-5,-3
1501936390250572,-4,1,33,-30,10,-9,-11,-12
1501936390271634,-15,-17,-67,-88,-11,-9,1,5
1501936390271634,11,5,29,127,42,10,2,6
1501936390272571,-17,-10,-40,-86,-15,-15,-9,-40
1501936390272571,3,0,2,36,11,7,7,14
1501936390294614,4,7,22,-2,31,-7,-8,8
1501936390294614,-15,-1,-12,27,24,8,1,5
1501936390295575,-3,-2,17,-113,-21,-7,-6,4
1501936390295575,33,5,4,84,2,-1,2,11
1501936390309637,-32,4,-20,-23,0,12,5,-32
1501936390309637,7,6,30,33,50,7,2,8
1501936390310574,-3,-1,-6,-14,-27,-9,-3,9
1501936390310574,-14,-12,-43,-43,-16,-9,-12,-18
1501936390340604,18,8,51,-5,29,11,9,40
1501936390340604,0,-4,-7,-48,-12,-3,-1,-17
1501936390340604,12,-11,-68,-79,-49,-9,0,8
1501936390340604,-11,1,27,20,4,-3,-6,-13
1501936390354584,6,4,2,0,-30,0,-1,2
1501936390354584,-13,-11,9,-65,-4,-17,-13,-11
1501936390354584,5,5,17,29,29,2,3,7
1501936390354584,1,2,-6,-6,7,14,8,4
1501936390369582,-7,-7,-28,-61,-54,-15,-8,-7
1501936390369582,9,5,9,81,27,7,2,7
1501936390369582,5,1,5,103,-23,-3,-1,-15
1501936390369582,-11,-3,4,-18,9,-6,-3,-7
1501936390391628,6,-3,-29,58,38,8,2,2
1501936390391628,-5,-1,3,-106,-38,-6,-4,-11
1501936390392578,11,4,18,24,22,7,1,31
1501936390392578,-14,-7,-15,-7,2,1,-1,-12
1501936390414641,29,5,0,19,-51,-5,1,8
1501936390414641,-8,-4,-9,41,17,-3,-2,-1
1501936390415581,0,6,-3,116,54,16,5,11
1501936390415581,-2,0,-24,-24,-32,-9,1,5
1501936390429643,17,-3,13,43,6,1,-2,-1
1501936390429643,-12,-1,-4,24,-31,-6,1,-25
1501936390430581,-17,-11,-8,34,15,0,-1,-17
1501936390430581,7,-2,-10,17,7,-2,-4,1
1501936390451619,-12,13,52,47,30,6,0,-6
1501936390451619,10,5,28,63,75,13,5,8
1501936390452592,-4,-4,-32,-128,-83,-13,-3,-4
1501936390452592,-11,-5,5,1,-7,-7,-3,-7
1501936390474650,1,3,20,15,15,6,2,6
1501936390474650,2,-8,-17,-12,13,0,-6,-6
1501936390475584,2,4,19,-10,39,13,4,2
1501936390475584,-3,-4,-19,-57,-37,-14,-3,9
1501936390489634,-10,-6,-25,-61,-4,-5,-3,-5
1501936390489634,12,8,-1,46,-12,7,4,2
1501936390490585,-3,-6,10,14,7,-3,-4,5
1501936390490585,-21,-12,-25,-29,-15,-5,-4,-19
1501936390511649,1,0,11,45,32,11,1,-2
1501936390511649,1,3,1,-9,-19,-11,1,9
1501936390512620,0,1,8,-50,-21,-1,-6,-15
1501936390512620,6,5,32,43,8,4,4,2
1501936390534649,-4,0,-4,20,-11,1,0,0
1501936390534649,-4,-10,-26,-64,-38,-11,-3,0
1501936390535588,1,5,7,46,-3,0,0,1
1501936390535588,34,1,18,42,34,-4,-9,36
1501936390549653,-14,-4,-14,9,-20,-6,8,-34
1501936390549653,6,3,-9,-55,-6,2,-7,10
1501936390550627,-10,-1,-26,-15,-12,1,9,-4
1501936390550627,8,-2,-6,28,27,-1,-9,-2
1501936390571628,0,0,5,-69,-17,-6,2,13
1501936390571628,4,-4,-53,71,34,20,6,4
1501936390572589,7,6,39,-67,-48,-4,-2,-1
1501936390572589,-14,3,7,33,-3,-6,3,3
1501936390594651,10,1,-5,22,28,1,-7,-6
1501936390594651,-1,4,15,6,-33,-1,7,1
1501936390595591,7,3,-6,-11,13,-15,-9,1
1501936390595591,-16,-15,-60,-59,-25,5,4,-19
1501936390609654,-2,0,-1,-33,-5,-5,-7,-16
1501936390609654,7,0,32,104,40,8,-1,5
1501936390610599,22,8,23,18,10,8,1,2
1501936390610599,-29,-7,5,-94,-71,-18,-6,-12
1501936390631637,-4,0,1,-18,15,7,3,6
1501936390631637,12,0,-5,-21,-5,0,1,0
1501936390632591,-11,-9,-1,87,14,-9,-8,-9
1501936390632591,8,5,-19,105,41,13,3,4
1501936390654631,-10,-5,-1,-51,-62,-14,-4,-5
1501936390654631,-4,-2,24,20,-16,-11,-1,7
1501936390655593,-7,-5,-24,-20,6,1,-1,8
1501936390655593,-3,-1,-7,81,34,15,3,-15
1501936390676657,7,-2,-15,-36,-6,-3,3,36
1501936390676657,-29,-6,-17,-18,-19,-10,-11,-71
1501936390677595,-4,-2,14,79,13,3,-4,1
1501936390677595,1,6,26,-32,-2,-4,5,3
1501936390691610,-7,-7,-35,6,12,-2,-7,-14
1501936390691610,3,1,18,-3,-12,-1,1,13
1501936390699596,12,1,-15,-34,0,0,4,12
1501936390699596,4,5,22,26,13,8,-3,-12
1501936390714610,2,8,20,45,35,-5,-2,-3
1501936390714610,8,1,3,32,2,11,2,19
1501936390714610,-15,-4,7,-28,-8,-6,-3,-20
1501936390714610,7,3,-38,-124,-24,7,5,18
1501936390736637,-4,-5,2,71,5,-6,-2,-2
1501936390736637,-2,-1,-20,2,7,1,-2,1
1501936390737601,0,0,5,25,26,1,3,3
1501936390737601,1,2,21,81,-6,-9,-5,-11
1501936390759668,3,1,30,75,34,16,1,3
1501936390759668,9,-3,-25,-75,-49,-16,1,9
1501936390760636,-9,0,0,54,12,-2,-3,10
1501936390760636,-1,3,19,45,31,6,2,-3
1501936390774667,-9,-5,-15,-78,-38,-5,-1,-8
1501936390774667,1,1,14,11,2,2,2,15
1501936390774667,9,-4,-12,-97,18,1,-7,10
1501936390774667,-4,-2,8,30,-2,-9,-7,-36
1501936390796641,-2,1,14,19,18,7,3,-2
1501936390796641,-3,-4,-13,-70,-20,-12,-7,5
1501936390797605,-1,-1,-16,37,-19,-10,1,-4
1501936390797605,-4,0,-6,14,6,9,2,4
1501936390811612,1,-5,17,40,-20,-2,-6,2
1501936390811612,-1,0,16,5,10,-13,-6,-10
1501936390819644,5,3,-12,-5,13,5,4,4
1501936390819644,4,-6,-12,-124,-52,-5,-3,-3
1501936390834640,-5,4,7,89,43,-5,0,2
1501936390834640,-7,1,10,-33,-48,3,-6,0
1501936390835618,2,2,14,19,-13,4,9,1
1501936390835618,3,-5,22,35,-16,1,-2,11
1501936390856643,0,-1,-35,-38,4,-5,-1,-3
1501936390856643,-4,-4,2,0,24,-3,-6,-6
1501936390857639,-1,-1,6,11,-44,-3,2,-6
1501936390857639,-9,0,7,-63,-23,-11,-4,-9
1501936390871627,-8,-9,-25,31,-12,-10,-8,-34
1501936390871627,11,1,4,17,15,6,7,18
1501936390879665,-21,-4,7,62,24,2,-10,-18
1501936390879665,1,2,-6,-65,-7,-10,3,5
1501936390894634,3,-1,-16,9,-22,11,1,3
1501936390894634,-3,2,-2,-30,23,-6,-5,-8
1501936390895607,10,-2,-16,-68,-14,16,8,0
1501936390895607,-12,-4,1,47,-5,-10,-5,8
1501936390916615,-2,1,23,-31,-11,-16,-5,2
1501936390916615,5,-4,-34,-55,-7,16,0,5
1501936390917608,-5,-10,-15,-71,6,-11,-4,23
1501936390917608,-9,0,5,2,12,0,-5,-40
1501936390939610,15,5,1,-42,-16,3,3,0
1501936390939610,2,-9,-18,-19,-9,-9,-3,11
1501936390940638,-5,3,3,15,26,7,-2,-8
1501936390940638,2,0,0,44,-9,-4,3,16
1501936390954686,-6,-5,-19,-108,6,2,-3,-1
1501936390954686,2,1,2,51,11,-3,3,-6
1501936390954686,0,1,7,68,0,-4,-5,-12
1501936390954686,-9,-4,0,55,17,4,-2,4
1501936390976663,3,5,13,14,-12,5,2,9
1501936390976663,-3,2,11,39,-14,-4,7,-1
1501936390977623,-8,-14,-58,-44,-17,-9,-5,-6
1501936390977623,9,-1,-6,-12,-8,-4,-4,16
1501936390999661,1,2,7,82,11,9,9,7
1501936390999661,-8,-3,16,69,21,7,-1,-4
1501936391000653,4,2,1,35,-1,4,-1,-4
1501936391000653,3,0,3,-12,-20,-12,-1,16
1501936391014670,-7,-3,9,-20,-9,0,-5,-1
1501936391014670,-3,4,28,53,8,-7,-3,-11
1501936391015613,16,3,12,71,15,9,5,0
1501936391015613,-22,-2,-11,34,8,-3,-6,-5
1501936391036624,-4,-3,5,26,19,7,8,7
1501936391036624,19,2,9,-58,-38,-3,-8,10
1501936391037633,-12,2,30,5,-22,-3,0,-21
1501936391037633,7,0,23,-39,14,-4,-4,-1
1501936391059653,-1,2,2,-61,-7,1,0,2
1501936391059653,-3,4,23,95,25,3,1,-9
1501936391060614,-1,-12,-68,-50,-23,-9,-4,9
1501936391060614,5,1,2,17,3,13,6,2
1501936391074665,-8,-3,-13,-61,-1,-17,-7,-10
1501936391074665,0,-5,-28,-11,21,21,3,7
1501936391074665,7,7,34,-77,-15,-8,-3,-4
1501936391074665,-5,1,-9,-58,3,-3,0,-3
1501936391096681,2,-5,0,51,15,8,1,7
1501936391096681,-9,-2,-6,54,-23,-19,-3,-4
1501936391097627,9,3,27,-1,2,-16,-5,16
1501936391097627,-4,-6,-33,61,32,28,3,-7
1501936391120656,-3,2,15,6,-3,-6,1,6
1501936391120656,-5,5,28,9,14,1,-2,-32
1501936391121642,-2,-4,-8,6,-6,-10,-4,-7
1501936391121642,8,0,-4,58,10,-2,-4,0
1501936391134681,3,-1,-10,7,1,7,-1,2
1501936391134681,-10,-4,-6,19,-5,-8,1,6
1501936391135619,-7,-1,6,0,-13,3,-4,5
1501936391135619,4,0,-6,-34,0,0,3,-1
1501936391157688,0,-3,-5,-71,-44,-4,-3,-5
1501936391157688,2,5,7,0,6,2,3,18
1501936391157688,0,-1,-4,-1,14,-2,-2,-4
1501936391157688,2,-1,-2,-28,-12,0,-1,0
1501936391187670,-3,-3,2,70,6,-7,-4,-7
1501936391187670,-1,-8,-25,-4,5,-3,-4,3
1501936391188623,3,9,25,60,12,16,6,7
1501936391188623,-4,-2,-3,69,6,-3,2,-6
1501936391194668,-1,1,-7,-18,-16,-14,-5,5
1501936391194668,-8,-6,-22,39,-9,-5,-2,-7
1501936391195624,0,-1,1,-13,-1,2,0,3
1501936391195624,5,-1,-13,-23,1,0,1,-6
1501936391216664,-1,-3,-42,-4,-1,-1,-2,-16
1501936391216664,-6,-1,-1,1,12,3,1,3
1501936391217657,-6,-6,-26,27,11,-7,-4,-2
1501936391217657,2,5,24,-55,-38,-5,2,7
1501936391239663,3,2,18,44,17,14,4,-1
1501936391239663,-1,-1,-10,-108,-15,-6,0,-6
1501936391240625,-2,1,9,31,38,9,-1,-2
1501936391240625,0,1,0,-15,-23,-11,-2,8
1501936391254702,-5,2,15,94,31,9,5,-3
1501936391254702,-3,-1,11,13,2,6,-2,-27
1501936391254702,3,0,17,-51,-10,-7,-5,-2
1501936391254702,-16,-9,-33,-20,-4,-8,-4,-8
1501936391276697,1,2,24,48,9,0,0,6
1501936391276697,3,4,8,-40,-2,-1,-1,5
1501936391277660,-12,-2,4,-25,-20,-2,0,-10
1501936391277660,4,-1,16,5,11,-4,-3,-2
1501936391316700,6,-9,-41,-122,-60,-7,-9,20
1501936391316700,-2,1,-7,3,18,2,4,4
1501936391316700,-8,-3,-8,-21,-12,-1,-1,-10
1501936391316700,4,-2,-6,-1,-16,-5,1,11
1501936391318662,4,-6,-9,1,37,6,-2,3
1501936391318662,4,2,10,-14,3,1,3,7
1501936391321687,-4,-7,-24,-91,-33,-5,-4,-10
1501936391321687,2,1,18,14,25,6,1,0
1501936391336672,3,0,-5,-11,-16,-1,-1,1
1501936391336672,5,3,21,15,-9,-6,-3,13
1501936391337638,-5,-5,-8,13,-5,-8,-3,-9
1501936391337638,1,1,5,4,10,8,1,-5
1501936391360699,1,3,23,54,24,-2,1,-3
1501936391360699,-5,-3,-11,15,-8,0,0,-1
1501936391361634,-3,-9,-15,67,6,0,-5,-3
1501936391361634,2,0,-4,-10,-3,1,-1,0
1501936391398673,-8,-3,-17,40,1,0,-1,-1
1501936391398673,1,-1,-13,-42,-1,1,1,0
1501936391399634,5,3,38,68,17,5,0,12
1501936391399634,-8,-10,-52,-106,-17,-15,-3,-7
1501936391401634,-10,-1,1,9,-6,1,-1,-20
1501936391401634,13,-1,-1,-32,-9,1,-2,31
1501936391404680,-9,2,25,95,-2,-7,-1,7
1501936391404680,7,3,10,107,13,9,4,1
1501936391419675,-22,-2,3,24,-5,-9,-3,-17
1501936391419675,-2,-3,-17,-20,0,2,-4,13
1501936391420652,-2,1,-13,-36,5,-1,1,3
1501936391420652,-1,2,12,9,-9,-5,-3,1
1501936391466713,3,-1,0,-4,-2,-2,0,4
1501936391466713,-2,-1,-9,-74,-15,1,3,-12
1501936391466713,0,-1,-17,113,21,1,1,3
1501936391466713,5,0,-3,-44,-3,5,-1,27
1501936391472639,-6,-1,4,2,1,-11,-7,-48
1501936391472639,-5,-1,1,44,7,6,0,-14
1501936391473638,3,7,28,-11,-12,0,1,-1
1501936391473638,-2,-7,-23,-18,-8,-5,-3,-5
1501936391479709,20,4,8,-16,0,1,0,28
1501936391479709,-10,-4,-1,74,-12,-6,-3,-14
1501936391480637,15,0,-8,23,21,10,6,12
1501936391480637,-16,3,34,87,11,-6,-2,-40
1501936391494690,2,-2,-1,-25,-22,-8,-4,9
1501936391494690,-13,-2,-6,87,17,13,2,-17
1501936391494690,17,2,10,-109,-49,-12,-2,13
1501936391494690,9,3,-2,-14,-7,7,4,19
1501936391525698,-25,-10,-12,-28,-15,-7,-7,3
1501936391525698,9,4,24,105,49,-5,-3,-10
1501936391526674,-12,-3,4,32,-9,-6,-5,-12
1501936391526674,-3,2,-3,-3,0,2,-1,-9
1501936391540710,1,2,12,-57,4,1,1,-8
1501936391540710,3,-4,-19,-75,0,-3,-3,8
1501936391541644,-6,2,27,57,25,11,0,0
1501936391541644,-4,-6,-23,-64,-71,-24,-9,-11
1501936391553684,6,0,15,64,19,5,-1,26
1501936391553684,-13,-3,-23,-11,-6,-6,1,21
1501936391561686,5,4,-14,-53,-6,4,2,-12
1501936391561686,-13,-9,-14,-23,14,6,-2,-2
1501936391576709,16,1,-2,47,2,-14,-2,1
1501936391576709,6,-1,-3,-22,-5,12,0,8
1501936391591706,-33,-6,-26,-100,-34,-5,-4,-34
1501936391591706,51,0,-29,-68,17,0,0,85
1501936391599684,-17,-1,13,39,5,2,0,-34
1501936391599684,-1,-1,13,-4,-10,-4,0,4
1501936391600645,19,-2,-17,-44,-5,-5,-3,13
1501936391600645,-10,4,14,85,39,11,2,-22
1501936391613688,-4,-9,-29,-44,-30,-4,-3,-14
1501936391613688,-9,-4,-14,-1,6,-10,-3,-10
1501936391621687,10,6,23,0,-8,-5,-1,-19
1501936391621687,8,-4,-18,-17,-2,4,1,6
1501936391636688,-18,-3,-1,-42,-1,0,-3,-33
1501936391636688,-2,-3,-2,-33,-13,0,-2,-22
1501936391637647,-4,-4,-24,1,13,3,2,10
1501936391637647,-8,0,13,-64,-16,-13,-5,-36
1501936391668669,9,1,-13,0,8,4,3,22
1501936391668669,-11,-2,-5,-59,-15,-4,-7,-8
1501936391668669,7,2,26,-20,-2,-13,-4,-28
1501936391668669,-32,-2,8,50,22,21,6,-13
1501936391682717,13,8,38,26,18,4,1,17
1501936391682717,7,1,8,80,3,-1,-2,5
1501936391683659,-2,-3,-5,34,6,-9,-3,-21
1501936391683659,-30,-3,-2,46,0,2,-4,-33
1501936391696689,0,-1,-3,-39,-5,-3,2,1
1501936391696689,5,3,8,22,-8,-2,2,9
1501936391697650,-19,-1,-9,-32,-8,3,-5,-21
1501936391697650,16,3,19,-15,5,0,3,11
1501936391719691,-6,-7,-19,27,23,-3,5,51
1501936391719691,1,5,17,16,-40,-4,-3,-31
1501936391720652,18,0,-11,-41,10,7,3,36
1501936391720652,-17,-4,-22,-65,-30,-11,-7,6
1501936391749699,11,-2,-18,-62,-17,0,1,-3
1501936391749699,9,4,11,8,24,-1,2,12
1501936391750657,-21,-3,7,50,-28,4,1,7
1501936391750657,17,-3,13,47,22,-12,-4,0
1501936391756700,10,-2,-13,9,-14,0,-6,-4
1501936391756700,0,-11,-35,-43,17,9,10,57
1501936391757654,-23,3,22,118,-5,-2,-5,-76
1501936391757654,19,2,3,-3,-5,-2,-4,12
1501936391803719,-5,-4,-7,13,-11,-13,-5,-29
1501936391803719,4,5,-5,-36,1,9,-5,-16
1501936391804689,4,-1,27,120,42,3,9,43
1501936391804689,-2,-1,-23,21,-11,-10,-5,-13
1501936391806665,-2,2,9,-5,0,5,1,24
1501936391806665,26,1,9,-46,3,3,4,20
1501936391809722,-29,-6,-14,57,23,-2,-13,-28
1501936391809722,-7,-2,19,42,1,-2,-6,-4
1501936391817670,-16,2,16,7,-11,0,6,-29
1501936391817670,12,-5,-10,-3,-7,4,2,12
1501936391824665,6,0,-4,-120,-18,-4,-7,10
1501936391824665,2,1,4,81,30,8,2,6
1501936391847672,1,-7,-11,39,-23,-7,-1,-14
1501936391847672,-11,-3,6,52,32,-4,-3,-1
1501936391848659,-11,-2,8,-5,-25,-22,-5,-6
1501936391848659,-10,-3,14,-28,-28,12,4,-17
1501936391869731,19,-2,-17,44,57,10,-1,48
1501936391869731,-14,-2,-12,63,17,-12,-7,-33
1501936391870683,-4,3,0,-35,-23,0,2,25
1501936391870683,0,4,17,62,-2,0,1,-4
1501936391876724,-18,-2,-6,-80,48,1,6,7
1501936391876724,6,-4,-1,29,-31,-16,-10,18
1501936391877693,11,-3,-15,-54,33,11,6,58
1501936391877693,3,2,9,64,39,4,6,18
1501936391899663,5,1,1,11,-9,11,-5,-17
1501936391899663,-19,-3,-1,0,-4,-5,2,-14
1501936391900663,22,-1,-19,-4,-26,-3,5,41
1501936391900663,-1,3,7,-19,1,1,1,1
1501936391922667,9,-4,-19,-128,-22,-2,-5,14
1501936391922667,6,5,11,-37,-18,-5,-6,-18
1501936391923663,1,-1,3,54,4,-1,0,-35
1501936391923663,8,-3,16,66,25,13,6,7
1501936391952733,-18,5,3,50,-6,-3,-3,-11
1501936391952733,24,-3,-26,-93,-24,-5,-3,7
1501936391953665,5,-3,3,-85,-15,5,5,3
1501936391953665,-6,2,14,-34,-28,-14,-8,-12
1501936391959711,10,-4,12,-70,1,-1,4,11
1501936391959711,-20,-5,5,-4,-15,-2,-2,-6
1501936391960665,9,5,4,13,22,-1,0,7
1501936391960665,1,-3,-22,-3,-22,2,2,-1
1501936391983667,6,4,4,21,-12,1,3,-12
1501936391983667,-15,3,9,87,37,2,-1,-39
1501936391983667,1,3,16,-57,-17,0,-3,-19
1501936391983667,-25,-8,-15,25,12,-9,0,-33
1501936391996702,15,0,7,116,19,-2,-12,21
1501936391996702,-24,-5,3,18,4,-4,-1,-4
1501936392004734,-4,3,-11,59,14,3,3,-24
1501936392004734,-4,-10,-43,-93,5,5,-1,10
1501936392027706,27,4,11,23,-4,-5,-1,-19
1501936392027706,-11,-3,5,2,-16,3,6,-4
1501936392028668,-9,-3,9,1,8,-4,-4,12
1501936392028668,8,-2,-1,-70,-25,-14,-2,32
1501936392049712,4,5,15,64,11,8,-2,6
1501936392049712,-22,-2,-13,-89,-33,2,1,-22
1501936392050676,12,-1,16,9,1,-6,2,53
1501936392050676,-8,-7,-28,-50,-30,-6,-5,-42
1501936392065716,-12,2,-1,-36,-8,0,-4,-11
1501936392065716,-18,-1,34,-28,47,14,-4,-37
1501936392066670,11,1,-8,53,-15,-1,1,27
1501936392066670,-11,0,12,82,10,-9,-4,3
1501936392079688,0,-4,0,29,-28,-2,-1,12
1501936392079688,6,7,4,42,33,12,11,17
1501936392079688,-6,-8,-24,-29,-2,-4,-5,3
1501936392079688,16,5,14,-58,-39,-16,-9,-17
1501936392102745,-13,-2,-1,29,22,12,4,-16
1501936392102745,20,2,-3,-38,-24,1,0,4
1501936392103678,2,0,-5,55,19,8,3,-10
1501936392103678,-3,2,12,38,22,-1,1,-14
1501936392116716,-7,-11,-32,-97,-25,-16,-4,4
1501936392116716,14,-5,-17,50,13,-3,0,29
1501936392124722,-4,0,6,-43,-22,-1,-3,-19
1501936392124722,5,-3,-22,54,35,11,-1,19
1501936392147675,23,0,-5,-55,-15,-4,0,4
1501936392147675,-5,2,1,15,-5,-5,-3,-37
1501936392148674,-2,-5,0,18,16,-7,-3,-15
1501936392148674,22,6,22,39,17,12,4,30
1501936392162711,-24,-4,-15,-76,-57,-7,4,-8
1501936392162711,2,0,7,77,-4,-2,-3,8
1501936392163676,1,-5,-30,-33,2,-2,-3,-19
1501936392163676,-10,2,15,32,12,-2,-1,0
1501936392176745,5,3,3,-48,-23,10,0,9
1501936392176745,-5,-5,-1,-18,12,-4,0,-8
1501936392177708,-1,-4,-14,46,5,4,-3,11
1501936392177708,-2,-4,-20,-114,-60,-8,-7,-27
1501936392199726,-3,-3,6,98,22,-8,-2,3
1501936392199726,2,-2,-11,-44,-31,-5,0,18
1501936392199726,-3,-5,0,-28,8,-2,-6,-15
1501936392199726,-7,-6,-36,-33,-8,-2,-1,9
1501936392230740,5,0,7,-19,3,-4,3,9
1501936392230740,1,-1,-2,-57,-19,-4,-3,-7
1501936392231681,-4,7,24,6,41,16,4,3
1501936392231681,4,-3,4,31,1,-12,-2,8
1501936392236743,6,-4,-16,-78,-18,-4,-3,-1
1501936392236743,-16,-4,-26,-20,-6,4,2,11
1501936392237681,0,0,4,-25,0,-1,-2,1
1501936392237681,3,4,5,-30,-15,-18,-3,-3
1501936392259723,-2,2,21,59,21,21,5,3
1501936392259723,8,-2,-6,-21,-10,-9,-4,6
1501936392266724,-15,-2,-4,17,-6,-2,2,-6
1501936392266724,-9,-2,-10,-30,10,4,-2,-4
1501936392282686,-14,-2,29,82,21,-8,-3,-15
1501936392282686,-5,-7,-34,-59,-7,-5,-7,14
1501936392296754,-9,1,-11,-63,-19,-6,-3,-54
1501936392296754,-11,-2,7,54,23,9,-1,-12
1501936392306687,-2,4,5,-25,-1,-3,-2,-11
1501936392306687,13,4,17,115,47,8,-1,-8
1501936392307688,-4,-15,-24,-30,-68,-23,-6,12
1501936392307688,3,2,3,-5,5,8,6,1
1501936392319695,-19,-3,-14,-16,17,3,-2,-14
1501936392319695,4,-2,11,53,-3,-11,-5,-1
1501936392319695,1,0,-1,40,20,0,2,11
1501936392319695,4,0,1,-16,-11,13,3,4
1501936392351725,1,0,3,-9,26,-13,-5,-4
1501936392351725,-5,-3,8,-13,-8,13,1,-1
1501936392351725,0,6,12,77,27,9,6,3
1501936392351725,-6,-2,12,-106,-36,-7,-3,-13
1501936392364702,11,-2,-4,86,8,-3,-2,10
1501936392364702,-21,-5,-18,-38,1,-8,-4,-13
1501936392371748,-1,0,-11,-2,0,-4,3,-3
1501936392371748,5,2,17,32,19,7,-1,10
1501936392379736,1,0,12,-18,-36,-7,1,6
1501936392379736,0,-4,4,29,0,-12,-5,-4
1501936392379736,4,3,16,-68,-12,6,-2,9
1501936392379736,4,3,-5,32,16,-4,1,17
1501936392402731,-28,-6,-14,-37,17,0,-9,-60
1501936392402731,7,7,49,52,0,0,3,8
1501936392403709,-1,-7,-9,27,36,-8,-3,1
1501936392403709,-15,-7,-25,-6,-27,9,-1,-14
1501936392424694,0,2,-5,3,14,7,2,9
1501936392424694,1,0,6,-6,-18,-10,0,2
1501936392425699,-4,-1,-10,78,18,9,-1,-10
1501936392425699,13,-4,-2,26,2,-11,-4,16
1501936392439702,-1,0,-12,-60,-35,1,4,21
1501936392439702,-1,-5,-13,-7,-9,1,-4,-24
1501936392440692,11,5,30,22,23,2,-2,17
1501936392440692,3,-5,-20,1,-24,-11,-4,11
1501936392462757,18,4,6,-76,-1,11,5,24
1501936392462757,-14,0,1,-31,12,5,3,-17
1501936392463700,-2,-3,-18,-84,-8,0,4,-1
1501936392463700,-5,7,14,-55,4,4,-5,-11
1501936392475694,-5,-11,-36,97,15,-28,-10,-2
1501936392475694,11,-1,-22,-84,-43,9,3,27
1501936392484757,-8,1,11,20,5,3,2,3
1501936392484757,-4,4,10,-31,-7,3,-1,-46
1501936392499709,-13,-2,2,62,36,-3,-4,-9
1501936392499709,1,4,8,-52,-27,-5,1,-3
1501936392499709,8,-11,-20,-10,-21,-6,-6,16
1501936392499709,-8,-5,-2,30,16,-5,2,14
1501936392521768,16,1,0,-15,-40,-7,-1,18
1501936392521768,-17,-1,-9,-19,15,9,2,-20
1501936392529738,6,3,3,-25,-11,2,-1,-3
1501936392529738,-1,-2,0,24,1,-1,0,4
1501936392536725,12,0,6,-2,4,7,2,7
1501936392536725,-6,-4,-16,10,-7,-10,-4,-34
1501936392544739,13,0,6,19,-36,-4,-1,2
1501936392544739,-7,2,13,-30,23,-10,-2,0
1501936392559736,-6,-8,-23,17,9,18,9,14
1501936392559736,14,2,8,-49,-20,-5,-8,-14
1501936392559736,-5,2,7,30,0,3,-1,-11
1501936392559736,-2,-1,23,65,5,0,1,-4
1501936392583708,1,1,3,70,11,0,-2,2
1501936392583708,4,-3,-1,12,4,-2,0,23
1501936392584710,-14,-5,-9,10,-27,-6,-2,-23
1501936392584710,2,6,-2,18,15,11,5,7
1501936392595771,7,1,10,-63,-37,-6,0,10
1501936392595771,-18,-9,-23,21,22,-4,-5,-17
1501936392604736,6,1,-4,14,10,0,-2,1
1501936392604736,-2,-1,-6,-54,-10,0,0,-11
1501936392619758,-3,-2,1,-85,-33,-3,-4,-10
1501936392619758,2,0,-13,15,8,-5,1,12
1501936392619758,-4,1,19,-14,-15,-2,-2,1
1501936392619758,1,-8,2,75,18,2,0,-2
1501936392643722,-21,-1,-7,27,13,-5,-5,-19
1501936392643722,7,5,15,47,16,2,-1,9
1501936392644704,-17,-4,-3,-28,-15,2,-1,-6
1501936392644704,-2,-2,-12,-78,-34,1,0,3
1501936392655767,0,-3,22,67,4,-1,0,-7
1501936392655767,-10,-1,7,24,10,-5,-4,-19
1501936392664740,8,3,13,19,12,4,2,0
1501936392664740,-20,-4,-18,-51,-11,-14,-4,-23
1501936392679735,-4,5,11,-27,3,0,2,15
1501936392679735,17,-2,-12,85,10,2,1,13
1501936392679735,-10,-1,-6,-47,14,3,1,1
1501936392679735,-6,-3,8,96,3,-13,-5,-9
1501936392702774,0,3,12,-57,-7,-1,-2,-15
1501936392702774,7,2,-4,113,64,25,8,13
1501936392703707,2,-2,-11,-107,-46,-17,-4,27
1501936392703707,18,4,16,24,-5,7,-1,-2
1501936392716725,-22,-9,-36,-35,17,-2,-2,-8
1501936392716725,20,4,22,4,22,1,-1,26
1501936392724717,-10,-1,16,78,1,0,0,-26
1501936392724717,3,-5,-36,-70,-33,-10,-1,6
1501936392739725,17,4,12,38,20,5,-1,0
1501936392739725,8,-2,-8,-77,-23,-3,0,-1
1501936392739725,-13,-2,-1,51,8,-2,-1,-8
1501936392739725,-4,-2,9,67,31,2,-3,3
1501936392762750,3,-3,-23,-67,-25,-4,-4,-13
1501936392762750,-1,1,12,-50,-15,-2,6,13
1501936392763709,5,-2,-29,36,13,3,-2,-10
1501936392763709,3,-3,-22,-104,-44,-5,-2,5
1501936392784749,2,-1,6,-35,-1,7,0,13
1501936392784749,-1,0,24,66,-7,-9,0,14
1501936392785745,10,-6,-46,-78,-16,0,-2,11
1501936392785745,-11,-1,8,98,11,-5,1,8
1501936392799726,0,3,7,72,13,5,2,-3
1501936392799726,-1,3,-8,-10,-6,-5,-2,0
1501936392799726,11,-3,3,33,-15,-1,0,4
1501936392799726,-17,3,13,46,19,0,-2,-23
1501936392831715,-4,-11,-26,-89,-38,-13,-3,-13
1501936392831715,-28,0,0,14,-14,0,-3,-41
1501936392832716,16,6,21,27,27,2,1,14
1501936392832716,1,-1,14,42,13,5,-3,-1
1501936392861726,-2,3,17,-14,-19,-7,-1,6
1501936392861726,-7,-5,-5,-43,5,1,-3,-12
1501936392861726,-8,-2,-11,-48,9,3,-2,-17
1501936392861726,1,1,5,-16,-11,-18,-4,24
1501936392863715,-4,-3,-11,13,13,20,3,-20
1501936392863715,4,3,12,-33,-8,0,-1,14
1501936392866777,-3,-4,0,22,2,-5,-2,-10
1501936392866777,13,2,-3,6,22,4,1,4
1501936392882779,-12,0,-2,25,6,-5,-2,-4
1501936392882779,-3,-5,-8,17,-20,-9,-3,-3
1501936392883716,10,-2,-11,-1,-13,-1,-1,1
1501936392883716,-30,-5,-1,-53,10,-2,-5,-25
1501936392904783,2,-2,13,113,9,5,1,9
1501936392904783,-1,-2,-22,1,-2,0,-1,-8
1501936392905721,-8,1,-5,64,54,1,-2,2
1501936392905721,35,-5,-11,-117,-52,-6,0,23
1501936392919759,-31,-1,2,78,3,-5,-3,-37
1501936392919759,0,-1,0,56,21,3,-2,20
1501936392920718,2,2,14,-72,-19,-18,-5,0
1501936392920718,16,-2,-28,4,14,23,5,9
1501936392942786,-2,2,15,7,11,5,3,7
1501936392942786,7,-2,-1,57,2,-7,0,8
1501936392943743,-9,-5,-7,-128,-69,-4,-4,12
1501936392943743,2,-1,6,94,9,-8,-4,-17
1501936392972760,11,1,-4,-60,-24,-6,-3,11
1501936392972760,-1,-3,2,-46,-2,-1,0,-3
1501936392973727,-6,-5,3,76,21,-4,-4,-14
1501936392973727,-7,4,11,-26,-3,5,2,5
1501936392979722,4,-2,-11,42,-16,-4,-2,15
1501936392979722,-4,-1,1,8,2,-3,-1,-4
1501936392979722,1,3,0,-29,16,10,5,12
1501936392979722,-2,0,18,105,-7,-17,-3,-10
1501936393002765,2,0,-1,60,40,7,0,-16
1501936393002765,-7,0,8,15,9,15,3,19
1501936393003729,4,0,6,67,0,-2,6,37
1501936393003729,-3,-4,-12,6,14,1,0,1
1501936393024765,3,1,10,-20,6,-6,-2,-5
1501936393024765,-1,2,22,57,15,-3,-4,-7
1501936393025731,2,-3,-19,-98,-55,-1,-1,-4
1501936393025731,-2,-1,7,37,13,-1,-1,2
1501936393039767,3,-2,-7,16,-9,-4,1,8
1501936393039767,6,-4,-14,-20,-19,-5,-3,13
1501936393054792,-8,6,21,-48,33,12,3,-14
1501936393054792,-15,-1,13,3,-4,0,-2,0
1501936393062791,2,0,3,-9,6,-8,-4,-5
1501936393062791,-6,-9,-26,-68,-23,0,-3,-8
1501936393063726,-6,5,27,45,7,-2,-1,-16
1501936393063726,-1,-4,-9,-46,20,3,0,3
1501936393084785,-3,-3,5,-2,5,-10,-3,-3
1501936393084785,3,3,8,-17,14,7,0,0
1501936393085741,2,-3,16,76,-1,-1,1,3
1501936393085741,13,-1,-27,-76,-4,8,0,-21
1501936393114789,-5,-2,-7,25,-1,-4,-3,13
1501936393114789,4,-2,-11,-58,-6,-13,-4,-11
1501936393122769,10,2,6,29,2,2,1,0
1501936393122769,-5,-2,-3,-3,3,6,-4,-8
1501936393137772,1,4,7,-7,-15,-2,-1,7
1501936393137772,-9,-7,-6,-13,-20,-5,-2,-9
1501936393138732,-5,-3,-13,-46,15,-3,-3,-1
1501936393138732,3,0,4,31,6,3,3,11
1501936393144797,9,2,-7,-2,2,4,3,2
1501936393144797,-13,-2,5,-10,-23,-6,-2,3
1501936393145749,7,1,4,-32,-6,-6,-3,6
1501936393145749,4,-3,11,25,17,1,0,1
1501936393159742,-4,2,-2,14,1,11,4,-12
1501936393159742,8,3,13,-2,5,3,4,7
1501936393159742,-3,3,3,44,19,1,-1,1
1501936393159742,-10,0,4,12,-31,-7,-2,3
1501936393184765,27,-11,-41,-92,-40,-19,-7,2
1501936393184765,-11,3,18,42,24,8,3,-35
1501936393185764,-16,-5,-37,28,11,4,-1,-11
1501936393185764,-3,2,7,53,-8,-4,-2,2
1501936393205784,-4,0,8,-33,-18,4,1,6
1501936393205784,18,-8,-13,9,-11,-26,-8,10
1501936393205784,-6,1,3,38,5,13,1,-6
1501936393205784,4,1,5,6,12,-2,1,-8
1501936393218744,-10,-3,2,-4,-2,-1,-2,2
1501936393218744,6,0,-23,-4,-6,0,-1,8
1501936393219767,-5,2,17,109,16,5,4,-2
1501936393219767,2,0,-3,-60,-7,0,-2,4
1501936393257770,-5,4,20,77,33,1,-3,-15
1501936393257770,-4,-2,-11,-6,-15,-7,-5,-2
1501936393258736,5,-4,-5,-37,-17,-5,-1,-1
1501936393258736,-4,-7,-18,-36,-20,-6,-2,4
1501936393264775,5,2,8,-43,10,-2,1,1
1501936393264775,0,6,20,73,27,18,6,5
1501936393266737,0,-4,-12,-83,-52,-11,-7,-5
1501936393266737,-6,3,21,-26,4,-4,-2,-15
1501936393279778,-8,-12,-30,-69,-57,-12,-4,0
1501936393279778,14,1,10,38,-5,0,0,26
1501936393286759,-13,0,5,53,41,13,4,-25
1501936393286759,6,2,5,81,2,-1,-1,13
1501936393309755,20,2,-2,-37,-18,-10,-3,12
1501936393309755,-22,-6,-13,-10,-4,8,0,-10
1501936393310740,2,-3,-25,27,12,-13,-3,-1
1501936393310740,4,-3,-19,-25,-4,11,1,6
1501936393341751,-3,0,10,38,40,3,3,15
1501936393341751,-6,-3,-28,-65,-10,-3,-3,-28
1501936393341751,10,4,-2,61,7,1,0,8
1501936393341751,-11,-5,-3,-17,-11,-10,-1,6
1501936393343774,1,2,7,14,7,9,1,-6
1501936393343774,-10,-1,6,-2,-5,-6,-1,0
1501936393346810,-9,-4,-1,-11,-6,-8,-4,-12
1501936393346810,9,5,-15,50,17,7,4,10
1501936393362785,-10,-2,6,-46,-25,3,-1,-9
1501936393362785,9,3,15,27,-16,-7,-4,-3
1501936393363762,-3,-7,-10,-5,4,-17,-4,2
1501936393363762,3,1,2,2,-24,13,-2,-6
1501936393391787,-20,0,11,64,14,4,-1,-28
1501936393391787,-2,-2,1,-3,-5,-6,-1,-1
1501936393416754,11,0,4,-38,-5,-3,-1,21
1501936393416754,0,4,10,-45,10,0,4,8
1501936393417758,4,1,1,-38,3,6,-1,-6
1501936393417758,-7,-7,-26,-72,-13,-3,-4,-5
1501936393418748,-4,-8,-19,41,9,-3,-2,21
1501936393418748,14,2,14,34,9,-5,0,15
1501936393423775,-6,-3,-17,-11,9,-1,-1,-11
1501936393423775,4,4,17,67,0,6,2,11
1501936393424750,-3,2,10,-31,-2,4,-1,-7
1501936393424750,1,1,-3,58,-9,-2,0,-1
1501936393459766,5,-8,-20,67,-25,-15,-3,5
1501936393459766,9,5,22,27,13,-6,1,-2
1501936393460749,-45,-8,-3,34,2,6,-5,-31
1501936393460749,-6,0,-1,9,4,7,2,-10
1501936393468783,0,-1,-8,-49,-11,-3,0,13
1501936393468783,1,-2,-4,26,3,-5,-1,-15
1501936393469750,8,0,-2,-22,-8,4,-1,-7
1501936393469750,-5,-3,4,-6,18,-4,-2,-6
1501936393490819,-11,-1,9,33,24,-5,-1,-2
1501936393490819,-4,-1,-10,48,-8,4,-1,1
1501936393491752,27,5,12,20,-4,4,2,15
1501936393491752,-18,-3,0,-40,4,0,-2,-15
1501936393504794,7,2,-17,-64,-6,3,0,1
1501936393504794,1,1,11,-20,7,0,-1,5
1501936393511794,-8,-4,-4,1,-10,-8,-3,-5
1501936393511794,3,0,3,55,14,-1,-3,0
1501936393527775,-8,-6,-10,-37,-14,0,-3,-8
1501936393527775,13,-2,-12,-68,14,9,3,-1
1501936393527775,-9,7,12,7,-5,3,3,-3
1501936393527775,-2,-6,-28,-88,-42,-12,-6,-10
1501936393542821,-3,-3,-17,-29,1,-10,-4,8
1501936393542821,17,2,1,-5,3,4,1,19
1501936393543754,0,-7,0,-49,24,-4,-4,-20
1501936393543754,-6,-2,0,-41,-35,-5,3,13
1501936393565799,7,4,7,34,7,7,2,2
1501936393565799,-5,-4,3,7,-5,-2,-3,0
1501936393566756,10,5,-1,-37,-4,-4,0,-5
1501936393566756,-6,-6,-19,-9,6,3,-2,-7
1501936393587795,2,1,7,-26,3,-1,0,13
1501936393587795,-10,3,23,67,27,3,-2,-18
1501936393589755,1,-1,-3,24,-11,-8,-1,7
1501936393589755,0,-3,-3,-8,1,9,-1,0
1501936393601798,0,2,-2,76,10,8,3,-4
1501936393601798,-7,-3,-3,-101,-16,-11,-4,-2
1501936393617768,11,-2,-22,-41,-15,2,2,11
1501936393617768,2,0,12,-35,-2,-8,-5,-6
1501936393646823,-14,0,-2,0,15,-4,0,0
1501936393646823,-10,-9,-21,38,9,-1,-4,-2
1501936393656758,4,6,1,-85,-37,7,2,-11
1501936393656758,-6,0,4,109,12,-7,-1,9
1501936393657759,-5,1,11,7,-11,-4,-2,-12
1501936393657759,4,-1,-4,39,15,1,0,4
1501936393662804,-3,-4,-8,-49,0,5,0,3
1501936393662804,5,6,17,48,9,-3,-1,5
1501936393663758,4,-6,-5,8,-6,-3,-6,-5
1501936393663758,-9,3,4,-52,-4,0,3,-2
1501936393665760,1,0,16,109,27,7,-2,1
1501936393665760,-4,-7,0,-48,-10,-5,-1,-3
1501936393692826,-4,-1,14,23,-8,-7,-1,-2
1501936393692826,0,-1,-3,-28,-23,-10,0,4
1501936393694761,-9,-1,3,-5,-3,5,-1,10
1501936393694761,4,-1,-13,-49,-2,-3,-3,-3
1501936393698800,1,1,3,51,17,10,1,-6
1501936393698800,0,1,5,-34,-13,-4,-1,0
1501936393713802,14,-7,-30,21,-2,-3,-3,5
1501936393713802,-7,-5,-18,-128,-22,-9,0,-3
1501936393737809,2,5,7,18,13,9,2,7
1501936393737809,3,-2,-13,35,-3,2,1,-16
1501936393738765,-15,-1,24,126,15,-8,-3,-4
1501936393738765,-3,-12,-46,-63,-8,0,-3,-6
1501936393744804,8,2,9,29,-17,-3,-4,-14
1501936393744804,2,-1,-15,-97,-9,-6,0,6
1501936393746774,1,4,18,57,-5,3,0,-3
1501936393746774,-3,3,1,-16,-3,0,0,-3
1501936393767812,-7,-8,-9,34,5,-14,-5,1
1501936393767812,-8,1,3,16,-14,13,-1,-4
1501936393769765,5,1,-7,41,17,-2,3,1
1501936393769765,-4,-1,7,56,-1,5,-1,-2
1501936393789766,-7,0,7,-24,4,-5,0,2
1501936393789766,10,3,30,96,21,-1,2,24
1501936393791777,-14,-7,-25,-100,-24,-7,0,-20
1501936393791777,11,2,16,84,2,-3,-4,-2
1501936393804806,-2,-3,-12,-74,-11,6,1,0
1501936393804806,-7,-4,2,90,29,-11,-2,9
1501936393806768,-1,-2,11,23,-10,0,-5,-3
1501936393806768,-1,3,7,48,-1,6,2,-1
1501936393827809,0,-2,6,86,14,-1,0,0
1501936393827809,-1,1,-14,-107,-24,-5,-2,-5
1501936393828778,8,-2,-16,-13,-1,-2,-2,7
1501936393828778,5,2,23,18,3,-1,0,1
1501936393842808,-13,-1,1,-17,9,6,-1,-3
1501936393842808,1,-3,-2,-77,-18,-2,-2,-15
1501936393844785,-12,0,2,-25,15,-4,-2,6
1501936393844785,11,6,12,30,-10,0,1,-5
1501936393864828,3,-4,3,30,10,-6,1,1
1501936393864828,-9,-4,-24,-21,-30,5,-1,-3
1501936393866803,-5,-2,-1,-39,-6,-8,-2,0
1501936393866803,1,2,4,-16,11,-2,-1,3
1501936393886836,-1,1,-3,-25,-5,6,-3,-10
1501936393886836,-12,-5,-9,-2,9,6,1,-13
1501936393894789,8,0,-1,29,18,3,1,6
1501936393894789,-8,-2,-6,-59,-20,-2,-4,-10
1501936393902837,6,1,1,90,3,-5,-2,4
1501936393902837,5,4,7,-57,-11,7,3,7
1501936393903774,-3,2,23,-16,4,-4,2,2
1501936393903774,-8,-7,-20,15,10,-4,-4,-2
1501936393948841,-1,-2,-4,-85,0,0,-2,-3
1501936393948841,0,2,14,49,-11,-3,-6,5
1501936393950788,4,0,-23,-33,-9,-6,-4,-5
1501936393950788,-6,-5,-5,-19,5,-3,-1,-8
1501936393950788,5,5,18,29,-3,9,4,7
1501936393950788,-10,-2,-28,2,27,1,-1,0
1501936393971795,4,-5,19,-41,8,-5,-7,-4
1501936393971795,2,5,6,32,2,3,4,5
1501936393971795,2,-3,-16,-65,-8,-3,-3,0
1501936393971795,1,3,23,23,12,12,5,-1
1501936393973776,-6,-2,-8,10,-5,-3,-3,-6
1501936393973776,0,-2,-11,-30,6,4,0,4
1501936393985819,-9,-7,0,-2,-16,-12,-4,-5
1501936393985819,3,0,3,19,5,-10,-4,-1
1501936393986779,7,0,2,-22,2,8,4,7
1501936393986779,-8,-5,3,72,28,1,-2,-6
1501936394023816,19,2,-3,21,-26,-9,-1,5
1501936394023816,-22,-1,0,-42,1,-4,2,-2
1501936394029823,-2,-8,-36,-22,-29,2,-5,-13
1501936394029823,-16,1,0,-35,-1,-13,-6,-5
1501936394046795,-5,-4,-5,-16,10,16,5,4
1501936394046795,-3,-4,-6,3,-2,0,-5,-33
1501936394047790,-6,-1,-5,-29,16,4,0,0
1501936394047790,6,-2,-4,-38,-24,-14,-2,9
1501936394048794,-5,-2,-11,59,19,-2,-3,-2
1501936394048794,5,-3,-9,-38,-34,-6,-3,7
1501936394052782,-1,1,6,-9,-12,0,1,6
1501936394052782,5,-2,-8,-1,-2,3,-2,-6
1501936394067834,-4,-2,0,-24,3,2,-2,0
1501936394067834,6,-2,5,32,2,-3,-1,4
1501936394068783,2,3,17,-35,-60,-11,-1,5
1501936394068783,-1,-5,-20,4,-3,2,1,4
1501936394089827,-2,-1,1,69,9,0,1,-2
1501936394089827,11,-3,-23,-48,-26,6,2,5
1501936394098791,-12,-1,21,41,5,-8,-1,-4
1501936394098791,6,-1,-17,-19,7,9,-2,8
1501936394105824,-9,-6,-19,3,-42,-26,-7,-15
1501936394105824,1,1,-1,38,23,7,0,1
1501936394110859,-3,0,6,70,13,3,2,-2
1501936394110859,-3,4,18,-16,-23,0,3,6
1501936394127853,-2,0,-2,-46,7,4,0,1
1501936394127853,-1,-2,11,65,12,-6,-4,0
1501936394128794,5,1,-2,19,3,1,-3,1
1501936394128794,-3,-3,12,-29,-7,-7,-2,1
1501936394141829,4,6,2,-3,-9,9,-1,-2
1501936394141829,-7,0,4,27,0,-4,0,2
1501936394165828,7,1,6,-42,7,-7,-2,3
1501936394165828,-1,-6,-22,-5,3,7,1,5
1501936394166820,-1,0,8,12,-14,4,0,2
1501936394166820,7,1,11,-18,-6,-2,-2,-1
1501936394168789,-4,-1,-14,-10,19,-2,-1,-3
1501936394168789,6,5,24,70,-13,-6,-1,0
1501936394187833,-4,-1,12,-26,20,-2,-1,0
1501936394187833,-2,-3,-10,10,5,0,-3,-3
1501936394188791,4,1,-3,-9,1,0,-1,2
1501936394188791,-10,-2,-7,11,3,3,-2,-11
1501936394201833,-3,-1,-4,-107,-19,-5,1,4
1501936394201833,-5,-3,-8,-27,6,2,0,-4
