timestamp,emg1,emg2,emg3,emg4,emg5,emg6,emg7,emg8
1501935758181944,-1,-4,-31,21,-31,-1,-3,-2
1501935758181944,1,3,-2,35,-6,-2,1,3
1501935758182980,-1,-3,-27,-45,-39,2,1,0
1501935758182980,-2,-4,28,32,37,3,0,-3
1501935758186989,0,6,37,-51,-80,-15,-3,-1
1501935758186989,-2,-15,-47,44,35,9,2,-2
1501935758188960,2,7,39,20,9,-1,-4,-5
1501935758188960,12,-1,-50,17,1,30,9,8
1501935758192984,-11,-1,62,-66,-15,-28,-4,-1
1501935758192984,-6,-12,-56,-111,-31,-11,-12,-9
1501935758200957,4,3,22,73,29,10,6,5
1501935758200957,-4,-1,5,8,-40,-4,-1,-3
1501935758215968,-6,1,-13,-5,24,13,3,0
1501935758215968,16,3,17,-15,17,-9,0,6
1501935758222983,-35,-23,-74,-4,4,-14,-4,-4
1501935758222983,-7,2,16,-116,-6,-13,-14,-10
1501935758230958,32,4,-32,127,53,22,10,6
1501935758230958,-9,9,44,-29,-50,-7,0,2
1501935758253991,9,3,-20,-5,-43,-8,-1,2
1501935758253991,0,3,23,-62,18,-7,-2,-1
1501935758255949,-13,-12,-39,-37,-13,-8,-6,-4
1501935758255949,13,14,26,-19,25,17,4,1
1501935758301967,-13,-17,-15,83,-72,-37,-10,-6
1501935758301967,-7,-7,11,36,30,-10,-6,-6
1501935758302955,1,6,29,55,37,6,0,-3
1501935758302955,1,3,-5,60,-21,1,5,3
1501935758305994,1,1,6,57,58,8,-2,-3
1501935758305994,4,3,-18,-90,-32,-4,3,1
1501935758306995,-3,-8,-21,87,43,16,3,2
1501935758306995,-5,0,20,-55,-40,-20,-7,-3
1501935758312966,-2,-1,-17,-30,17,7,1,0
1501935758312966,2,5,17,109,8,4,1,0
1501935758319995,9,7,-11,-94,-20,11,4,1
1501935758319995,-12,-18,-11,86,78,-12,-9,-9
1501935758328966,-7,-12,-77,14,-22,-12,-5,-2
1501935758328966,-4,0,24,-94,-54,-9,-4,0
1501935758342979,0,2,-3,-33,1,-1,1,1
1501935758342979,3,2,0,36,24,11,-1,-2
1501935758351957,-3,-3,10,-67,-30,-14,-2,-1
1501935758351957,0,-2,-10,1,24,13,1,0
1501935758373999,-9,-9,-14,78,-19,-12,-4,-3
1501935758373999,12,9,-9,-4,7,19,5,4
1501935758375958,5,18,98,-86,77,13,6,0
1501935758375958,-5,-10,-2,-14,8,-6,-7,-6
1501935758388002,0,1,3,46,-25,-4,2,-3
1501935758388002,-6,-13,-57,-54,-57,-23,-2,1
1501935758395017,1,0,-25,-2,-23,7,-1,-3
1501935758395017,1,0,-13,75,37,7,0,-2
1501935758410986,0,0,13,17,0,-10,-6,-1
1501935758410986,2,5,19,-32,20,15,3,-1
1501935758412960,-1,-5,12,3,1,2,-4,-4
1501935758412960,1,-3,-47,-18,-37,-9,3,-1
1501935758434006,-9,-3,20,1,16,-4,-4,1
1501935758434006,-7,-14,-33,23,-37,-9,-5,-6
1501935758434975,-5,-11,-31,-1,-19,-9,-5,-4
1501935758434975,4,10,40,66,19,9,3,3
1501935758447974,0,-6,-32,-128,-27,0,-3,-1
1501935758447974,2,7,31,111,20,9,1,0
1501935758455023,5,11,41,56,3,7,6,9
1501935758455023,7,7,-13,-120,0,7,7,6
1501935758470999,3,5,13,-60,-54,-8,-2,1
1501935758470999,-5,2,46,66,39,3,-1,0
1501935758472996,-4,-13,-56,-83,-95,-19,-5,-1
1501935758472996,-2,-2,-10,30,-13,0,-1,1
1501935758494003,3,2,15,6,25,-1,1,1
1501935758494003,3,7,13,-27,10,6,0,2
1501935758494966,0,2,20,86,38,8,1,-3
1501935758494966,-1,2,-2,-7,-14,-2,-4,-1
1501935758508008,-2,-2,-18,-65,-22,-7,1,0
1501935758508008,-3,-4,-9,-128,-30,-5,-2,-3
1501935758515036,2,5,23,-28,13,1,-1,-1
1501935758515036,1,-5,-6,-61,-10,-5,-5,0
1501935758531011,-5,-5,10,84,16,-1,-3,-6
1501935758531011,0,-2,-13,14,-3,-4,-2,-1
1501935758532968,5,8,17,-8,15,17,4,1
1501935758532968,-4,-4,7,127,38,2,-1,-2
1501935758554005,-8,-11,-10,-32,-30,-12,-10,-11
1501935758554005,-2,-2,11,51,-13,-10,1,2
1501935758554968,0,-5,-11,28,-16,-10,-2,-1
1501935758554968,-6,-7,-11,70,20,4,-3,-4
1501935758568012,0,2,-10,-71,-22,-9,0,2
1501935758568012,3,3,5,90,9,6,3,1
1501935758575039,-1,-1,6,16,-1,-2,-2,4
1501935758575039,-2,1,11,24,8,2,1,-1
1501935758591014,2,2,24,41,14,8,0,0
1501935758591014,2,7,27,-47,10,8,2,0
1501935758592969,-3,-2,-16,-62,8,0,-4,-7
1501935758592969,-13,-19,-6,21,-13,-24,-12,-8
1501935758614018,3,-1,-10,-48,1,1,2,2
1501935758614018,-2,-6,-32,-19,-16,-4,-3,1
1501935758614981,-2,0,4,24,28,8,-1,-9
1501935758614981,1,2,0,24,-3,2,-2,0
1501935758627981,-2,1,21,68,2,-7,-2,-1
1501935758627981,4,2,9,20,14,5,1,1
1501935758636017,-1,-2,-14,15,-4,-4,0,0
1501935758636017,5,7,-4,-13,12,12,6,2
1501935758651002,-6,-11,-24,25,-18,-6,1,-2
1501935758651002,-6,-6,2,79,22,-5,-4,-1
1501935758652974,0,3,16,-14,-13,2,-4,-2
1501935758652974,-4,-2,5,-128,-46,-11,1,-1
1501935758674042,1,4,21,2,33,7,-2,-3
1501935758674042,0,-2,-4,28,-4,-3,-3,-4
1501935758674979,-1,-2,-22,-37,-10,4,3,1
1501935758674979,-5,-8,-24,2,-7,-7,-3,-3
1501935758687016,2,4,8,21,15,4,1,1
1501935758687016,6,9,-8,-30,7,15,3,2
1501935758696019,-9,-20,7,30,-26,-24,-5,-2
1501935758696019,-4,11,12,18,-20,2,6,0
1501935758711020,2,-4,-23,-54,-20,-3,0,5
1501935758711020,-3,-1,-12,-41,-15,-4,-2,-1
1501935758712978,1,2,-8,68,13,4,1,1
1501935758712978,1,0,9,91,12,-6,-2,-3
1501935758734020,-2,-6,-3,39,-21,-3,-1,2
1501935758734020,-7,-7,-19,-128,-54,-10,-5,-5
1501935758734986,1,0,-34,-2,7,5,3,2
1501935758734986,-5,-8,9,-5,-9,-9,-6,-3
1501935758747994,-2,0,-8,30,15,3,1,-1
1501935758747994,3,1,-7,-32,7,4,1,0
1501935758756980,-5,-6,5,28,13,-4,-3,-1
1501935758756980,2,0,-28,-93,-42,-5,1,2
1501935758771021,2,4,14,111,-5,7,-1,0
1501935758771021,-5,-4,-2,-41,-10,-8,-4,-5
1501935758772996,-1,0,-21,-46,8,-3,0,1
1501935758772996,-1,-4,4,-3,9,7,-2,-2
1501935758794026,0,3,12,-25,15,1,-1,-3
1501935758794026,2,2,19,6,9,1,3,3
1501935758794981,2,9,35,30,6,7,0,-1
1501935758794981,3,3,-9,1,37,13,0,-1
1501935758808000,-1,-4,-24,101,2,-7,1,0
1501935758808000,-1,-10,4,-6,9,-7,-6,-4
1501935758816984,-4,2,2,-2,-5,-2,-2,-1
1501935758816984,2,2,13,67,17,1,0,-1
1501935758831023,-2,-3,14,28,5,-5,-3,-4
1501935758831023,-1,3,-14,-45,8,9,-2,2
1501935758832990,4,5,19,-3,-1,3,3,0
1501935758832990,-4,-5,21,18,-2,1,-2,-3
1501935758854027,4,9,38,60,23,6,1,-1
1501935758854027,-2,0,3,21,-16,-7,-3,-2
1501935758854992,-6,-15,-59,-53,-11,-4,-4,-3
1501935758854992,-1,1,10,-3,-1,-7,-2,-1
1501935758868008,1,1,12,-3,-7,4,0,3
1501935758868008,-5,-1,16,29,4,-3,-2,-10
1501935758876036,6,8,15,35,1,7,2,4
1501935758876036,-3,-9,-60,-15,1,-2,-4,-4
1501935758891030,-5,-4,-14,-123,-23,-10,-3,-2
1501935758891030,4,5,16,31,10,3,3,3
1501935758893010,-7,-16,-31,62,-17,-6,-1,-7
1501935758893010,0,-2,-5,18,-39,-7,-1,-1
1501935758914054,-1,-1,-30,-6,6,2,-2,1
1501935758914054,-1,1,-2,-25,-18,-1,1,2
1501935758914989,7,11,40,105,39,7,2,-1
1501935758914989,-4,-7,2,-92,-4,-10,-3,-2
1501935758928008,0,0,4,-22,-23,-1,-2,0
1501935758928008,-6,-10,-17,-9,-9,-7,-5,-5
1501935758936035,0,0,-4,-100,-24,5,1,3
1501935758936035,1,-2,-11,104,13,0,-1,-1
1501935758952055,0,-2,-22,-18,-6,2,0,-1
1501935758952055,-1,-2,-11,58,4,-3,-1,-1
1501935758953002,0,2,31,-68,8,-2,-3,-3
1501935758953002,2,0,-28,-28,-34,-2,-1,2
1501935758974060,-1,2,9,24,20,7,1,-1
1501935758974060,-8,-11,9,41,-4,-18,-6,-2
1501935758975993,2,8,51,107,35,8,2,3
1501935758975993,-6,-4,-8,-15,-17,-7,-2,2
1501935758987029,-1,-2,-5,37,24,3,1,-3
1501935758987029,2,0,-18,4,9,6,2,2
1501935758996994,-3,-7,-14,3,-2,-6,-4,-3
1501935758996994,2,5,24,35,25,9,3,2
1501935759011026,2,-7,-18,-86,-21,-7,-6,-3
1501935759011026,-8,-4,-11,27,12,3,-2,-4
1501935759012995,-3,0,-4,-70,-31,-9,-3,-3
1501935759012995,2,4,21,55,17,5,1,0
1501935759034023,-4,-5,-8,-11,-22,-10,-3,-1
1501935759034023,3,-2,7,65,15,9,5,-4
1501935759034995,-1,-1,-3,-40,-12,-6,-5,-1
1501935759034995,5,7,25,39,24,10,3,0
1501935759047041,-11,-7,32,-81,1,-17,-6,-7
1501935759047041,5,9,16,-98,-12,5,1,5
1501935759056040,-4,-3,-10,104,-5,-7,-3,-1
1501935759056040,-1,2,0,86,18,4,1,-1
1501935759071064,1,-2,-27,-73,-32,1,1,5
1501935759071064,-6,-4,16,89,-6,-6,-3,-5
1501935759073000,2,-3,-15,-100,-9,-3,3,0
1501935759073000,-4,1,9,-71,-2,-1,-3,-3
1501935759094044,1,-1,-26,-35,16,5,0,-1
1501935759094044,3,2,-8,81,0,-3,4,4
1501935759095000,-7,-8,-14,-101,-13,-1,-6,-8
1501935759095000,4,5,15,72,7,6,4,3
1501935759116045,-4,-1,33,107,-35,-13,-4,-4
1501935759116045,-3,-3,0,-73,-20,-8,-3,-2
1501935759118002,4,0,-14,30,28,7,3,1
1501935759118002,1,4,17,-124,-5,4,-1,1
1501935759131051,-6,-10,-7,45,18,-1,-1,-2
1501935759131051,5,4,-4,36,25,10,1,2
1501935759137049,-4,1,29,107,-14,-12,-4,0
1501935759137049,-5,-8,-18,-60,-24,-6,-3,-3
1501935759154070,0,4,-10,109,26,8,0,-1
1501935759154070,1,-2,13,-84,7,-6,-6,3
1501935759155006,1,2,-33,2,-26,2,3,0
1501935759155006,-3,-5,-14,-49,-31,-8,0,-1
1501935759176004,3,4,19,-14,6,7,1,-1
1501935759176004,0,-8,-22,94,-7,-8,-3,-4
1501935759178021,-10,-2,-4,-91,-27,-5,-3,-2
1501935759178021,2,5,19,-14,4,-2,0,-2
1501935759191073,2,0,-19,-1,9,7,3,2
1501935759191073,-6,-2,-6,-60,-17,-10,-6,-11
1501935759193017,0,-1,-12,-4,35,6,0,0
1501935759193017,4,2,-7,75,36,7,2,0
1501935759215016,-3,-1,6,-93,-28,0,-1,-2
1501935759215016,-1,0,-4,4,4,2,0,0
1501935759216005,1,-1,8,42,25,4,1,0
1501935759216005,-2,0,2,-82,-18,-4,0,-2
1501935759236023,7,6,4,57,23,7,1,2
1501935759236023,-3,-3,14,-50,-32,-9,-3,-1
1501935759238007,1,1,-28,15,24,7,1,0
1501935759238007,0,0,3,-37,-21,0,0,5
1501935759251056,-8,-13,-23,74,24,-5,-5,-6
1501935759251056,-1,3,18,-18,9,5,-1,2
1501935759257072,2,3,18,97,14,1,0,-1
1501935759257072,-5,-8,1,39,-5,-12,-5,-2
1501935759272072,4,7,-1,34,22,9,2,-2
1501935759272072,0,0,24,-20,-2,1,-1,-1
1501935759281057,2,-1,-6,-36,-9,-3,-3,-3
1501935759281057,-2,-4,5,97,24,-2,-3,-2
1501935759296053,1,3,-9,-84,-42,-5,1,2
1501935759296053,1,2,23,86,6,2,-1,0
1501935759298011,-1,-3,-4,-29,-27,-10,-4,1
1501935759298011,-6,-13,-56,-77,-18,-1,-4,-8
1501935759319050,-5,-8,-20,51,-1,-4,-3,-4
1501935759319050,0,5,-2,-57,0,6,0,-2
1501935759320023,-4,-6,13,81,-12,-5,0,-1
1501935759320023,3,1,-23,-34,4,4,-1,4
1501935759332070,-6,-6,9,-50,18,-4,-4,-4
1501935759332070,0,-6,-59,-23,-6,1,2,-3
1501935759342014,-2,-3,23,-34,-11,-4,-1,-3
1501935759342014,0,-2,-21,34,11,0,-2,-2
1501935759356055,1,-2,-28,-64,-15,-3,0,2
1501935759356055,-2,-3,7,62,3,-5,0,0
1501935759358016,5,8,15,-2,14,7,5,2
1501935759358016,2,6,24,-22,-4,0,0,-1
1501935759379089,0,3,38,89,13,-2,-2,-1
1501935759379089,-7,-9,-52,-54,-22,-5,-5,-4
1501935759380054,-1,-1,-11,35,-21,-3,-1,0
1501935759380054,1,4,24,44,15,0,2,-2
1501935759392055,1,0,12,-65,-20,-6,0,0
1501935759392055,-3,4,8,-45,1,2,2,1
1501935759401058,1,0,9,46,17,5,-2,-3
1501935759401058,-2,-1,-7,72,16,0,0,-2
1501935759416058,-2,1,15,-87,-3,-3,-1,0
1501935759416058,2,0,15,41,-22,-4,0,2
1501935759418021,1,3,-3,-15,-3,-4,-1,7
1501935759418021,-2,0,-8,-77,-2,3,-1,-6
1501935759439019,1,-4,-22,68,1,-2,0,0
1501935759439019,1,-1,15,-46,6,4,4,1
1501935759440021,-2,1,5,-66,0,-2,-2,0
1501935759440021,-5,-8,3,20,-11,-15,-6,-5
1501935759452079,4,9,16,85,26,12,-1,-2
1501935759452079,-3,-9,-52,-48,4,-6,-1,3
1501935759461062,-4,-5,5,76,-4,-5,0,-5
1501935759461062,-1,-2,16,94,5,-1,-1,-2
1501935759476060,-5,-11,-61,-99,-19,-1,-4,-4
1501935759476060,2,4,12,9,8,-2,-5,-2
1501935759478020,2,1,-11,-36,-4,0,-1,-2
1501935759478020,-3,-4,-5,-77,-15,1,-2,-1
1501935759499064,1,4,29,57,-2,-2,-1,2
1501935759499064,6,9,11,18,2,8,4,0
1501935759500029,1,3,-10,-23,5,-3,-2,1
1501935759500029,-2,0,-3,-40,-24,-1,3,2
1501935759512087,-4,-3,8,61,-8,-4,-1,0
1501935759512087,0,2,-10,-42,7,4,0,-1
1501935759521024,-3,-4,7,-28,-16,-7,-3,-3
1501935759521024,-1,1,-15,-32,-8,-2,1,1
1501935759536052,4,5,7,-57,8,3,1,2
1501935759536052,-1,-2,-6,21,-2,-1,1,0
1501935759538025,-4,-1,36,39,23,3,-2,-2
1501935759538025,2,1,16,34,8,1,-1,0
1501935759559058,-2,-1,15,96,4,-4,0,0
1501935759559058,-2,-1,-16,-12,-7,-5,-5,-2
1501935759560027,2,0,-14,-84,0,2,1,1
1501935759560027,-4,-6,2,14,-22,-8,-2,-4
1501935759572088,-2,0,13,-32,16,1,-2,-4
1501935759572088,-2,1,23,60,-4,-1,-2,-1
1501935759581073,0,-2,-9,20,-4,-2,-1,0
1501935759581073,-4,-4,3,70,23,-3,-3,-4
1501935759596069,-2,-5,-40,-46,-48,-6,2,3
1501935759596069,-2,-4,3,-35,2,0,-3,-2
1501935759598064,0,-1,-34,-70,-19,-1,-3,2
1501935759598064,2,5,17,40,6,-1,1,-5
1501935759619091,4,5,14,76,17,10,2,-1
1501935759619091,0,-1,18,51,0,0,0,0
1501935759620030,1,-3,-27,-58,-13,2,0,0
1501935759620030,-1,-3,-8,-64,-10,-5,-3,1
1501935759641074,2,10,31,68,1,-1,1,4
1501935759641074,-7,-14,-40,-14,-3,-7,-5,-7
1501935759643031,-1,0,0,46,6,3,2,-3
1501935759643031,1,0,-5,-36,2,-1,-2,1
1501935759656072,0,1,2,-100,-9,-3,1,-1
1501935759656072,0,2,32,105,33,1,-1,-1
1501935759658032,-2,-3,-19,-85,1,0,-1,-3
1501935759658032,-4,-2,22,84,26,-3,-1,0
1501935759679104,4,2,-9,-73,-18,5,3,2
1501935759679104,4,5,6,45,24,5,1,-1
1501935759680068,-4,-4,2,41,3,-8,-3,-4
1501935759680068,2,6,2,-57,-19,6,0,0
1501935759701100,1,-4,-8,87,36,4,-3,-2
1501935759701100,-4,-4,38,-29,-44,-18,-2,-1
1501935759703034,-7,-12,-34,10,-7,-6,-3,-4
1501935759703034,-2,-1,-6,-61,-6,4,-2,-2
1501935759717103,-2,-1,9,7,22,0,-2,0
1501935759717103,1,5,9,73,-3,1,0,0
1501935759718039,1,1,22,107,10,3,2,0
1501935759718039,-6,-7,-3,-12,-3,-7,-3,-2
1501935759739048,-3,-3,-6,-11,-7,-5,-4,-3
1501935759739048,4,2,-28,-32,11,7,4,2
1501935759740036,-2,-6,-19,14,-8,-5,-1,-1
1501935759740036,2,7,15,124,24,6,2,1
1501935759761080,-7,-11,14,-8,-16,-16,-4,-3
1501935759761080,1,-1,-5,1,12,5,2,0
1501935759763042,0,1,-5,55,-26,-1,-3,-2
1501935759763042,2,-1,-18,31,-21,-3,1,1
1501935759776087,-5,-5,-8,-55,-5,-3,-5,-1
1501935759776087,-3,-4,-21,-123,-25,-9,-2,-1
1501935759782083,0,0,-2,-48,14,4,-1,0
1501935759782083,-1,-4,-21,-18,-17,-2,-1,1
1501935759799106,-3,-2,11,67,11,1,1,-1
1501935759799106,0,-3,-40,1,-5,-5,-2,-1
1501935759800040,-1,-2,-11,-24,-7,0,0,-1
1501935759800040,-2,-6,-36,-117,-9,-5,-3,-1
1501935759821103,0,-1,8,51,10,2,-3,-3
1501935759821103,-2,-1,7,21,12,4,0,0
1501935759823041,1,3,26,34,11,0,1,2
1501935759823041,1,2,-4,-26,1,-3,-1,1
1501935759836057,-1,-3,-39,-49,-40,-4,0,-1
1501935759836057,1,1,22,21,0,-2,-3,-2
1501935759842077,-2,0,6,-26,-8,-4,1,0
1501935759842077,1,0,12,119,36,7,-1,1
1501935759859082,1,0,3,19,-7,-1,0,1
1501935759859082,-3,-1,19,30,4,-1,-2,-4
1501935759860042,-2,-3,1,96,11,4,0,1
1501935759860042,-4,-1,9,-78,-32,-9,-2,-5
1501935759882106,3,5,6,-55,20,4,2,0
1501935759882106,-6,-9,-3,27,-17,-7,-3,-1
1501935759883044,2,7,36,-59,-22,-3,0,0
1501935759883044,1,3,22,-67,10,8,3,1
1501935759896052,-9,-10,-28,8,-6,-14,-8,-5
1501935759896052,-1,1,-8,-107,-19,-3,1,1
1501935759902112,-2,-1,2,44,21,0,-1,-2
1501935759902112,1,-1,3,-12,-11,0,-2,-3
1501935759919113,-1,2,14,57,-9,2,0,0
1501935759919113,-1,2,-7,-21,9,3,0,-1
1501935759920066,-3,-5,-10,-25,-10,-6,-2,-2
1501935759920066,1,1,-1,-52,-7,2,1,0
1501935759941057,0,-3,-13,-28,9,1,2,0
1501935759941057,0,0,1,73,25,1,-1,0
1501935759943049,-2,3,16,-12,2,8,1,1
1501935759943049,-2,-4,-12,19,10,2,0,-2
1501935759956070,3,7,23,52,-1,4,2,3
1501935759956070,-3,-3,-9,-35,2,-2,-1,-1
1501935759962117,0,-3,-26,-60,-13,-2,-1,1
1501935759962117,-6,-7,14,119,16,-8,-3,0
1501935759979087,1,3,2,20,16,5,-2,-2
1501935759979087,2,3,10,-13,7,4,1,3
1501935759980061,-1,-1,-3,40,2,0,-3,-2
1501935759980061,-1,-4,-5,2,6,-3,-4,-2
1501935760001099,4,5,21,-9,-11,4,3,3
1501935760001099,-2,1,6,93,12,7,-1,-3
1501935760003050,1,4,33,-41,26,1,2,4
1501935760003050,-2,-4,-3,80,-35,-13,-3,-2
1501935760016091,-1,0,5,21,9,1,-2,-3
1501935760016091,1,-1,-24,-20,-1,0,-2,-1
1501935760022068,-1,1,2,42,8,2,0,-2
1501935760022068,0,4,6,-5,20,8,-3,-2
1501935760039091,-5,-9,-34,-24,-23,-12,-2,-1
1501935760039091,-2,-2,-28,-96,-92,-13,0,-1
1501935760040053,-2,0,-4,29,4,-4,-3,-2
1501935760040053,-2,0,3,26,2,0,1,-1
1501935760061096,1,-1,9,50,9,3,-4,-1
1501935760061096,-7,-14,-14,-70,-25,-11,-3,-1
1501935760063054,1,1,-9,-7,-14,-4,-1,-2
1501935760063054,1,1,-11,-28,-13,-1,0,0
1501935760076064,1,2,-12,30,28,9,5,1
1501935760076064,-2,-2,18,77,-1,-2,-1,-2
1501935760082093,2,1,-3,-24,-6,-2,-1,0
1501935760082093,-4,-7,-7,-72,-2,-6,-1,-1
1501935760099108,-2,-3,-7,29,6,-2,-2,-1
1501935760099108,-1,0,-1,40,24,3,-2,0
1501935760100056,2,3,12,56,-3,1,1,0
1501935760100056,0,-6,-52,-66,-21,-1,0,1
1501935760121101,-6,-5,3,12,-10,-17,-6,-4
1501935760121101,3,5,19,72,-3,3,1,1
1501935760123059,-9,-8,-20,-26,9,-4,-3,-4
1501935760123059,1,4,19,10,15,3,0,3
1501935760135126,2,0,2,-62,-6,2,-1,-1
1501935760135126,-2,-2,10,-10,19,-1,-3,-2
1501935760144060,1,-2,-3,-44,-15,3,-2,-3
1501935760144060,-1,2,10,86,0,-1,-1,1
1501935760159075,-2,1,8,50,9,0,1,1
1501935760159075,1,4,21,-44,-12,3,0,-1
1501935760160061,0,-1,-8,8,-5,-2,-2,-1
1501935760160061,-1,0,6,18,4,1,-2,-3
1501935760181063,1,3,18,35,-6,-2,-1,0
1501935760181063,2,-2,-11,75,36,11,2,-1
1501935760183073,-2,4,34,-12,-24,-7,1,2
1501935760183073,0,1,-5,-94,-14,-4,-2,0
1501935760195130,0,-3,-14,24,12,4,0,-2
1501935760195130,-2,-2,7,94,9,-2,-1,-1
1501935760204063,-1,-2,-7,-62,-13,1,0,-1
1501935760204063,4,7,44,117,33,6,0,0
1501935760219126,-2,-6,2,-32,-62,-14,-2,0
1501935760219126,0,-1,-27,-29,-19,-4,-4,-1
1501935760220064,-2,-5,-4,31,4,0,-2,-2
1501935760220064,-2,-4,-17,-13,12,5,1,-2
1501935760241072,-1,2,20,-33,17,-2,-3,-1
1501935760241072,0,0,-21,-115,-12,2,3,1
1501935760243068,-2,0,4,-22,15,-2,-1,-2
1501935760243068,-3,-2,6,18,-7,-4,-2,-4
1501935760255120,1,1,-44,-128,-5,8,0,0
1501935760255120,-6,-8,-4,0,9,-9,-4,-3
1501935760264066,0,-1,-13,48,13,1,-2,-2
1501935760264066,1,0,9,4,30,5,-1,-2
1501935760279129,-1,-2,-2,-83,-17,2,2,-1
1501935760279129,-3,-1,8,60,6,-4,-2,-3
1501935760280070,0,0,1,80,5,1,-2,-1
1501935760280070,0,-3,-16,-36,-8,-3,2,1
1501935760301105,-1,-2,13,5,8,-3,-1,-2
1501935760301105,0,-1,-11,-46,-22,2,-2,-2
1501935760303068,0,0,9,75,20,2,-1,-1
1501935760303068,-1,2,10,-29,-24,-5,-2,-2
1501935760315115,-2,-4,11,-38,-2,1,-1,-1
1501935760315115,-1,0,9,7,8,1,-1,0
1501935760324070,2,1,9,85,9,6,1,0
1501935760324070,4,4,8,64,-13,-4,1,3
1501935760339143,-5,-7,-42,-97,-24,-5,-1,-1
1501935760339143,4,5,14,-28,5,2,2,2
1501935760340092,-4,-5,-8,-77,-26,-10,-3,0
1501935760340092,-1,-4,-43,-58,-5,8,1,-2
1501935760361121,0,1,20,127,25,1,-3,-1
1501935760361121,-1,0,-5,4,3,-4,-1,-3
1501935760363072,4,3,-34,-84,-1,4,2,1
1501935760363072,-7,-5,18,80,6,-3,-3,-3
1501935760375091,-1,3,6,-25,-4,-6,-1,2
1501935760375091,-3,-3,-7,30,18,0,-4,-2
1501935760384081,0,0,-7,-76,-42,0,0,0
1501935760384081,-6,-6,4,68,-1,-12,-5,-3
1501935760399145,1,1,-30,-62,2,8,0,-3
1501935760399145,-2,-1,3,18,-4,0,1,1
1501935760400075,-5,-4,6,43,19,-1,-3,-3
1501935760400075,-4,-7,-19,-40,-17,-5,-2,0
1501935760421116,1,2,11,-42,18,0,0,-2
1501935760421116,0,1,-14,-85,-40,-5,1,1
1501935760423076,2,5,10,83,9,1,2,4
1501935760423076,-1,-4,12,-82,-21,-5,-2,-2
1501935760435146,1,1,20,120,24,1,-2,-1
1501935760435146,-2,-4,-1,-29,3,-4,-3,-2
1501935760444087,-1,-1,2,-102,-41,-4,0,1
1501935760444087,6,11,38,127,43,11,4,4
1501935760459119,-2,-4,-15,-54,-6,1,1,0
1501935760459119,2,2,24,75,1,2,-1,-1
1501935760460077,1,-2,-5,6,4,-3,-3,-1
1501935760460077,-3,-2,-11,-69,-6,-3,-1,0
1501935760481119,-2,-3,-2,80,6,3,0,-1
1501935760481119,-4,-5,-10,-79,-15,-6,-2,0
1501935760483079,-2,-2,-3,8,13,0,-2,-1
1501935760483079,-4,-6,-23,37,20,0,-3,-2
1501935760495121,-1,2,7,1,-25,-4,-1,2
1501935760495121,1,0,-1,28,10,3,0,2
1501935760504087,2,2,1,33,9,1,1,0
1501935760504087,-6,-10,-36,-96,-9,-1,-6,-6
1501935760519091,0,2,0,29,-10,-4,4,1
1501935760519091,3,7,34,65,11,5,1,1
1501935760520080,-6,-6,-6,-76,-47,-7,-3,-4
1501935760520080,2,5,21,-1,-7,1,2,2
1501935760540093,-2,-4,-27,-85,-9,-2,-2,-3
1501935760540093,-4,-7,-6,46,-6,-7,-6,-4
1501935760549084,-2,-1,-4,32,24,1,1,0
1501935760549084,1,2,-1,1,-2,3,-1,-1
1501935760564116,-3,-3,12,8,-4,-5,-6,-3
1501935760564116,0,3,20,24,8,5,2,1
1501935760565083,0,-2,-21,5,8,1,-3,-3
1501935760565083,1,0,-10,-42,-2,0,-1,0
1501935760579094,-4,-3,12,36,-28,-14,-4,-2
1501935760579094,-1,-2,-23,22,7,4,1,0
1501935760580085,-1,1,24,-23,3,0,-1,0
1501935760580085,0,0,-13,27,-5,-5,1,0
1501935760601101,0,-1,14,53,12,2,0,-2
1501935760601101,-3,-6,1,-11,-1,-6,-5,-4
1501935760603086,-2,-2,-4,-73,-13,5,2,-2
1501935760603086,0,0,4,-60,-10,-6,-1,0
1501935760624114,0,2,9,-23,10,4,0,1
1501935760624114,-2,-5,-21,-14,-18,-6,-1,0
1501935760625086,0,-1,-1,83,18,2,-2,1
1501935760625086,2,2,9,-52,5,3,0,-3
1501935760639117,-1,-6,-14,-18,-12,-5,-2,-2
1501935760639117,-2,2,7,52,20,0,0,-2
1501935760640087,-3,-3,-13,-55,-33,-9,-3,-2
1501935760640087,0,-1,18,114,4,0,-1,2
1501935760661095,-3,-5,3,37,1,-2,-3,-2
1501935760661095,1,2,-16,-83,-3,4,0,0
1501935760663090,0,-1,3,1,6,-1,-2,-1
1501935760663090,-2,-1,22,40,6,0,-2,-2
1501935760684134,-2,-5,-43,24,-8,-4,-2,-1
1501935760684134,-1,-7,4,43,-10,-3,-3,-4
1501935760685090,2,1,5,69,17,2,0,-1
1501935760685090,-3,-3,5,71,-3,-2,-1,0
1501935760697147,2,6,14,-2,2,3,2,1
1501935760697147,-1,-2,-9,-46,-9,-2,-3,-3
1501935760706102,-2,-4,-3,-29,10,1,-1,-4
1501935760706102,-4,-2,2,-28,-8,-6,-1,-3
1501935760721110,0,3,3,50,6,3,-2,-1
1501935760721110,-2,-2,9,11,5,2,0,0
1501935760721110,-5,-4,-2,-8,8,-3,-2,-3
1501935760721110,1,1,-9,-9,-2,2,0,-1
1501935760743164,0,0,-2,30,15,0,-2,-1
1501935760743164,1,3,-15,-110,-17,0,2,0
1501935760744093,0,-4,-11,54,6,-6,-1,0
1501935760744093,-2,0,-14,-119,-8,9,1,0
1501935760757160,2,4,5,-69,3,5,3,1
1501935760757160,-2,-1,14,78,6,0,-4,-2
1501935760766109,2,4,22,22,0,1,-1,1
1501935760766109,-4,-8,-43,-9,-15,-7,-3,-2
1501935760781106,-4,-3,18,43,19,-2,-1,-3
1501935760781106,-2,-2,3,-109,-7,-1,-1,0
1501935760781106,-1,-6,-35,-64,-2,-3,1,-1
1501935760781106,5,5,15,49,16,5,0,0
1501935760803135,1,-3,-24,-83,-14,3,3,-1
1501935760803135,-2,-2,0,66,17,-3,-1,-2
1501935760804108,-5,-4,10,23,10,-6,-5,-3
1501935760804108,4,2,-16,-96,-28,3,1,1
1501935760817163,2,7,19,4,14,3,-1,-3
1501935760817163,0,1,24,41,5,-4,0,2
1501935760826108,1,0,-14,-14,-7,2,-1,-2
1501935760826108,0,0,-4,34,-7,-1,3,2
1501935760840146,2,1,0,-20,4,-1,-1,-2
1501935760840146,2,3,11,-37,6,6,1,1
1501935760841104,0,-2,12,55,-12,-3,-2,0
1501935760841104,-8,-6,-10,55,0,-15,-6,-7
1501935760863144,-2,-4,0,2,-9,-7,-5,0
1501935760863144,1,2,-3,-23,-2,4,1,0
1501935760864138,1,-1,7,41,10,5,1,2
1501935760864138,0,1,-7,-63,-11,0,0,-2
1501935760877171,-1,-6,-31,-97,-10,-2,-2,-4
1501935760877171,-2,2,38,127,13,-5,0,1
1501935760886112,-4,-5,-43,-85,-27,-7,-3,-3
1501935760886112,-4,-2,19,-84,7,-3,-5,-4
1501935760900143,-2,-4,-7,70,10,-2,-2,-1
1501935760900143,3,-1,-4,8,-20,2,-1,0
1501935760901138,-7,-7,-6,10,2,-9,-3,-2
1501935760901138,0,-1,5,85,5,4,0,0
1501935760923149,-5,-5,-2,-76,-18,-4,-1,0
1501935760923149,0,0,-19,-51,13,1,-1,-1
1501935760924103,2,4,18,95,21,4,0,-1
1501935760924103,0,0,-6,-27,-18,-1,1,1
1501935760937172,1,3,12,9,5,1,1,1
1501935760937172,1,0,0,2,-3,-3,-2,0
1501935760946117,-2,-3,0,-1,18,5,2,-1
1501935760946117,0,-1,15,33,2,-3,-2,0
1501935760961124,-4,-5,-13,44,-3,-4,-1,-2
1501935760961124,-5,-3,5,-26,10,0,-2,-3
1501935760961124,-1,-1,5,-5,-10,-4,-2,-2
1501935760961124,-1,-1,8,89,29,7,0,-1
1501935760983148,1,3,9,11,-10,2,-1,0
1501935760983148,7,10,5,40,20,6,5,3
1501935760984119,-13,-17,0,81,14,-14,-8,-8
1501935760984119,-3,-2,6,-9,-14,-8,-2,-1
1501935760997156,-1,-2,-2,3,-8,1,1,-2
1501935760997156,-3,-5,-24,-50,-4,-1,-3,-4
1501935761006119,3,5,4,-22,-7,3,1,4
1501935761006119,1,0,2,103,24,1,-3,-2
1501935761021126,-3,-3,-10,27,-23,-7,-2,0
1501935761021126,-3,-3,-11,-29,-24,-5,0,0
1501935761021126,1,-4,-24,-85,-29,-2,1,-1
1501935761021126,-2,-2,7,62,4,-4,0,-2
1501935761043154,0,2,10,2,4,3,2,0
1501935761043154,-4,-8,-27,-65,1,-4,-4,-2
1501935761044123,0,5,22,-21,-14,0,-2,-1
1501935761044123,0,-4,-16,-2,10,0,1,-3
1501935761057173,-4,-8,-18,-4,-39,-10,-4,0
1501935761057173,0,0,5,-31,-12,-3,1,-2
1501935761066121,2,4,9,99,26,6,3,0
1501935761066121,-2,-1,6,-12,-11,-4,-1,0
1501935761081128,-1,2,13,118,39,8,0,-2
1501935761081128,-3,-4,-23,-43,-42,-5,1,0
1501935761081128,1,3,8,12,2,1,0,1
1501935761081128,-1,-2,-14,-85,-7,1,0,0
1501935761103152,0,-1,5,48,15,-1,-1,-1
1501935761103152,-2,-3,-5,36,4,0,-3,-4
1501935761104126,1,3,-5,-31,7,4,0,0
1501935761104126,-2,-2,-10,-59,-12,-5,-3,-1
1501935761117186,2,1,0,-36,3,4,-1,0
1501935761117186,-2,-4,14,99,22,-2,-2,-2
1501935761126127,-1,1,-4,-101,-28,-7,1,0
1501935761126127,3,5,11,11,23,8,2,1
1501935761141144,-2,-2,-8,29,-15,-5,-1,0
1501935761141144,2,5,25,29,11,3,-1,0
1501935761141144,0,-2,-4,-66,-8,7,-3,-1
1501935761141144,-4,-6,-27,-35,-15,-7,-3,-2
1501935761163163,3,1,10,-89,-7,-2,1,-1
1501935761163163,1,2,-4,-27,11,2,2,2
1501935761164119,0,-3,4,87,25,5,-1,-2
1501935761164119,1,4,5,39,-12,4,3,0
1501935761177161,-2,1,14,-87,-3,-8,-4,-2
1501935761177161,-3,-1,8,46,3,-2,-3,-3
1501935761186149,-1,0,1,-25,2,-2,-2,-2
1501935761186149,2,3,0,7,2,3,-3,-2
1501935761201138,-2,-3,6,67,0,-1,3,1
1501935761201138,1,0,-2,-58,2,3,-2,-2
1501935761201138,2,1,11,-16,-14,-2,0,1
1501935761201138,-2,-3,-1,-19,-14,-6,-4,-3
1501935761223185,-1,0,-8,-47,25,9,-2,-2
1501935761223185,-1,-2,-10,-71,-31,-7,-4,-3
1501935761224122,2,4,3,59,-4,-2,1,0
1501935761224122,-2,-5,-16,-82,-12,-1,1,-1
1501935761237186,0,1,5,-10,-2,-1,-1,-1
1501935761237186,-1,3,9,109,18,2,0,-1
1501935761246148,-2,0,8,8,-16,-6,0,-1
1501935761246148,1,-1,3,-52,9,2,2,1
1501935761260162,-2,-1,7,68,8,-3,-5,-4
1501935761260162,-2,-7,-24,-10,-42,-8,-2,-1
1501935761261123,-1,0,8,19,14,2,-2,-2
1501935761261123,-2,-3,2,-13,-5,-5,-3,-3
1501935761283168,0,0,-12,-10,0,7,5,1
1501935761283168,-1,-2,0,6,14,1,-3,-2
1501935761284124,0,0,-7,19,-8,-1,-2,-1
1501935761284124,-4,-6,2,55,-6,-9,-4,0
1501935761297166,4,4,19,-3,3,4,2,1
1501935761297166,-9,-9,-21,-5,-27,-9,-3,-2
1501935761306136,-2,-4,-24,-98,28,0,-1,-1
1501935761306136,-1,-3,-11,2,7,-6,-2,-1
1501935761320169,0,3,26,25,7,-1,3,0
1501935761320169,-2,0,-5,25,14,-3,-3,-2
1501935761321159,-4,-6,-6,-77,-30,-4,-2,-1
1501935761321159,-2,0,-20,-11,-9,0,-1,-1
1501935761343165,-2,-1,4,75,-1,-10,-4,-1
1501935761343165,0,0,18,58,25,7,2,1
1501935761344143,-3,-6,-28,101,-10,-6,-2,-2
1501935761344143,-1,-2,-2,-60,-15,-3,-2,-3
1501935761357201,-2,-3,-21,-70,-6,1,-2,0
1501935761357201,-1,0,8,-28,10,-3,-1,0
1501935761366139,0,2,21,67,12,2,-1,1
1501935761366139,-1,2,8,13,-8,1,0,-2
1501935761380171,-3,-6,-27,-5,-6,-1,-1,-2
1501935761380171,0,-1,-5,-14,3,2,-1,-3
1501935761381163,3,4,-8,-62,3,4,2,1
1501935761381163,-1,-4,-3,-44,-5,-5,0,3
1501935761403174,-1,-1,5,-13,-14,-2,-1,0
1501935761403174,-1,1,2,-10,7,3,0,1
1501935761404133,-4,-4,-7,59,-10,-10,-7,-5
1501935761404133,-2,-3,0,-4,1,3,-1,-3
1501935761417201,-2,-1,-1,58,9,2,1,2
1501935761417201,0,-1,-8,-17,1,-1,1,1
1501935761426153,-2,-4,-12,-5,2,-2,-1,-5
1501935761426153,1,3,18,73,-3,1,-1,0
1501935761441176,-2,-3,-16,-38,7,0,-3,0
1501935761441176,1,0,-16,-36,-23,-3,2,1
1501935761442134,-3,2,21,49,29,-2,-3,-1
1501935761442134,-2,1,-1,70,13,1,-1,0
1501935761463181,-1,-2,6,-123,-11,0,-1,-2
1501935761463181,1,-1,-24,-74,-32,-5,-3,-1
1501935761464139,1,3,4,12,2,4,0,-1
1501935761464139,4,3,-2,-20,-15,3,2,2
1501935761486184,-3,-2,-1,3,4,-8,-4,-3
1501935761486184,1,-2,-6,-62,-4,3,0,0
1501935761487163,-3,-5,-22,-44,-24,-2,-2,0
1501935761487163,3,6,33,108,29,12,1,0
1501935761500177,-2,-6,-35,-20,-10,-2,-1,-1
1501935761500177,0,1,16,102,23,-3,-3,-2
1501935761501170,1,1,-8,-70,-31,-3,3,1
1501935761501170,-3,-3,8,23,0,-2,-2,-2
1501935761523178,0,2,12,27,8,0,-1,-1
1501935761523178,-2,-2,-16,39,10,0,-3,-1
1501935761524140,-1,1,27,-25,9,-1,-2,-1
1501935761524140,-2,-3,1,9,-5,-1,0,-2
1501935761546203,0,-2,-31,34,11,3,-1,-2
1501935761546203,0,2,39,52,-28,-4,1,0
1501935761547155,3,3,4,-71,-27,-5,1,1
1501935761547155,-6,-7,-18,-54,0,-9,-5,-3
1501935761560203,1,-1,4,10,-1,0,0,-2
1501935761560203,1,2,12,56,21,8,0,-2
1501935761561173,-4,-5,-8,-32,4,-8,-1,-2
1501935761561173,-1,-2,-5,67,4,1,0,1
1501935761583183,2,5,26,-95,-25,-5,-3,-1
1501935761583183,-3,-4,-19,47,5,-3,-1,2
1501935761584149,3,0,-17,-50,-9,7,2,-1
1501935761584149,-1,3,14,1,3,-4,0,1
1501935761606184,-2,-4,-21,-2,-4,-2,-2,-2
1501935761606184,-2,-3,-6,-58,3,1,-2,-1
1501935761607168,2,4,-5,-58,-1,2,-2,-2
1501935761607168,-2,-5,-6,5,7,-3,-2,-3
1501935761620183,1,2,-5,44,7,3,-2,0
1501935761620183,1,5,32,47,25,3,1,2
1501935761621176,-4,-6,-10,-13,-7,1,-1,-2
1501935761621176,-1,-3,-8,16,0,-6,-5,-4
1501935761643144,-1,1,21,54,11,-2,0,-1
1501935761643144,-2,-2,-13,-82,-19,-2,-1,-2
1501935761644144,-2,-3,13,96,11,-2,0,-2
1501935761644144,3,3,7,-13,17,6,-1,0
1501935761666189,-1,-2,-16,-45,1,3,0,0
1501935761666189,-2,1,3,-7,-5,-7,-2,0
1501935761667183,-1,1,7,29,13,-1,0,0
1501935761667183,-2,-10,-53,-48,-15,-2,-5,-2
1501935761681173,-5,-2,15,33,5,-7,-2,-4
1501935761681173,-1,-4,-18,-54,-18,-4,-2,-2
1501935761681173,1,2,9,64,1,1,1,1
1501935761681173,3,1,-6,-76,10,4,-1,-2
1501935761703193,-1,-1,14,66,-7,-4,0,0
1501935761703193,-1,-2,-3,6,-6,1,1,-1
1501935761704148,-3,-4,-27,-6,-5,-2,-4,-2
1501935761704148,-1,2,3,-38,4,1,2,-1
1501935761726195,1,-1,-8,-3,-9,-3,0,-1
1501935761726195,1,-1,-21,-73,-22,-3,-3,-1
1501935761727150,-2,-3,25,52,25,3,-3,-1
1501935761727150,0,-1,-8,50,12,5,2,0
1501935761741172,-2,-3,-22,-104,-24,-8,-1,-2
1501935761741172,5,6,23,54,0,4,1,2
1501935761741172,-5,-8,-15,-7,-2,-4,-4,-5
1501935761741172,0,3,18,40,2,0,-1,-1
1501935761763194,-2,-5,-5,-48,-14,-5,-3,-2
1501935761763194,-4,-4,-23,20,21,3,-1,-4
1501935761764152,0,1,2,13,-19,-3,1,2
1501935761764152,0,2,9,-24,-22,-5,-2,-1
1501935761786195,1,0,-1,117,28,5,-1,-1
1501935761786195,-5,-4,-1,-90,-18,-6,0,-2
1501935761787165,-2,0,10,-2,4,0,-2,-3
1501935761787165,0,-2,-13,-28,-6,0,0,-1
1501935761801174,1,6,14,-14,-1,4,-1,1
1501935761801174,-3,-10,-19,99,5,-4,-2,-4
1501935761801174,-1,1,14,-59,-7,1,2,2
1501935761801174,1,2,4,58,5,-5,-3,-1
1501935761823199,-5,-5,-15,21,-15,-6,0,2
1501935761823199,-2,-2,4,-65,-2,-6,-3,-2
1501935761824155,-1,-1,3,31,8,-2,-2,-1
1501935761824155,0,1,7,31,6,5,2,1
1501935761846196,1,0,1,-6,2,-1,-2,-2
1501935761846196,4,5,33,45,9,4,1,1
1501935761847156,-3,-5,-30,-52,-9,-6,2,2
1501935761847156,-1,1,14,-12,2,2,0,-2
1501935761860173,0,-1,6,39,12,1,0,-1
1501935761860173,0,-3,0,-73,-11,-3,-2,1
1501935761861185,3,3,9,46,2,0,2,0
1501935761861185,-4,-6,-5,34,10,-2,-2,-4
1501935761883202,3,5,-9,-106,-19,1,1,1
1501935761883202,-2,-1,-8,14,5,-2,-2,0
1501935761884158,0,-1,3,-12,1,2,0,-1
1501935761884158,-3,-7,-36,-88,-11,-5,-3,-2
1501935761906201,0,2,18,73,26,1,-1,-2
1501935761906201,-3,-5,-24,35,-7,-5,-2,-2
1501935761907160,2,0,1,-61,3,4,-1,1
1501935761907160,-2,1,3,25,-14,-4,2,2
1501935761920159,-3,-5,-7,-40,11,3,-2,-4
1501935761920159,3,5,12,38,-7,-1,-1,0
1501935761921191,1,-2,4,32,16,2,-2,-1
1501935761921191,-1,-1,-3,-5,-13,-5,0,2
1501935761943210,-2,-2,10,38,11,1,-2,-2
1501935761943210,0,0,-5,26,4,2,0,0
1501935761944172,0,-2,-28,7,-19,-2,-3,-2
1501935761944172,1,3,21,8,23,7,0,0
1501935761965230,0,2,-10,-20,-11,-5,-2,0
1501935761965230,0,-1,1,-11,1,2,2,-1
1501935761966199,-1,1,5,-17,8,4,0,-2
1501935761966199,-3,-3,4,7,-4,-2,-3,-2
1501935761980203,2,3,6,48,-1,0,1,1
1501935761980203,-2,-2,-8,-40,-9,-3,-3,-1
1501935761981164,-4,-5,-2,11,-8,-7,-2,-2
1501935761981164,0,3,8,-86,-16,-3,-2,0
1501935762003227,-2,-3,10,27,-6,-1,-1,0
1501935762003227,-1,-3,-19,-2,11,5,0,-1
1501935762004167,-1,0,4,-6,-1,-3,-2,-1
1501935762004167,-1,-2,-5,-4,-19,-5,-3,-2
1501935762025169,-2,-2,-9,-37,-3,-3,-2,-1
1501935762025169,1,3,9,32,15,2,2,0
1501935762026197,-3,-2,4,42,-1,-1,1,0
1501935762026197,-2,-1,-1,-20,-1,1,3,-1
1501935762040186,-2,0,3,4,3,-6,-3,-3
1501935762040186,-4,-5,-3,15,-25,-3,-2,-1
1501935762041182,1,4,18,52,8,0,0,0
1501935762041182,-4,-7,-18,49,33,-1,-5,-4
1501935762063206,1,-1,-8,-7,-22,0,2,4
1501935762063206,2,4,-5,-23,9,3,0,-2
1501935762064168,-3,-4,21,37,-15,-6,-2,-2
1501935762064168,-2,-3,-11,18,5,-3,-3,-2
1501935762085235,1,0,6,62,11,1,-2,-2
1501935762085235,-1,-1,8,-45,-9,-6,-2,-1
1501935762086204,2,2,-12,-1,9,-2,-2,1
1501935762086204,-1,0,-2,-17,-10,0,0,-1
1501935762100217,-3,-5,-1,44,10,-2,-3,-2
1501935762100217,0,5,8,-7,-15,-1,-1,1
1501935762108212,2,3,2,-34,3,7,1,-2
1501935762108212,-2,-1,8,-25,-6,-7,0,1
1501935762123194,-2,-3,-9,-70,-14,1,-4,-2
1501935762123194,-2,-3,2,23,7,-4,-4,-2
1501935762124181,-2,1,3,-8,2,-1,-1,-2
1501935762124181,2,0,2,-9,-8,1,1,0
1501935762145238,0,-1,5,90,28,1,-1,-2
1501935762145238,-2,-4,-14,-95,-58,-13,-3,-1
1501935762146208,1,-1,-15,-60,-11,-1,-2,-1
1501935762146208,-3,-1,18,103,15,1,1,-2
1501935762160218,-1,0,-11,-25,-11,-3,-1,0
1501935762160218,1,3,8,101,19,4,2,-1
1501935762168216,-4,-2,-13,-78,-30,-12,-2,0
1501935762168216,1,3,4,56,-5,2,1,2
1501935762183215,-5,-2,-6,-17,-15,-3,-2,-2
1501935762183215,-1,-2,-2,54,22,0,0,-1
1501935762184175,-2,-3,-9,-27,-3,2,-2,-1
1501935762184175,2,6,12,-99,-2,4,0,-1
1501935762205243,1,-2,-12,52,10,0,0,-1
1501935762205243,-3,-2,8,-110,-18,-6,-2,0
1501935762206189,2,1,8,48,15,-2,-3,-3
1501935762206189,-1,-1,-9,-28,2,0,-2,-1
1501935762220220,1,3,17,31,9,3,0,0
1501935762220220,-1,-1,-25,-28,10,4,0,-1
1501935762228221,-1,-2,1,-34,1,-5,-3,-2
1501935762228221,-1,-3,-2,16,-3,0,-2,1
1501935762243216,3,2,17,-37,1,2,1,1
1501935762243216,-1,1,13,27,19,0,0,1
1501935762244195,-2,-1,-5,-85,-50,-6,1,-1
1501935762244195,2,-2,0,96,7,3,-2,0
1501935762265252,-2,-6,-22,-78,-19,-8,-4,-1
1501935762265252,1,2,13,22,14,3,1,-1
1501935762266183,-3,-3,-8,45,16,1,-2,-1
1501935762266183,-3,-8,-19,-71,-25,-12,-4,-3
1501935762280223,-1,-2,6,63,1,2,2,-1
1501935762280223,-1,-4,4,1,6,-5,-4,-4
1501935762288224,1,1,-16,6,4,2,-1,-1
1501935762288224,-5,0,15,68,5,-8,-2,-2
1501935762303226,-2,0,6,26,2,5,2,1
1501935762303226,1,2,-12,-46,-4,-1,0,0
1501935762304191,-3,-5,3,38,10,-3,-1,-2
1501935762304191,2,0,-15,-38,-2,2,-3,0
1501935762325200,-1,1,-2,-24,2,2,2,1
1501935762325200,-4,-4,-10,-54,-37,-8,-4,-3
1501935762326217,-1,0,4,-3,-1,2,0,1
1501935762326217,1,3,12,72,7,0,0,0
1501935762340228,3,1,-8,-31,-13,-6,0,0
1501935762340228,3,4,18,-25,15,7,1,0
1501935762348229,-7,-7,-13,29,-1,-3,-2,-4
1501935762348229,0,-1,-1,3,4,-1,0,-2
1501935762363232,0,-2,-6,60,18,1,-1,-1
1501935762363232,0,2,11,-55,-57,-7,-1,0
1501935762364187,1,0,-27,100,10,1,0,0
1501935762364187,0,1,11,-75,-14,-2,1,1
1501935762385246,-1,-2,-22,-51,-11,0,-2,0
1501935762385246,-2,-2,14,67,20,-2,-1,-3
1501935762386221,0,1,11,10,11,1,-2,1
1501935762386221,-4,-3,-13,-40,-22,-4,0,-1
1501935762400231,-1,-2,3,-86,5,-3,-4,-2
1501935762400231,-1,-3,-4,58,27,4,-1,-2
1501935762408205,2,4,23,75,15,3,1,0
1501935762408205,0,-1,-16,-81,-18,-4,2,0
1501935762422913,-5,-3,19,63,7,-5,-4,-2
1501935762422913,-5,-6,-19,27,11,-5,-4,-4
1501935762423891,2,3,12,-26,6,3,1,0
1501935762423891,-2,-2,-2,90,12,-1,-2,-3
1501935762445916,0,1,-1,-30,-23,-6,-1,-2
1501935762445916,-1,-3,-4,83,15,3,-1,-1
1501935762445916,0,-2,-20,-111,-13,4,0,-4
1501935762445916,1,1,2,-80,-14,-3,0,1
1501935762468942,1,1,-14,-21,-5,1,0,-2
1501935762468942,-1,-1,12,28,10,2,-1,-1
1501935762469880,3,4,6,9,4,5,1,3
1501935762469880,-3,-5,0,17,-23,-6,-6,-5
1501935762490945,-2,-4,1,-1,-7,-8,-1,-1
1501935762490945,0,2,-6,-25,-3,4,-1,-2
1501935762491888,-3,-4,3,-11,-1,-2,0,-2
1501935762491888,2,4,7,1,13,5,0,0
1501935762505922,-4,-3,-5,18,0,-4,-3,-3
1501935762505922,-1,-2,-7,48,0,-1,-1,-3
1501935762506879,0,-1,-1,-52,-7,-4,-2,1
1501935762506879,-3,-2,-5,-9,19,1,1,-2
1501935762528946,2,3,-10,-89,-4,5,1,0
1501935762528946,-1,-3,4,30,6,0,1,0
1501935762529880,-3,-1,6,10,12,1,0,-1
1501935762529880,1,-1,-18,-59,6,2,-2,-2
1501935762542930,-2,-3,8,33,-9,-7,-2,-1
1501935762542930,-2,-1,-19,-68,-9,-1,0,1
1501935762543892,1,1,11,37,-4,-6,-2,-1
1501935762543892,-2,-4,-8,-22,-7,0,-2,-2
1501935762565925,-1,1,17,74,29,4,1,-1
1501935762565925,-1,0,13,19,9,-3,-2,-2
1501935762566884,1,1,-3,-57,-23,-4,0,0
1501935762566884,1,1,0,37,14,7,0,2
1501935762588941,-4,-4,9,84,-7,-7,-4,-2
1501935762588941,-1,-2,2,9,-6,-1,-2,1
1501935762589885,-3,-3,-45,-72,-21,-2,-2,-2
1501935762589885,3,4,24,60,18,2,1,1
1501935762602928,0,-4,-7,-76,-10,0,-1,-2
1501935762602928,1,-1,-8,-22,-5,-3,-2,-1
1501935762603895,-1,-1,18,76,7,-1,-1,0
1501935762603895,-2,-3,-23,-69,-3,1,-1,-1
1501935762625924,1,4,0,27,-15,0,0,0
1501935762625924,-2,-1,-5,-67,-24,-8,-1,1
1501935762626887,-2,0,7,-13,4,1,-1,0
1501935762626887,-1,-2,1,14,3,-2,-2,-2
1501935762648948,-1,0,-8,-65,1,1,0,-1
1501935762648948,0,-1,-6,12,6,1,-2,-3
1501935762649909,0,4,17,-14,-10,-2,1,0
1501935762649909,-2,-2,-1,-52,-16,-10,-2,-2
1501935762662959,-3,-4,-5,38,10,1,-1,-3
1501935762662959,-1,-2,-6,-29,-3,2,0,-1
1501935762663900,-2,-2,6,79,17,3,0,-2
1501935762663900,0,2,14,51,-2,2,1,0
1501935762685940,0,0,0,7,-8,-4,0,1
1501935762685940,-3,-2,-10,4,0,-6,-5,-3
1501935762685940,-1,-5,-15,-7,-5,-4,-2,-3
1501935762685940,-1,-1,3,34,5,-1,-3,0
1501935762708932,0,-1,-2,75,14,3,0,0
1501935762708932,0,2,1,-86,-32,-1,2,1
1501935762709900,-4,-5,-22,-39,3,-7,-5,-1
1501935762709900,-1,-1,10,115,-9,-6,-1,-4
1501935762722953,-1,0,9,-55,-1,2,2,0
1501935762722953,2,1,-3,51,9,3,-2,-2
1501935762723917,1,2,5,-67,-2,-1,-1,-1
1501935762723917,0,-1,3,21,7,-2,-2,1
1501935762745934,-3,-4,-26,-73,-15,1,1,0
1501935762745934,2,1,2,57,6,2,2,0
1501935762746894,-1,0,19,71,14,2,0,-1
1501935762746894,-2,0,-5,-39,-17,-7,-2,-2
1501935762768938,1,0,10,25,13,1,-1,0
1501935762768938,-1,-1,-20,-25,-29,-1,1,1
1501935762769913,-3,-3,13,58,-1,-6,-3,-1
1501935762769913,1,0,3,-35,10,6,0,0
1501935762782939,1,1,-15,99,6,2,-3,0
1501935762782939,-1,1,-5,-76,-44,-3,2,0
1501935762783906,-3,0,-2,55,13,0,-2,-2
1501935762783906,-3,-1,4,21,-7,-6,-2,-1
1501935762805946,1,4,4,-60,-4,-1,1,-1
1501935762805946,-1,-1,3,39,18,1,0,-1
1501935762805946,3,1,-7,-2,-4,1,-2,-3
1501935762805946,-2,-4,-5,13,0,0,1,0
1501935762828940,-2,-2,9,-3,2,-5,-4,-3
1501935762828940,-4,-4,6,25,9,-3,-2,-3
1501935762829909,-2,0,-8,-6,-14,-6,0,-2
1501935762829909,-1,1,4,22,18,4,-1,-3
1501935762842946,-1,-4,23,-14,-4,-4,-1,-2
1501935762842946,2,-1,-27,-73,-13,1,-2,0
1501935762843915,-1,-2,3,63,-8,-1,1,2
1501935762843915,2,1,-11,-25,7,2,-1,0
1501935762865940,-3,-6,-2,49,-11,-6,-4,-2
1501935762865940,-3,-1,6,118,21,0,-2,-2
1501935762866900,1,0,5,-12,-7,0,-1,-1
1501935762866900,0,0,-3,-50,-13,-2,-1,-1
1501935762888969,-2,-5,-21,35,25,2,-1,-3
1501935762888969,1,2,29,28,7,4,0,2
1501935762889935,-3,-5,-21,29,-3,-4,-3,-4
1501935762889935,-3,-2,17,12,-6,-3,-1,1
1501935762902959,-3,-2,-24,-88,-14,-4,-1,-1
1501935762902959,-1,0,5,-7,15,-3,-1,-2
1501935762903902,0,-1,-5,-28,5,3,-1,0
1501935762903902,0,0,-3,-54,-7,0,-1,-3
1501935762925945,0,-1,5,17,-4,-4,-2,-1
1501935762925945,-1,-4,7,42,19,-3,-1,-1
1501935762925945,0,3,7,-104,-12,4,3,1
1501935762925945,-4,-8,-22,53,9,-4,0,-1
1501935762948961,1,2,-2,-21,-11,-1,-1,1
1501935762948961,-2,1,1,-12,3,-2,0,-1
1501935762949911,0,-3,1,66,15,0,-2,-2
1501935762949911,-2,0,-6,-43,-7,1,-2,-1
1501935762962948,0,1,10,-1,-5,-3,0,2
1501935762962948,1,3,13,15,10,-2,1,0
1501935762963921,-2,-5,-10,18,-8,-1,0,-3
1501935762963921,-1,-2,-6,6,3,-3,-2,-1
1501935762985950,-3,-4,-7,-9,-2,0,1,-2
1501935762985950,1,4,24,-35,-2,1,-2,-1
1501935762985950,-3,-4,-9,-42,-4,-4,-2,-2
1501935762985950,1,-3,2,-16,-4,-1,-1,0
1501935763008948,0,0,-9,-50,-3,-1,-1,-1
1501935763008948,-2,-5,-7,19,2,-2,-2,-2
1501935763009917,-1,1,-6,-3,4,-2,-1,-1
1501935763009917,-2,-4,-22,-70,-30,-1,0,0
1501935763022946,-1,2,29,92,4,-4,-2,1
1501935763022946,-3,-7,-18,-70,-9,-3,-3,-2
1501935763023909,0,-1,-1,4,7,-1,0,1
1501935763023909,1,0,9,83,9,1,-2,-3
1501935763045951,1,1,0,-1,-10,0,2,1
1501935763045951,-2,-4,-16,-19,10,0,-2,-3
1501935763046910,0,1,16,14,-23,-5,0,3
1501935763046910,-2,-4,-16,24,2,-3,-3,-1
1501935763068954,-4,-2,-3,-117,-23,2,0,-2
1501935763068954,0,0,-1,44,-2,-2,-1,-1
1501935763069926,0,1,12,66,16,2,1,1
1501935763069926,-2,-2,-19,16,2,-1,-1,-2
1501935763082912,-1,3,13,82,14,1,1,0
1501935763082912,1,2,-14,-48,-26,0,0,2
1501935763090954,-1,-1,14,36,8,-4,-4,-4
1501935763090954,0,2,15,10,4,1,1,1
1501935763105955,-1,-2,-7,-23,5,1,-2,-1
1501935763105955,-1,-2,-8,-7,5,-3,-1,0
1501935763105955,2,1,-6,-79,-5,1,0,0
1501935763105955,-1,-1,15,-17,-3,-3,-1,-2
1501935763128965,-3,-5,-26,-45,6,-3,-4,-3
1501935763128965,1,1,8,67,22,6,1,-1
1501935763129916,-4,-4,-14,-86,-23,-6,-3,-2
1501935763129916,0,1,-3,-7,4,2,0,0
1501935763141921,0,0,2,-48,0,1,0,-1
1501935763141921,-2,-4,-22,53,-1,-3,-1,-2
1501935763150985,0,-1,1,38,10,-1,-2,-1
1501935763150985,0,5,25,-6,2,0,0,-2
1501935763165964,-3,-2,-7,52,-2,-2,-1,-2
1501935763165964,0,3,32,38,10,-1,-2,-1
1501935763165964,-4,-7,-22,-19,-31,-4,-1,-4
1501935763165964,-2,-2,-7,-85,-17,-3,-1,1
1501935763188961,1,3,5,-16,10,2,1,0
1501935763188961,-2,-4,-10,-32,-13,-4,-1,-1
1501935763189919,-3,-3,10,47,9,-2,-1,-1
1501935763189919,-1,1,4,17,6,-5,0,-2
1501935763202918,-2,-6,-4,67,-6,4,-1,-3
1501935763202918,-2,-2,3,-40,-6,-4,-1,-1
1501935763210966,2,-1,-22,14,6,8,0,0
1501935763210966,-2,-2,2,5,2,-1,-3,-1
1501935763225930,-1,-1,-13,-43,-4,-1,0,1
1501935763225930,-2,-2,6,20,-6,-7,-1,-1
1501935763225930,-2,-2,11,12,1,0,-2,-2
1501935763225930,1,1,6,-21,0,2,-1,-1
1501935763248964,0,0,0,98,19,3,-1,-1
1501935763248964,3,4,-4,-89,-12,0,-1,-1
1501935763249928,0,-1,-15,9,9,1,-1,-1
1501935763249928,-2,-1,-3,5,-10,-7,-5,-2
1501935763262942,2,1,13,8,-4,-1,-1,-1
1501935763262942,-2,-4,0,-12,-12,0,-1,0
1501935763270967,-1,0,-4,-23,13,-1,1,-1
1501935763270967,0,-4,-12,-27,3,5,-1,-1
1501935763285946,1,2,-4,-6,-14,-3,-2,0
1501935763285946,-4,-6,-6,-55,-10,-10,-5,-4
1501935763285946,0,0,-6,-98,10,2,-2,-2
1501935763285946,-1,-3,-9,61,17,1,1,-1
1501935763308964,-3,-4,4,-23,-23,-8,-2,-2
1501935763308964,1,3,-1,47,8,4,0,-3
1501935763309935,0,2,22,16,1,0,0,1
1501935763309935,-1,-1,-15,-26,5,1,1,-1
1501935763322945,-2,-3,0,-22,0,-2,-2,-2
1501935763322945,-1,-1,-11,19,-1,-1,-1,0
1501935763330979,-1,-1,-6,-48,-11,-2,-2,-1
1501935763330979,2,3,8,22,0,1,1,1
1501935763345932,-3,-2,-8,49,-4,-4,-1,0
1501935763345932,-1,0,18,-25,-1,-4,1,2
1501935763345932,-1,-3,-7,-2,-1,2,1,-2
1501935763345932,-1,-1,7,-8,-10,-1,1,1
1501935763368969,4,4,6,-26,4,6,2,1
1501935763368969,-1,0,9,-37,16,9,1,-1
1501935763369930,-2,-3,-5,12,-11,-8,-5,-1
1501935763369930,-1,0,7,5,-2,-4,-3,-1
1501935763390994,-3,-3,-14,-81,0,0,-3,-2
1501935763390994,2,1,-12,0,10,3,0,0
1501935763391940,-1,-2,-1,34,-8,-4,2,1
1501935763391940,0,1,3,-3,-14,0,-2,-1
1501935763405959,-1,1,6,29,-1,-3,-1,-2
1501935763405959,-2,-3,-27,8,-6,-1,-2,0
1501935763405959,-2,2,16,48,9,0,-3,-2
1501935763405959,0,-2,-12,-4,16,3,1,-1
1501935763428972,-3,-2,3,-19,-34,-10,-1,1
1501935763428972,1,2,12,-26,-2,2,0,-2
1501935763429969,1,-1,-1,3,-5,-2,-2,0
1501935763429969,-1,1,11,54,2,-2,-2,-1
1501935763451946,-1,0,-12,-88,5,-1,0,0
1501935763451946,-3,-1,9,57,3,-1,0,0
1501935763452934,0,1,0,-49,-1,-1,-1,-1
1501935763452934,-1,-2,-10,-10,-3,1,-2,-2
1501935763465981,-2,-2,17,79,2,-4,-1,-2
1501935763465981,-4,-9,-29,-7,-6,-5,-1,-2
1501935763465981,-1,-3,-2,-6,-1,2,1,-1
1501935763465981,-2,-2,-9,22,-2,-3,-2,-2
1501935763488974,1,0,-6,-28,5,2,-2,0
1501935763488974,1,-2,6,56,2,-1,-3,-1
1501935763489950,-1,3,0,-54,-16,-1,2,1
1501935763489950,-2,-2,-5,17,-2,-2,0,-1
1501935763510978,-2,1,5,-17,-3,5,0,-2
1501935763510978,-4,-5,-10,49,-3,-9,-6,-2
1501935763511937,2,2,3,0,0,2,0,1
1501935763511937,-2,-6,0,46,-15,-3,-1,0
1501935763525980,-1,-5,-22,-23,-4,-3,-1,-1
1501935763525980,1,0,6,-32,-2,0,0,0
1501935763525980,2,4,20,87,20,3,-1,-1
1501935763525980,-2,-5,2,14,-7,-5,-2,-2
1501935763548974,0,0,-6,-7,0,1,-2,-3
1501935763548974,-2,-3,15,76,-6,-3,-2,-2
1501935763549940,-1,-3,-19,-48,-8,1,0,0
1501935763549940,2,5,26,48,2,-3,-2,-1
1501935763570982,3,5,30,54,16,2,1,1
1501935763570982,0,1,13,-64,-5,2,-1,-3
1501935763571948,-3,-11,-55,10,-11,-3,-1,-3
1501935763571948,-1,-2,-8,-54,5,2,-1,-2
1501935763585989,1,2,14,6,9,0,-1,1
1501935763585989,-1,3,13,-89,-30,-6,0,0
1501935763585989,-2,-2,-11,-45,-3,-1,-1,-2
1501935763585989,-3,-4,-7,3,-2,-3,-2,0
1501935763608945,0,1,7,-16,8,0,-3,-1
1501935763608945,-4,-8,-16,-2,-1,0,-2,-3
1501935763609941,-1,2,7,-15,8,0,0,-2
1501935763609941,-3,-2,-7,33,-8,-6,-2,0
1501935763630987,0,0,0,-17,2,-1,-1,-1
1501935763630987,1,1,1,73,32,9,2,1
1501935763631943,-1,1,20,-60,-27,-11,-3,0
1501935763631943,-3,-8,-45,-25,-5,-4,-4,-4
1501935763645980,-1,-5,-15,26,-3,-1,-2,-3
1501935763645980,2,1,-1,46,12,-1,-1,0
1501935763645980,-2,-1,-3,-3,-4,1,1,1
1501935763645980,0,3,24,-4,9,6,0,0
1501935763668984,-1,-4,-24,16,-16,-6,-5,-3
1501935763668984,-2,-2,-14,54,-12,-6,0,0
1501935763669945,1,3,9,15,14,6,1,2
1501935763669945,0,-1,0,-27,-3,-3,1,0
1501935763690990,0,-1,4,92,33,5,0,-2
1501935763690990,-2,-2,-20,-68,-38,-5,-2,-2
1501935763691947,-4,-3,5,67,-1,-8,-2,-2
1501935763691947,3,7,27,-58,23,5,2,1
1501935763705980,-5,-9,-39,-22,-7,-8,-2,-2
1501935763705980,4,7,25,14,17,11,4,2
1501935763705980,-1,-5,-26,75,26,-1,-3,-3
1501935763705980,-2,-3,-2,-63,-41,-4,-2,-1
1501935763728993,2,4,5,28,4,3,1,-1
1501935763728993,-2,-1,0,-19,-3,-8,-1,-1
1501935763729954,0,1,16,-33,-6,3,4,0
1501935763729954,0,2,3,48,16,3,-2,-2
1501935763750991,-4,-4,-3,-26,-17,-4,-2,-3
1501935763750991,0,2,3,51,20,0,-2,-1
1501935763751973,-1,1,20,-24,-14,-3,-3,-2
1501935763751973,-1,-5,-40,62,21,-1,0,-2
1501935763765989,-1,3,8,-108,-45,-5,1,3
1501935763765989,0,-1,-8,-3,4,1,1,0
1501935763765989,-1,-2,-2,17,4,-1,-2,-1
1501935763765989,-1,0,4,-24,6,3,0,0
1501935763789017,0,1,9,19,7,-1,1,-1
1501935763789017,1,-2,-19,-92,-5,2,0,0
1501935763789961,0,-2,12,32,8,2,1,1
1501935763789961,1,1,9,45,-3,0,-2,-1
1501935763810983,-2,-5,4,108,31,1,-2,-3
1501935763810983,-2,1,10,-10,-19,-9,-3,-2
1501935763811956,-3,-7,-55,-88,-11,4,0,-2
1501935763811956,-2,3,29,68,-2,-3,-2,-3
1501935763825990,-1,-3,-16,-21,3,2,0,0
1501935763825990,-1,-2,-2,7,5,-1,-3,-2
1501935763825990,0,1,11,23,6,-3,-2,-1
1501935763825990,2,1,-8,10,0,1,0,2
1501935763849019,-2,-1,-2,-69,-7,2,-2,0
1501935763849019,-5,-4,-12,-70,-23,-12,-2,-2
1501935763849957,-1,2,15,21,3,-2,-1,-1
1501935763849957,1,0,-5,-71,-10,-1,-1,1
1501935763871029,1,0,5,13,7,1,-1,-2
1501935763871029,0,-1,-2,20,6,3,0,0
1501935763871965,-2,-1,4,14,-2,-5,-1,-1
1501935763871965,-2,-4,-5,78,23,2,2,-3
1501935763885968,0,0,-2,-50,-41,-8,-1,1
1501935763885968,-3,-1,2,46,19,0,-2,-3
1501935763885968,2,2,0,-4,-17,0,0,1
1501935763885968,-2,-4,-15,-14,0,-1,-1,-2
1501935763908997,-1,-1,7,26,4,1,0,-1
1501935763908997,-1,0,-1,24,-1,-1,-1,1
1501935763909960,2,1,18,97,6,4,0,-1
1501935763909960,-5,-7,-29,-120,-27,-10,-2,-1
1501935763931003,0,-1,8,68,8,-6,0,0
1501935763931003,1,-2,-1,-14,-6,0,1,0
1501935763931960,-3,-2,0,17,9,1,-2,-2
1501935763931960,0,2,6,-18,-4,-1,-2,0
1501935763945974,-1,-2,-5,-12,-3,-4,0,1
1501935763945974,0,-1,2,9,7,2,-7,-5
1501935763945974,-3,-1,1,-17,-2,1,5,7
1501935763945974,8,2,5,19,-2,-2,-20,-17
1501935763968005,-20,-3,-3,-22,1,3,2,32
1501935763968005,-22,-7,5,16,-1,-1,-23,-35
1501935763968964,48,5,-7,-14,-1,0,43,23
1501935763968964,4,3,0,-8,-7,-5,-15,-18
1501935763991030,38,12,0,6,7,3,39,-20
1501935763991030,-35,-3,-2,-3,-1,3,-8,40
1501935763991965,31,-13,-5,-3,-3,-5,-23,-13
1501935763991965,-4,-4,5,8,-3,-3,19,-10
1501935764014005,-8,0,0,-4,1,-2,-22,-8
1501935764014005,45,0,-3,8,-1,0,20,1
1501935764014966,-53,-4,-2,-11,-1,-2,-16,-16
1501935764014966,6,2,4,9,0,1,0,17
1501935764028006,-6,-4,-3,-4,0,-1,-16,-2
1501935764028006,-4,-1,-1,-2,-3,0,4,-10
1501935764028966,6,1,-1,5,0,-2,-4,6
1501935764028966,7,-1,2,1,-1,0,-1,4
1501935764053001,-11,-2,-1,1,-1,1,5,-4
1501935764053001,7,1,0,1,-2,-6,-1,6
1501935764053969,-4,1,-1,-3,1,1,-5,-7
1501935764053969,-17,-1,0,5,0,0,6,5
1501935764065031,0,0,0,-5,-1,-4,-4,1
1501935764065031,8,2,-1,1,-3,-1,11,5
1501935764073013,-11,1,-4,-5,-3,0,-16,-8
1501935764073013,-7,-2,-3,-1,0,1,-8,-7
1501935764088011,4,-2,-2,0,0,-2,9,5
1501935764088011,3,0,-1,-3,-1,-1,-3,2
1501935764088971,-13,-2,-1,-1,1,0,4,-2
1501935764088971,4,-1,1,1,-1,0,-10,5
1501935764111007,1,2,0,-3,0,4,8,2
1501935764111007,-10,-9,-2,1,-1,-1,-3,-2
1501935764111972,0,-2,-2,-4,-2,-7,-1,-4
1501935764111972,-1,-4,-3,1,0,4,2,-7
1501935764125036,-4,-2,-4,-3,-3,-3,-6,-7
1501935764125036,-2,2,-3,-3,-1,0,0,-1
1501935764133014,-1,1,-3,-1,0,-2,-7,-3
1501935764133014,-1,-2,-1,0,-2,-1,-1,5
1501935764156021,-3,-2,0,-4,-1,-3,-5,-3
1501935764156021,-1,0,0,0,0,2,-2,-8
1501935764156973,0,-1,1,-1,1,-2,-2,4
1501935764156973,-4,0,1,0,-20,-1,7,2
1501935764171015,-2,-5,-1,-4,10,-2,-6,-4
1501935764171015,4,4,1,4,1,3,-1,8
1501935764171975,-4,-1,0,1,-2,-1,3,-2
1501935764171975,0,0,0,3,0,-1,3,5
1501935764184988,3,-2,1,1,-4,0,-8,-1
1501935764184988,1,-1,0,0,-3,-4,-4,-5
