timestamp,emg1,emg2,emg3,emg4,emg5,emg6,emg7,emg8
1501935820403527,-10,-13,37,65,-9,-16,-7,-8
1501935820403527,-1,-1,18,84,-13,-16,-4,-2
1501935820403527,0,-1,2,9,23,12,1,0
1501935820403527,6,10,20,62,51,20,3,4
1501935820405529,0,2,-13,-11,-34,-9,1,-3
1501935820405529,1,3,8,-24,5,7,2,2
1501935820407490,-4,-4,26,5,-4,-12,-5,-1
1501935820407490,-1,-8,-48,114,12,2,-7,-6
1501935820413527,2,1,-34,-55,-14,4,0,0
1501935820413527,0,0,-23,-65,-31,1,2,1
1501935820420554,-5,-9,-36,-36,-28,-12,-2,-2
1501935820420554,-3,-3,8,-4,6,-2,1,-3
1501935820434556,1,5,8,52,-5,3,1,2
1501935820434556,0,-1,10,27,25,4,-3,-4
1501935820445531,-3,0,32,123,18,-9,-7,-4
1501935820445531,-3,-7,-40,-71,-44,-19,-3,-1
1501935820449535,-2,-10,-57,-128,-19,3,-2,-3
1501935820449535,-1,5,48,55,7,-4,-1,0
1501935820473508,-3,-7,-36,10,-2,3,-2,-4
1501935820473508,0,-2,1,-66,-10,1,1,1
1501935820511555,2,3,7,80,2,-2,2,2
1501935820511555,11,13,32,66,47,18,5,4
1501935820512500,-1,3,-11,54,-27,-4,2,3
1501935820512500,-3,-4,-15,-61,8,-1,-1,-3
1501935820512500,-1,1,-29,89,31,9,1,0
1501935820512500,9,19,91,48,-2,13,8,5
1501935820513495,-4,-8,-7,-67,-22,-5,-8,-8
1501935820513495,8,9,2,-20,-7,2,7,7
1501935820524539,-5,-4,1,-49,-24,-14,-3,-2
1501935820524539,-5,-6,-31,-59,-10,-5,-4,-5
1501935820531536,-2,2,29,-9,18,9,0,-1
1501935820531536,-2,-1,2,87,19,-2,-2,-1
1501935820540509,2,0,6,-51,-15,1,-3,-1
1501935820540509,1,2,29,115,-2,-9,2,4
1501935820554549,-2,-4,12,-17,20,3,-1,-2
1501935820554549,-2,-3,-7,39,8,-2,-1,-4
1501935820563515,1,1,7,108,28,8,1,-1
1501935820563515,-1,-1,-6,-44,1,-2,-5,-5
1501935820576543,-12,-18,-4,47,-40,-28,-10,-7
1501935820576543,-2,1,16,3,6,-12,-7,-4
1501935820585534,1,-2,2,-40,6,6,1,-1
1501935820585534,-5,-13,-52,-8,-9,-7,-5,-2
1501935820600549,6,7,1,-22,4,4,2,2
1501935820600549,2,4,14,73,11,14,2,0
1501935820602538,-1,1,-7,21,-9,-5,1,4
1501935820602538,-5,-12,-55,-50,-30,-10,-3,-3
1501935820623505,2,7,29,71,27,2,0,0
1501935820623505,1,8,26,51,1,4,1,1
1501935820624528,-8,-16,-31,32,-11,-11,-8,-8
1501935820624528,-3,1,24,58,8,4,-2,-2
1501935820636575,3,4,-25,-6,-23,1,6,5
1501935820636575,-4,-3,1,-78,-15,0,-1,-1
1501935820645505,-2,-7,-59,-117,-4,-1,-6,-7
1501935820645505,0,-1,17,40,11,2,-2,-3
1501935820660548,-1,-5,-34,-26,-19,-2,-1,-2
1501935820660548,2,0,-28,65,17,6,0,0
1501935820662539,0,-2,-48,-60,-41,-10,2,2
1501935820662539,-5,-10,-20,-16,-18,-9,-3,-3
1501935820683511,6,8,8,34,28,9,3,4
1501935820683511,-6,-14,-44,-34,-9,-2,-4,-4
1501935820684508,7,12,29,-1,-16,9,3,1
1501935820684508,-4,1,-18,-128,-30,-18,-3,0
1501935820696548,2,5,17,-28,0,6,3,1
1501935820696548,-2,-3,5,70,4,-3,-3,-2
1501935820705519,-2,2,38,6,11,-3,-2,-1
1501935820705519,-3,-5,-50,80,17,2,-3,0
1501935820720551,-9,-6,1,-71,-55,-11,-1,-4
1501935820720551,-1,-3,-3,-2,-2,-4,-5,-3
1501935820722515,-4,-4,21,40,10,0,-2,0
1501935820722515,-2,-3,-1,-39,-15,-4,-2,-3
1501935820743512,1,0,7,19,23,1,0,-1
1501935820743512,1,4,41,29,2,1,-1,-3
1501935820744519,-6,-7,-46,-118,-97,-13,-2,-2
1501935820744519,-5,-4,3,10,1,-3,-1,-2
1501935820756555,2,3,21,109,31,2,-1,1
1501935820756555,-2,-1,2,-97,-31,-8,-3,0
1501935820765513,3,2,14,37,100,20,0,-2
1501935820765513,0,2,10,-11,-14,-4,-1,1
1501935820780579,-2,-7,-21,95,3,-2,-5,-5
1501935820780579,2,2,-10,18,1,1,7,3
1501935820782515,-7,-8,2,4,7,-1,-7,-7
1501935820782515,1,0,-14,9,-1,-3,-1,-1
1501935820803558,-2,-4,-16,-17,-5,-4,-1,-1
1501935820803558,-2,-2,-11,35,9,0,-4,0
1501935820804545,0,3,6,-62,-5,3,3,1
1501935820804545,5,7,18,75,33,12,4,3
1501935820825515,-1,-1,-6,-17,-15,-7,-5,-3
1501935820825515,1,-4,-28,-67,-10,2,-1,1
1501935820827515,-3,4,57,50,7,-5,0,0
1501935820827515,2,3,4,7,-14,-4,1,-1
1501935820840590,-2,-9,-38,2,22,4,-1,-2
1501935820840590,-5,-5,-1,-77,-24,-2,-2,-3
1501935820842530,3,9,34,41,7,0,-1,2
1501935820842530,-2,-4,-5,7,-5,-3,-3,-1
1501935820863554,0,3,25,-10,27,5,-4,-1
1501935820863554,4,3,3,-68,20,8,6,4
1501935820864519,2,5,12,-28,-5,4,-1,0
1501935820864519,-1,3,36,-12,27,-1,-2,0
1501935820885558,-8,-7,-14,-86,-19,-12,-5,-4
1501935820885558,-3,-3,11,-26,2,-8,-5,-6
1501935820887551,-2,-5,-17,79,17,0,-1,-2
1501935820887551,-5,-4,-24,-109,-18,-2,0,-3
1501935820900562,4,10,33,116,34,15,5,6
1501935820900562,-4,1,0,-44,-57,-11,0,1
1501935820902552,-1,-5,8,69,14,-1,-5,-5
1501935820902552,2,3,2,12,4,-3,0,1
1501935820923536,2,-2,-26,-35,-21,4,6,3
1501935820923536,-1,-2,-14,17,9,4,-1,-1
1501935820924531,-4,-5,-16,82,-10,-5,-1,0
1501935820924531,0,1,16,-29,-15,14,4,0
1501935820945536,0,0,16,-16,49,0,-6,-5
1501935820945536,3,4,8,123,36,-1,2,3
1501935820947523,-5,-1,8,-128,-92,-19,-4,-1
1501935820947523,3,2,23,123,25,15,3,-1
1501935820959564,0,2,17,108,4,-4,0,3
1501935820959564,-1,2,16,62,-44,-4,0,-1
1501935820966559,1,0,-19,6,26,-4,-1,0
1501935820966559,-3,-5,-8,10,21,-1,-2,-3
1501935820983543,5,9,14,-74,-46,3,1,3
1501935820983543,-3,-7,-21,-26,8,-1,-3,-3
1501935820984536,0,3,8,-3,19,7,1,0
1501935820984536,-3,-3,-31,35,-7,-7,-8,-3
1501935821005564,0,-2,-12,-31,-29,-4,3,1
1501935821005564,1,0,6,20,15,0,-3,-6
1501935821007538,-1,-6,-8,55,6,-3,-3,-3
1501935821007538,0,-3,-18,13,26,5,1,-1
1501935821020525,-3,-1,5,69,17,-2,-3,-3
1501935821020525,2,6,20,-29,-7,3,6,4
1501935821026537,3,3,-9,97,28,10,2,4
1501935821026537,-5,-1,-10,-117,-49,-13,-2,-2
1501935821043528,-2,-11,-44,56,4,0,1,-1
1501935821043528,-2,0,20,-58,-9,-3,-2,0
1501935821044533,8,14,16,54,14,7,6,5
1501935821044533,1,4,31,-38,-33,-1,0,2
1501935821065599,-3,-4,-9,44,34,-3,-6,-5
1501935821065599,-7,-7,-36,15,-20,-13,-2,-1
1501935821067531,0,0,53,-104,27,8,-3,-7
1501935821067531,-1,-4,12,101,6,-6,-2,0
1501935821079601,2,9,27,-18,-3,5,-1,-2
1501935821079601,-8,-27,-76,-35,18,-3,-7,-5
1501935821086573,-1,0,2,-35,-19,-10,-2,-1
1501935821086573,-1,-2,9,11,16,3,1,-1
1501935821103575,-3,-1,-3,-98,-13,1,-1,-1
1501935821103575,1,3,2,39,2,-1,-1,0
1501935821104533,2,-1,-20,38,31,13,4,2
1501935821104533,-4,-3,-18,27,-45,-20,-5,-2
1501935821125574,-2,3,20,29,-15,-7,0,1
1501935821125574,4,11,53,90,24,6,-1,-1
1501935821127533,0,1,-15,-31,-24,-10,1,3
1501935821127533,0,-2,-15,-64,12,5,1,-2
1501935821139593,-4,-5,11,53,-2,-1,-4,-2
1501935821139593,3,4,28,87,22,-1,1,2
1501935821146574,-6,-7,-41,11,-16,-7,-3,-1
1501935821146574,2,4,-9,28,19,6,-1,-1
1501935821163551,-4,-4,-8,-45,-21,0,1,-2
1501935821163551,-8,-8,17,86,9,-2,-6,-8
1501935821164535,-1,1,-2,-4,-5,0,-1,-2
1501935821164535,0,-5,5,-4,6,-3,-1,-1
1501935821185602,3,0,-28,-4,11,5,2,2
1501935821185602,-2,3,20,-64,-14,0,-3,-2
1501935821187536,-6,-12,-1,-56,-24,-12,-6,-3
1501935821187536,6,9,15,20,13,12,5,3
1501935821199602,-3,-4,0,-124,-16,-5,-2,-3
1501935821199602,1,0,-8,-58,-8,-1,0,1
1501935821206570,-1,2,11,-6,1,2,0,-3
1501935821206570,-3,-7,-28,-7,37,8,-1,-3
1501935821223538,-1,-2,13,127,16,-5,1,-2
1501935821223538,6,10,18,-80,-6,12,4,4
1501935821224540,-2,-10,-53,-95,-15,-10,-3,-2
1501935821224540,-5,-9,-29,43,6,-8,-5,-2
1501935821245539,2,3,-6,-10,-32,-2,0,-2
1501935821245539,1,1,-5,114,19,0,-2,0
1501935821247540,-13,-13,16,-66,-47,-17,-7,-7
1501935821247540,-3,-3,-8,-77,-33,-9,-1,-2
1501935821259606,-3,-1,8,38,5,-4,-3,0
1501935821259606,0,-2,-8,-30,-16,2,0,0
1501935821266556,3,6,-3,6,5,3,2,2
1501935821266556,-6,-7,7,-18,-21,-11,-5,-5
1501935821283554,-2,-5,3,-12,6,1,-2,-4
1501935821283554,3,5,7,-65,5,-2,0,-1
1501935821284540,-2,1,23,90,21,7,4,0
1501935821284540,-6,-7,6,-71,1,-9,-8,-5
1501935821305606,4,7,19,23,19,1,3,3
1501935821305606,-5,-9,-46,-52,-24,-7,-2,-2
1501935821307544,1,1,-10,16,15,10,2,1
1501935821307544,0,2,15,94,4,-3,2,1
1501935821319592,3,3,-13,46,14,12,3,1
1501935821319592,-9,-8,10,17,28,-12,-7,-4
1501935821328558,2,-1,-20,-7,-13,1,1,-1
1501935821328558,3,7,22,65,27,11,4,2
1501935821343544,0,0,-6,-40,-29,-3,-3,-3
1501935821343544,-2,-3,-31,32,-1,0,-2,-3
1501935821344544,0,-4,1,-2,25,5,-1,-1
1501935821344544,1,4,6,59,1,-2,1,3
1501935821365589,-2,-5,-15,-23,-13,-6,-4,-3
1501935821365589,-4,-2,-2,-88,-24,-2,-3,0
1501935821367548,-1,0,1,36,-7,-1,0,1
1501935821367548,5,1,-7,17,36,14,0,-3
1501935821379589,-9,-9,-13,-108,-84,-27,-9,-5
1501935821379589,2,3,3,108,8,4,5,0
1501935821388562,3,8,36,96,14,1,-2,-1
1501935821388562,-4,-7,-17,24,-21,1,1,-3
1501935821403561,-1,-4,-3,63,50,8,-4,-4
1501935821403561,-1,-3,-6,-76,-28,-9,1,1
1501935821404548,-3,-4,0,-45,-19,-10,0,-1
1501935821404548,3,4,17,33,25,9,-1,0
1501935821425591,-14,-20,-44,-106,-61,-28,-9,-6
1501935821425591,3,-1,-2,79,19,2,-1,1
1501935821427563,-1,-3,3,-26,2,1,-1,-1
1501935821427563,-3,-5,-21,-12,-14,-6,-3,1
1501935821439614,1,6,7,-26,29,9,2,-6
1501935821439614,-3,-3,7,32,1,-5,-3,-3
1501935821448565,-3,-4,-12,-9,-13,-1,1,0
1501935821448565,-8,-10,-19,-128,-45,-11,-5,-6
1501935821463569,4,7,10,-1,-22,-7,3,6
1501935821463569,-3,-7,-28,-51,-7,1,-1,-4
1501935821464553,0,4,19,72,9,3,-1,1
1501935821464553,-1,-2,-28,-78,-33,-6,-1,0
1501935821484594,4,5,24,48,13,12,5,5
1501935821484594,-4,-2,0,-71,-37,-8,-4,-3
1501935821491598,2,-1,-3,75,21,-1,-3,0
1501935821491598,2,9,20,-10,-13,4,3,3
1501935821508570,-6,-10,-12,-47,-25,-6,-2,-9
1501935821508570,2,5,10,69,20,5,0,2
1501935821509562,2,3,-10,-64,-24,0,2,1
1501935821509562,4,2,-8,-35,-10,2,1,-1
1501935821530605,7,9,15,9,44,9,5,8
1501935821530605,-5,2,42,56,2,2,-1,-6
1501935821532588,-3,-8,-55,-73,-31,-7,-2,-3
1501935821532588,4,3,-13,75,23,6,2,2
1501935821545580,-3,0,20,75,-10,0,-2,2
1501935821545580,3,1,-24,-99,-15,-3,2,2
1501935821551622,-3,-3,18,127,-5,-10,-5,-6
1501935821551622,-3,-3,8,-47,9,-2,-1,2
1501935821568568,0,2,17,3,8,0,-2,-2
1501935821568568,1,-1,-1,10,7,1,-2,1
1501935821569559,2,4,17,-66,9,7,-2,-4
1501935821569559,-6,-12,-15,35,-10,-5,-2,-2
1501935821590602,-3,-4,1,84,23,1,-1,-4
1501935821590602,4,2,2,47,-10,2,1,0
1501935821592570,-1,1,2,13,27,4,-2,-3
1501935821592570,-3,-2,-7,-49,-14,-7,-2,-4
1501935821604602,-2,-7,-17,7,1,-5,-4,-2
1501935821604602,5,15,49,46,22,11,8,4
1501935821611609,-5,-9,-27,-57,-31,-6,-1,1
1501935821611609,0,0,-9,13,1,0,-1,-2
1501935821628575,6,9,6,37,10,8,4,3
1501935821628575,-5,-5,19,9,-1,-9,-6,-1
1501935821629565,4,2,17,120,12,1,-1,6
1501935821629565,-5,-2,-5,-74,-2,-11,-4,-8
1501935821650631,0,-2,-10,7,24,6,0,-1
1501935821650631,-2,-5,-9,-37,-41,-6,0,1
1501935821652565,0,4,31,87,15,0,-2,-1
1501935821652565,-2,-6,-9,-21,-35,-7,0,-2
1501935821664630,7,10,12,109,54,22,4,4
1501935821664630,-16,-24,-27,-40,-18,-18,-14,-13
1501935821671610,1,1,-14,-33,-14,-4,1,-2
1501935821671610,2,1,3,56,5,3,1,2
1501935821688576,-1,1,-14,-63,-4,-1,0,0
1501935821688576,2,2,1,26,15,4,0,0
1501935821689593,-2,-6,-19,-44,-7,-3,1,-2
1501935821689593,-5,-2,13,-58,-10,-6,-5,-4
1501935821710615,-1,-2,-5,33,-16,-8,-4,0
1501935821710615,-2,-3,5,92,17,4,0,-3
1501935821712599,3,3,4,-12,10,3,4,3
1501935821712599,0,1,12,49,43,6,-1,-1
1501935821724609,0,-6,-6,-112,-22,-6,-5,-2
1501935821724609,1,3,-2,-73,-6,-2,1,-4
1501935821731624,-4,-11,-32,12,11,-6,-4,-3
1501935821731624,2,9,28,-12,20,9,1,-1
1501935821748571,-10,-12,-22,-55,5,-12,-5,-7
1501935821748571,5,5,-16,-5,-3,5,2,3
1501935821749581,-3,0,28,75,-12,-1,-3,0
1501935821749581,1,-4,-4,36,15,1,-1,-6
1501935821770611,0,3,6,29,-15,-9,-3,0
1501935821770611,3,5,1,60,-24,2,4,3
1501935821772605,-3,-2,-19,2,26,-2,-3,-2
1501935821772605,-1,0,9,119,-5,-2,0,2
1501935821784618,-1,1,6,-43,-8,3,1,-3
1501935821784618,2,2,-10,15,0,0,2,2
1501935821791613,4,5,6,14,2,6,2,3
1501935821791613,0,0,16,43,16,2,-2,-1
1501935821808586,-4,-5,-30,-49,-27,-15,-3,2
1501935821808586,0,1,3,11,21,0,-1,0
1501935821809573,-3,-3,-24,1,4,9,5,1
1501935821809573,-5,-5,-29,-75,-49,-11,-2,0
1501935821830642,0,4,20,55,17,6,1,0
1501935821830642,-6,-10,-29,40,8,-7,-1,1
1501935821832609,-2,-1,31,-71,-57,-8,-3,-3
1501935821832609,3,6,18,56,19,3,1,3
1501935821845573,-6,-13,-43,-78,-28,-9,-5,-5
1501935821845573,-2,-3,-7,31,-2,1,0,-1
1501935821853576,-2,-2,-2,-31,9,1,-3,-3
1501935821853576,-1,-3,-22,-79,-25,1,1,3
1501935821868590,-3,0,16,100,-8,-7,-1,-2
1501935821868590,2,3,4,16,2,5,0,0
1501935821869576,0,0,-8,-57,2,-2,1,-1
1501935821869576,-2,-4,12,84,8,-4,-1,1
1501935821890619,4,7,2,48,17,9,1,-3
1501935821890619,-2,-1,27,-58,-5,-1,0,0
1501935821892609,-3,-2,5,43,9,-3,-5,-7
1501935821892609,6,8,23,-58,-2,7,5,4
1501935821904619,-2,1,6,-22,0,2,2,2
1501935821904619,0,1,7,-42,4,-3,-3,-4
1501935821913592,1,4,8,81,18,4,2,1
1501935821913592,-2,0,1,10,-16,-4,-3,0
1501935821928599,3,6,22,-78,-3,5,2,-4
1501935821928599,2,2,9,-83,0,-1,-2,2
1501935821929582,-3,-4,-21,-22,-27,-4,-2,-1
1501935821929582,-5,-8,-10,9,1,-3,-3,-4
1501935821950619,-1,-3,-9,77,3,-4,0,3
1501935821950619,-1,-2,-23,-61,3,4,0,0
1501935821952612,-2,-5,-9,-87,-2,-7,-3,1
1501935821952612,-3,4,12,-41,9,-4,-4,-5
1501935821964630,-4,-11,-29,-5,-18,-6,-3,-4
1501935821964630,-1,0,1,59,28,5,-1,-1
1501935821973594,-2,-2,-2,49,-13,-5,-1,1
1501935821973594,0,-3,-8,54,-4,0,1,1
1501935821988594,0,3,14,-59,10,3,-1,0
1501935821988594,0,-3,4,43,-8,-5,-2,-3
1501935821989609,-1,0,-5,15,16,2,1,-1
1501935821989609,-6,-11,-19,-21,-11,-7,-6,-5
1501935822010606,2,3,-15,-49,2,-2,-2,-2
1501935822010606,-8,-11,10,86,26,-4,-1,-4
1501935822012583,3,2,-2,-68,-34,-4,-2,3
1501935822012583,-2,-2,4,95,5,0,-3,-8
1501935822024597,1,-6,-14,31,11,1,-1,2
1501935822024597,-1,-1,-16,-91,-24,-4,-4,-2
1501935822033599,2,2,-5,46,25,7,0,0
1501935822033599,2,3,13,12,25,7,3,3
1501935822048586,3,8,32,90,19,7,1,-3
1501935822048586,-3,-1,-10,-11,-50,-10,-1,0
1501935822049585,-4,-10,-38,-20,-13,-2,-2,-2
1501935822049585,2,3,7,9,-10,-3,1,2
1501935822070628,-2,-2,6,69,0,-4,-3,0
1501935822070628,0,2,-1,71,25,4,1,1
1501935822072626,0,1,14,62,-5,-3,1,1
1501935822072626,3,1,-20,-64,-11,-1,0,3
1501935822084635,-3,-1,9,-1,0,-2,1,0
1501935822084635,-1,-2,-2,66,14,-2,-1,-4
1501935822093589,-6,-4,13,7,-33,-8,-6,-4
1501935822093589,2,4,9,-97,16,7,2,3
1501935822107653,-1,-4,-15,14,-9,0,-2,3
1501935822107653,4,7,3,48,3,3,0,1
1501935822114632,-9,-16,-27,25,-24,-18,-5,0
1501935822114632,-1,2,7,-2,-9,1,-1,-1
1501935822130632,1,1,7,21,15,5,1,-1
1501935822130632,-1,-4,-12,-67,-20,-5,-3,0
1501935822132625,0,4,16,34,26,8,1,0
1501935822132625,1,-3,-3,46,-9,-8,-5,0
1501935822144631,-3,-3,16,70,12,0,-4,-3
1501935822144631,7,12,14,47,7,8,5,6
1501935822153602,-2,-4,-40,-118,-15,-8,-1,-4
1501935822153602,2,2,-9,-4,7,7,1,2
1501935822168592,-3,-2,3,50,6,-2,-2,-5
1501935822168592,-3,-3,-1,-124,-22,4,-1,-2
1501935822169615,-2,0,12,-48,-14,-11,-2,-2
1501935822169615,1,-3,-26,32,9,3,2,0
1501935822190594,-3,-1,-3,-125,-17,-1,1,0
1501935822190594,0,-8,-16,-18,-14,-4,-4,-2
1501935822192628,-4,3,9,18,15,5,3,-1
1501935822192628,-6,-8,-8,47,-1,-8,-5,-4
1501935822204642,-1,-4,-12,-31,20,5,0,3
1501935822204642,-2,-4,-7,-104,-19,-4,-1,0
1501935822213605,8,9,16,-23,16,9,5,1
1501935822213605,-3,-3,1,49,-1,-5,-1,-1
1501935822228612,3,1,-13,-23,-3,1,2,6
1501935822228612,0,-3,7,19,28,4,0,-4
1501935822229597,5,6,17,-5,-12,1,1,2
1501935822229597,-7,-5,-20,-79,-33,-16,-3,-5
1501935822250642,1,2,4,18,-18,2,0,3
1501935822250642,-2,-2,-15,-34,3,-2,-2,-3
1501935822252606,-2,-1,38,77,16,2,0,-1
1501935822252606,2,1,-5,74,16,1,1,1
1501935822273615,-2,-3,-3,-100,-45,-5,-1,-2
1501935822273615,-4,-6,-12,114,6,-3,-3,-1
1501935822274599,4,4,-4,-115,-1,5,0,1
1501935822274599,-8,-4,17,6,-12,-15,-5,-4
1501935822288623,-1,-1,1,28,12,1,-1,-3
1501935822288623,3,3,2,-39,-5,8,1,1
1501935822289600,-1,-3,8,98,22,4,-4,-2
1501935822289600,2,-1,-25,-58,-13,-3,-1,2
1501935822310634,-2,-2,8,24,7,-6,-3,-4
1501935822310634,-2,-3,-15,-31,-12,-5,1,0
1501935822312602,-1,1,0,51,31,2,-3,-5
1501935822312602,3,5,30,83,11,9,1,1
1501935822333624,-4,-4,-7,97,-11,-9,-2,0
1501935822333624,-2,-5,-10,38,12,-3,-3,-4
1501935822334634,4,6,12,-33,17,3,1,0
1501935822334634,-6,-8,-2,36,12,2,0,-4
1501935822348618,2,3,18,-13,15,6,1,1
1501935822348618,-1,0,4,45,-22,-2,0,1
1501935822349614,-4,-7,0,-30,-28,-14,-5,-3
1501935822349614,5,6,-3,-117,-15,5,1,0
1501935822370648,-3,-2,-24,31,7,-2,-1,-3
1501935822370648,-4,-6,-7,-76,-14,-4,-3,-2
1501935822372614,-5,-8,-20,47,-6,-10,-5,-5
1501935822372614,1,-2,-18,19,13,7,0,0
1501935822393612,2,6,9,-91,-28,-2,1,7
1501935822393612,-1,-2,-14,92,17,0,-1,-4
1501935822394614,2,2,-6,-4,-4,5,1,3
1501935822394614,-4,-4,-5,3,-3,-6,-3,-3
1501935822407668,-2,-2,-4,-36,11,0,-2,-2
1501935822407668,1,4,16,-7,5,1,-1,2
1501935822414678,4,6,38,43,1,5,4,2
1501935822414678,-10,-9,-28,12,12,-13,-7,-5
1501935822431631,-1,-4,10,46,-22,-2,-1,-4
1501935822431631,0,5,-8,47,3,-3,1,0
1501935822432607,2,1,-4,-55,2,3,4,1
1501935822432607,-2,-4,6,-56,-6,-3,-4,-3
1501935822453609,-1,0,16,34,3,-7,-2,-3
1501935822453609,-3,-1,-1,-26,-6,-2,-3,-4
1501935822454610,-4,-11,-29,-31,-5,-4,-4,-4
1501935822454610,2,5,14,34,14,9,3,0
1501935822467667,-1,-1,-17,-31,-1,0,-2,-2
1501935822467667,2,4,39,22,12,5,1,1
1501935822474678,0,-2,-6,80,19,7,-3,-3
1501935822474678,-1,-6,-24,7,-19,-7,-3,8
1501935822490652,-1,-2,-10,-77,-12,-2,-3,-10
1501935822490652,3,1,4,51,28,5,0,1
1501935822492645,-5,-8,-22,79,-19,-8,-3,-2
1501935822492645,-1,4,9,-94,-25,-1,-1,-1
1501935822513640,1,1,-10,81,18,5,0,0
1501935822513640,-2,-4,-3,-62,-11,-8,-1,-1
1501935822514611,-2,-2,-3,-37,-1,-1,-3,-1
1501935822514611,0,-1,-7,-29,-7,2,1,-1
1501935822527660,0,-1,-8,-34,6,2,1,0
1501935822527660,-1,2,5,22,11,5,1,-2
1501935822534688,4,12,10,36,-6,4,1,1
1501935822534688,-12,-17,-17,6,-9,-24,-9,-8
1501935822550658,-1,0,0,42,-3,-3,1,0
1501935822550658,-1,-2,-1,-55,-15,-8,0,4
1501935822552649,-3,-3,-10,-103,-9,-2,-3,-3
1501935822552649,12,13,24,127,36,13,4,2
1501935822573634,-9,-8,5,-71,-21,-12,-4,-4
1501935822573634,0,1,12,-7,-17,-3,0,-1
1501935822574625,-2,1,-9,91,19,0,-4,1
1501935822574625,2,6,26,-49,20,10,4,0
1501935822587688,-7,-15,-44,6,-21,-11,-4,-4
1501935822587688,0,2,-5,26,2,-2,-1,2
1501935822601681,-2,-1,2,-6,1,-1,0,-3
1501935822601681,1,3,5,103,7,7,3,1
1501935822610657,5,8,27,6,-11,7,3,6
1501935822610657,-6,-9,-4,17,-10,-9,-6,-8
1501935822612654,-1,-2,3,22,-1,-3,1,-1
1501935822612654,-1,-3,-19,-93,-12,-2,-2,2
1501935822632686,-1,-1,-4,-8,9,5,2,-4
1501935822632686,0,-5,-16,56,15,4,-1,-2
1501935822634618,-4,-1,24,33,9,-3,-1,-5
1501935822634618,2,3,13,-12,-25,-3,1,0
1501935822647684,4,5,13,-1,7,8,1,3
1501935822647684,-1,-3,-10,23,7,1,0,-3
1501935822654659,-1,-1,-3,-75,-17,-4,-2,0
1501935822654659,-5,-2,17,74,1,-6,-2,-1
1501935822670672,3,-5,-44,-68,-14,1,-2,4
1501935822670672,-2,4,37,20,6,-1,-1,-3
1501935822672657,2,2,-4,-32,-23,-3,2,5
1501935822672657,5,0,0,-106,-19,2,-1,2
1501935822693623,-8,-2,13,15,9,0,-2,-7
1501935822693623,6,-2,-3,7,10,-7,-1,16
1501935822694623,3,6,-8,-9,6,15,4,1
1501935822694623,-18,-10,8,-4,-3,-13,-8,-46
1501935822707688,7,-5,-16,20,1,-6,-3,-1
1501935822707688,-9,-4,-24,-39,-15,1,2,-8
1501935822714640,0,-3,3,-16,12,-4,-2,9
1501935822714640,0,-2,-6,7,-4,2,0,7
1501935822730668,-6,2,11,88,7,6,-1,-8
1501935822730668,-4,0,0,-119,-42,-4,-1,-13
1501935822732624,-1,-3,21,71,5,-6,0,4
1501935822732624,6,0,-3,105,23,6,1,11
1501935822753627,1,1,7,-57,-5,-4,1,3
1501935822753627,4,2,-9,4,12,-6,-1,6
1501935822754626,2,-2,-11,-75,-22,6,0,-4
1501935822754626,-7,-1,-4,67,16,-1,-2,0
1501935822766648,0,8,12,43,17,2,1,-6
1501935822766648,-3,-6,-17,52,-11,-1,-1,6
1501935822775630,-1,0,-4,-125,-5,-1,-2,-5
1501935822775630,-7,-5,-16,29,8,-8,-1,-1
1501935822790660,3,3,6,-35,-3,-1,1,7
1501935822790660,1,0,-14,33,16,-1,-1,4
1501935822792629,-4,-2,-16,17,20,6,2,-3
1501935822792629,-5,-9,-14,-24,-13,-7,-4,-6
1501935822813631,4,-5,-23,-19,1,-8,-4,14
1501935822813631,-2,0,-13,9,1,8,3,6
1501935822814630,-5,-6,-15,-50,-5,-15,-7,-42
1501935822814630,-3,3,15,19,-1,2,0,-2
1501935822826629,0,-5,-8,-63,-6,1,-1,3
1501935822826629,3,0,8,15,7,0,-3,-8
1501935822835632,-4,0,-2,26,-3,-2,0,6
1501935822835632,0,1,-13,-100,-19,-7,1,3
1501935822850632,-3,-2,6,23,19,14,0,-6
1501935822850632,-6,-6,-3,90,-22,-11,-6,-4
1501935822852631,3,6,19,-1,11,11,3,7
1501935822852631,5,2,18,90,16,-2,0,3
1501935822872632,-6,-5,12,-77,-43,-13,-5,-4
1501935822872632,-1,6,21,-13,4,2,1,-1
1501935822874634,3,0,-10,31,2,-3,-1,2
1501935822874634,-4,-3,1,20,-20,-2,0,-1
1501935822886671,4,5,-16,92,21,8,2,1
1501935822886671,-8,-10,5,-128,-58,-14,-4,-7
1501935822895694,-5,-7,-5,65,-10,-13,-6,-3
1501935822895694,4,0,0,-54,-9,7,1,0
1501935822910637,-4,6,5,47,-1,-4,-1,-6
1501935822910637,1,0,6,23,39,9,0,-4
1501935822912634,0,-6,-14,3,4,-5,-2,7
1501935822912634,5,6,15,-43,-5,7,3,7
1501935822932680,-3,-9,-36,-6,3,-6,-2,-5
1501935822932680,-2,-7,-30,-36,28,-1,-2,-4
1501935822934645,0,-2,-5,-76,-26,2,3,4
1501935822934645,-6,8,10,21,9,9,3,-12
1501935822946689,6,-9,15,76,1,-10,-5,4
1501935822946689,4,-2,-31,50,19,4,1,1
1501935822955645,-11,-5,-11,13,-9,-6,-5,-3
1501935822955645,6,4,13,62,-8,-3,2,-1
1501935822970638,-4,1,21,-7,24,7,3,3
1501935822970638,-5,-7,-24,-57,-10,-7,-4,1
1501935822972638,1,-1,-2,35,14,1,-1,-5
1501935822972638,3,0,-3,-48,6,5,-2,3
1501935822993643,-3,0,11,34,-5,-13,-5,0
1501935822993643,-1,5,26,30,3,8,3,-6
1501935822994640,1,1,2,-70,-7,-2,1,5
1501935822994640,3,-1,0,80,41,7,-2,3
1501935823006682,-4,-5,13,84,-3,-7,-4,-2
1501935823006682,-5,4,10,20,-21,1,1,-9
1501935823015648,11,1,3,5,6,4,0,16
1501935823015648,-4,-2,-14,-81,-16,-10,-4,-9
1501935823030689,0,1,3,-1,8,6,2,4
1501935823030689,1,-3,-6,-65,-24,-10,-5,-14
1501935823032672,-7,1,33,22,0,5,1,-10
1501935823032672,3,-1,-31,28,5,0,-1,5
1501935823052705,-4,2,10,-34,-9,-3,-1,-5
1501935823052705,-3,-4,22,72,18,-7,-2,11
1501935823054675,24,3,0,-39,-5,1,-5,-33
1501935823054675,-4,5,34,-9,-1,2,5,29
1501935823066693,-6,2,1,-17,-9,-6,-3,-45
1501935823066693,-9,-2,-9,-10,3,4,1,4
1501935823075644,-12,-7,-29,47,-8,-4,0,4
1501935823075644,8,-5,-13,43,-3,-1,-2,28
1501935823090717,6,-1,-1,-57,-9,-3,-3,-11
1501935823090717,8,6,21,39,5,6,2,3
1501935823092645,1,2,17,-30,6,-3,-3,-25
1501935823092645,-30,-6,-3,-13,14,-1,-6,-32
1501935823113680,7,0,-4,-29,-25,4,3,31
1501935823113680,-7,0,-24,-35,-6,0,-3,-14
1501935823114655,-6,-4,3,35,9,0,0,5
1501935823114655,15,-4,-25,3,-10,-3,0,23
1501935823126709,-1,3,0,6,3,7,1,-27
1501935823126709,-6,-1,10,-110,-20,-3,-3,26
1501935823135647,-8,-8,-16,2,10,-5,-6,-7
1501935823135647,15,6,26,-15,-1,1,4,-1
1501935823150691,-21,-4,-13,-5,10,-1,1,-29
1501935823150691,-10,-3,-2,6,-24,-1,-4,7
1501935823152684,-4,2,-3,-34,6,2,2,14
1501935823152684,19,0,-12,-69,-16,-7,-5,-21
1501935823172719,-8,0,7,10,-2,1,1,24
1501935823172719,-2,1,14,127,39,2,0,-21
1501935823174683,-11,-2,-8,-89,-36,-5,-4,-4
1501935823174683,-2,0,15,39,5,1,1,7
1501935823186693,15,6,-15,61,-2,3,-1,14
1501935823186693,19,-11,-5,-28,-20,-17,-1,12
1501935823195650,-25,0,4,81,18,0,-1,-19
1501935823195650,18,5,1,-31,-21,9,2,19
1501935823210691,-8,-6,3,-12,13,-3,-4,-1
1501935823210691,6,5,14,-4,9,4,4,1
1501935823212653,6,-1,-25,57,27,4,1,-2
1501935823212653,-14,-1,7,11,-5,-6,-1,-10
1501935823233679,3,-1,-10,-13,7,2,-2,19
1501935823233679,3,1,12,-28,5,1,-2,-29
1501935823234653,-9,-2,7,-54,-39,-11,-3,9
1501935823234653,-10,2,16,-1,2,-1,1,-6
1501935823255700,-4,-9,-9,17,5,0,-5,-2
1501935823255700,2,-10,-51,-43,-22,-5,-3,7
1501935823257655,5,1,2,91,14,-3,-2,9
1501935823257655,-7,-5,-2,17,-12,-1,0,-5
1501935823270722,2,-2,-3,-11,-26,-6,-1,5
1501935823270722,-9,7,22,72,38,7,0,21
1501935823272656,-2,-7,-21,-85,-25,-8,-5,-22
1501935823272656,1,0,-10,-1,5,-2,-2,0
1501935823292697,9,-2,-1,10,2,0,-5,5
1501935823292697,-28,0,-10,13,-16,-1,3,-19
1501935823294657,7,4,8,66,12,5,4,23
1501935823294657,-6,-3,-5,-46,12,1,-5,-11
1501935823315697,1,2,-1,-10,1,-1,4,2
1501935823315697,4,-5,-17,-37,-17,-3,-1,5
1501935823317662,2,0,7,57,9,-2,-2,-7
1501935823317662,-15,-6,-9,-68,-10,-12,-5,-12
1501935823330727,-1,2,-1,27,6,6,-1,-2
1501935823330727,7,1,11,16,4,4,-3,5
1501935823332659,-2,1,8,56,27,8,3,12
1501935823332659,9,-1,-22,42,7,0,-3,9
1501935823352734,-5,-2,22,-4,-23,-7,-2,-3
1501935823352734,5,1,-4,-88,-4,-4,-3,-7
1501935823354660,3,0,7,7,-9,-2,-1,20
1501935823354660,3,-1,-15,11,8,1,0,-7
1501935823375704,-3,-2,-8,-53,-10,0,-1,2
1501935823375704,-2,5,47,112,50,8,2,-5
1501935823377699,4,1,-24,-20,-43,-10,-1,6
1501935823377699,-1,-1,0,-39,-10,0,0,6
1501935823389725,-2,2,-1,21,7,-2,1,-20
1501935823389725,1,-5,-23,79,12,4,1,1
1501935823396701,1,1,21,54,-10,-4,-3,1
1501935823396701,-7,-5,9,31,-19,-6,-2,-1
1501935823412704,-1,1,-3,-22,5,1,1,6
1501935823412704,7,2,-7,29,3,-3,-1,7
1501935823414700,5,3,-15,-100,4,10,6,-1
1501935823414700,-10,-6,6,-5,-10,-5,-7,-13
1501935823435725,1,0,-6,4,9,-1,-1,-3
1501935823435725,-3,-1,-7,33,-5,-1,-1,-2
1501935823437666,-3,-1,24,-19,-5,-5,-2,2
1501935823437666,-2,-5,0,37,-3,-5,-4,-3
1501935823449723,-5,-7,-27,-57,1,-1,-2,-6
1501935823449723,2,4,13,33,-10,-1,0,3
1501935823456710,3,-3,-6,24,11,5,-3,-6
1501935823456710,-3,1,2,-42,2,2,2,-5
1501935823473667,4,7,22,92,41,10,0,2
1501935823473667,-4,-5,-42,-128,-53,-14,-1,0
1501935823474677,6,0,32,111,11,-6,-2,-2
1501935823474677,-16,-5,-29,-86,-2,-1,1,-8
1501935823495668,3,1,-6,1,-9,-1,2,2
1501935823495668,4,3,7,-23,10,5,0,0
1501935823497669,2,1,-3,-27,4,5,1,3
1501935823497669,-1,1,24,13,-22,0,-2,-4
1501935823509714,-3,0,4,-29,-2,-5,-1,-5
1501935823509714,2,1,18,62,2,-2,0,-4
1501935823516702,-4,-6,-15,-20,-11,-1,0,-5
1501935823516702,5,2,-4,116,26,3,-1,5
1501935823532728,-1,-3,26,-96,-23,-9,-4,26
1501935823532728,-4,-4,-7,26,-6,1,-2,-15
1501935823534680,-4,-1,-17,-8,-6,-4,-1,-4
1501935823534680,4,3,-5,-42,6,8,1,0
1501935823555716,2,1,2,-10,-5,-7,-2,7
1501935823555716,-5,-4,13,-1,2,-4,-2,-4
1501935823557673,1,4,41,7,19,12,0,3
1501935823557673,-4,-6,-12,45,6,-7,-5,0
1501935823569736,-1,-2,-17,-4,-5,2,1,-9
1501935823569736,1,1,-2,-29,1,5,0,1
1501935823576715,-3,-2,3,-60,4,-4,-2,-6
1501935823576715,3,1,1,2,-7,1,0,0
1501935823592737,1,-3,-7,29,4,-2,-3,-6
1501935823592737,4,0,2,-28,-19,-4,0,0
1501935823594707,-3,-2,-4,12,7,5,0,11
1501935823594707,-1,2,7,11,2,-5,-2,-9
1501935823615717,-6,-4,-7,31,11,0,-1,-6
1501935823615717,2,2,3,-66,-3,-2,1,7
1501935823617676,-3,-12,-63,57,-15,-13,-6,1
1501935823617676,-2,2,4,-39,-10,3,3,1
1501935823629719,2,-2,2,99,21,4,1,-7
1501935823629719,-4,-4,-19,-56,-17,-7,-1,-6
1501935823636739,3,3,12,41,19,7,1,1
1501935823636739,0,-3,-20,-49,-13,-4,-2,-1
1501935823652740,-7,-5,-10,37,2,-2,-3,3
1501935823652740,5,9,39,53,28,11,2,4
1501935823654677,-8,-8,-3,-41,-15,-12,-5,-8
1501935823654677,1,1,16,121,39,6,1,1
1501935823675721,-4,-4,1,-105,-54,-12,-7,-1
1501935823675721,-4,-6,-13,40,-12,-7,-4,-10
1501935823677680,0,4,9,-5,9,3,3,1
1501935823677680,1,-1,0,-23,-22,-6,-4,1
1501935823689689,-3,-3,-6,-37,-2,-4,-3,-4
1501935823689689,1,0,4,46,12,4,-3,2
1501935823696737,1,3,2,-22,-15,0,0,-1
1501935823696737,-1,-4,-9,-51,-14,-4,-2,3
1501935823712728,-4,5,10,9,8,7,2,-19
1501935823712728,5,-3,-11,-7,-5,-4,-1,15
1501935823714681,0,-1,-8,-30,3,6,2,-8
1501935823714681,5,2,-4,78,15,4,-1,0
1501935823735687,-8,1,-15,-56,-30,-1,4,3
1501935823735687,-1,-2,9,13,7,0,-3,4
1501935823736681,-5,0,3,4,0,-8,-5,-2
1501935823736681,-2,-2,-1,-20,6,-4,0,-7
1501935823749693,6,6,10,41,4,8,2,5
1501935823749693,-14,-10,-16,-1,1,-12,-5,-16
1501935823758685,5,4,24,-8,-12,0,0,10
1501935823758685,-11,-6,-8,43,2,-4,-4,0
1501935823773704,2,1,9,-6,5,0,3,11
1501935823773704,2,6,17,12,7,3,1,-3
1501935823774717,-6,-12,-69,2,-6,-6,-3,-5
1501935823774717,-2,-2,0,-62,-16,2,1,-2
1501935823795685,6,-3,-26,-76,-13,-1,-2,6
1501935823795685,4,0,1,13,-3,1,0,6
1501935823796686,-12,2,16,-10,-5,-2,-2,-19
1501935823796686,2,3,4,42,10,6,1,-1
1501935823817730,1,-1,0,27,6,-4,-2,-1
1501935823817730,-5,-7,-4,46,-4,-5,-4,-13
1501935823819686,7,1,12,-1,9,-3,0,14
1501935823819686,0,-6,-47,-103,-31,0,1,2
1501935823832754,0,-2,13,44,4,-1,-3,-3
1501935823832754,0,2,-7,29,12,4,-2,-8
1501935823834697,6,0,0,90,3,2,2,12
1501935823834697,-15,-7,7,-36,10,-8,-4,-6
1501935823855732,0,2,2,11,-24,-5,0,-2
1501935823855732,3,1,-26,-65,-4,0,-1,4
1501935823857689,7,0,11,76,10,4,-1,13
1501935823857689,6,7,17,-53,-10,-2,2,1
1501935823869706,8,-2,-4,69,26,6,-1,25
1501935823869706,-16,-8,-34,-63,-21,-7,-4,-17
1501935823878723,-8,0,10,4,-1,0,0,-13
1501935823878723,10,3,19,42,9,2,-1,16
1501935823892704,-3,-6,-17,-31,-2,-2,0,-3
1501935823892704,1,-1,-7,2,14,5,-2,-10
1501935823894694,7,-2,-6,-32,-19,-9,-1,4
1501935823894694,-4,2,3,24,-4,1,-2,-3
1501935823915762,-3,1,12,-25,6,0,0,-11
1501935823915762,3,2,17,10,10,5,1,10
1501935823916728,-5,0,9,12,-3,-6,-1,-18
1501935823916728,2,2,1,5,9,5,-2,-3
1501935823929703,-2,-6,3,32,-7,-7,-3,0
1501935823929703,-4,-4,0,19,-6,-5,-1,-6
1501935823938694,-6,-1,-5,2,-5,3,2,12
1501935823938694,5,4,16,53,-2,3,4,2
1501935823952758,-15,-4,-21,-60,-16,-6,-2,-2
1501935823952758,4,-2,-12,-1,-3,0,-3,-25
1501935823954698,6,6,17,-14,-19,0,-1,4
1501935823954698,-1,-2,-7,60,27,4,-2,-6
1501935823975740,-1,2,16,14,-19,-3,2,-2
1501935823975740,2,2,5,-27,-1,3,2,12
1501935823977697,-5,-4,-12,-18,9,-3,-2,-4
1501935823977697,0,-2,-6,8,4,-6,-3,-7
1501935823989709,6,6,18,41,16,7,-1,-4
1501935823989709,-3,2,5,-94,-47,-6,0,9
1501935823998702,4,0,-5,-6,8,7,2,1
1501935823998702,-5,-4,9,-8,-12,-5,-2,-13
1501935824012739,0,-3,-21,-9,3,1,-1,-4
1501935824012739,-1,-2,4,45,16,-5,-5,1
1501935824014699,-2,-4,-12,-26,-4,-1,-3,1
1501935824014699,1,-1,7,-7,-5,1,1,4
1501935824035700,-4,-1,6,67,20,3,-4,-10
1501935824035700,1,1,2,30,4,-1,0,2
1501935824037701,5,0,-6,56,43,11,-1,-1
1501935824037701,-4,-2,5,29,-25,-7,-1,1
1501935824049716,2,2,9,61,-4,-3,2,-9
1501935824049716,-4,-4,4,59,-2,-2,-4,-3
1501935824058703,5,9,36,7,8,11,3,-6
1501935824058703,-10,-7,-22,-101,-19,-13,-5,3
1501935824072742,2,0,-1,-6,-2,-2,0,0
1501935824072742,0,-4,-10,23,19,7,2,5
1501935824074702,-1,-1,6,-33,-18,0,2,-1
1501935824074702,2,-1,-15,5,15,7,-2,-4
1501935824095744,-4,-4,-2,-7,-4,-8,-5,-3
1501935824095744,0,1,20,-31,-7,-5,0,13
1501935824097703,-3,-2,-4,0,3,-1,-1,-8
1501935824097703,1,3,4,-32,-7,4,1,-5
1501935824109725,-4,-5,-16,94,52,0,-2,-2
1501935824109725,1,1,9,-46,-29,-5,-1,0
1501935824118705,-7,-2,-11,-15,-3,-3,-2,1
1501935824118705,3,0,2,-27,2,-1,0,3
1501935824132771,4,3,8,-112,-24,-1,-1,2
1501935824132771,-2,0,-9,-2,7,3,2,-4
1501935824134705,-4,-3,-4,24,-5,-10,-5,-2
1501935824134705,0,-2,-10,0,-1,-4,0,0
1501935824155743,-1,-3,-12,-32,-9,2,0,-3
1501935824155743,3,3,2,82,35,8,3,5
1501935824156718,-6,-9,-15,-26,-7,-11,-7,-7
1501935824156718,-2,3,9,-31,-3,-2,1,-2
1501935824177745,4,-1,-4,-24,-5,1,0,-2
1501935824177745,-6,-5,-6,-26,-7,-5,-2,-3
1501935824179707,5,8,23,-45,-13,7,2,-3
1501935824179707,-8,-8,0,91,1,-10,-6,-9
1501935824192775,4,2,11,16,-6,-1,2,8
1501935824192775,2,3,-3,-25,-5,6,1,3
1501935824194741,-1,-5,-14,-34,11,-4,-1,-3
1501935824194741,5,2,-2,-6,-10,6,3,10
1501935824215752,-2,-1,-11,-5,-1,-3,-2,-6
1501935824215752,-4,0,1,-16,3,-2,-1,-6
1501935824216721,-2,3,15,2,-4,-1,-2,-10
1501935824216721,1,-7,-45,-8,-3,-1,0,1
1501935824237744,-2,-2,-4,-6,-7,-2,-2,-5
1501935824237744,-1,-4,-4,0,23,3,-2,-5
1501935824239711,-5,-2,-8,40,-8,-7,0,3
1501935824239711,5,4,27,72,-1,-1,1,7
1501935824251753,-3,-2,-13,7,7,-2,-4,-14
1501935824251753,-8,-14,-49,-88,-35,-13,0,4
1501935824260725,-1,-2,-1,-18,-13,-2,-3,-3
1501935824260725,1,2,4,45,32,9,1,1
1501935824275773,-9,-7,-9,-20,-45,-16,-6,-4
1501935824275773,1,0,5,-64,-23,-5,-2,0
1501935824276713,2,-4,-48,105,2,2,1,7
1501935824276713,-8,-9,-32,-66,-24,-10,-3,-21
1501935824297780,6,1,16,-5,4,2,2,18
1501935824297780,0,-1,4,46,1,1,-3,-4
1501935824299747,-2,-1,18,-34,-12,-6,-1,0
1501935824299747,4,3,20,16,7,3,-1,7
1501935824312781,-2,1,-5,5,11,1,0,-3
1501935824312781,-2,2,15,2,-10,0,-3,-1
1501935824319732,1,-4,-4,19,20,1,-1,-1
1501935824319732,0,4,3,-11,1,3,2,1
1501935824335759,-8,-6,8,5,1,-8,-6,-3
1501935824335759,5,6,31,106,21,6,1,8
1501935824337717,-3,-5,-49,-55,-19,1,-1,-14
1501935824337717,-3,-8,-18,-54,-28,-12,-5,-6
1501935824357791,-1,3,10,-3,-1,2,4,5
1501935824357791,0,-1,-4,38,7,-3,-1,-1
1501935824359750,1,0,12,-56,-5,0,-1,2
1501935824359750,-1,-2,9,54,11,4,2,1
1501935824372742,0,-2,-16,-30,1,0,0,-4
1501935824372742,2,4,12,-23,-27,-5,-1,2
1501935824379734,-3,-2,14,14,14,0,-2,-5
1501935824379734,2,3,-2,9,16,0,0,3
1501935824395786,-1,-6,-21,-86,-11,3,3,4
1501935824395786,-4,2,19,-53,3,1,2,-7
1501935824397721,2,-1,-12,-45,-16,-3,-3,6
1501935824397721,-1,-1,16,57,7,-5,-4,3
1501935824417784,-1,1,8,97,29,7,0,-3
1501935824417784,2,1,-18,-72,-2,-3,-1,8
1501935824419720,-6,-3,-3,36,-2,-10,-3,-6
1501935824419720,0,2,18,-21,0,2,-1,-3
1501935824432773,2,0,-20,39,10,3,-1,0
1501935824432773,-4,-9,-13,5,6,-1,-3,-9
1501935824439732,3,6,26,66,3,3,3,9
1501935824439732,-5,-4,8,41,9,-1,-3,-7
1501935824455761,-2,-2,-24,-46,-18,-7,-3,-5
1501935824455761,-3,-6,-17,29,6,1,-2,-4
1501935824457732,4,4,0,-38,5,2,0,4
1501935824457732,-9,-7,5,-13,-31,-10,-3,-4
1501935824477769,0,1,25,20,1,2,0,-3
1501935824477769,5,1,-9,-29,-1,-1,-1,3
1501935824479725,-8,-2,1,-13,8,0,-2,-4
1501935824479725,4,2,-1,38,10,2,0,-5
1501935824492775,0,4,12,-35,-13,-2,0,0
1501935824492775,1,3,-3,40,8,6,3,0
1501935824499754,-7,-9,8,-37,-26,-19,-6,1
1501935824499754,0,4,4,-95,-8,-5,-1,1
1501935824515725,-2,-4,-9,-6,-2,-1,1,2
1501935824515725,-1,-2,-4,39,-3,-2,-2,-4
1501935824516756,3,0,-8,63,16,7,-1,-4
1501935824516756,-1,2,4,23,14,3,0,0
1501935824537769,0,-2,12,-66,-44,-8,-2,6
1501935824537769,0,3,6,41,18,4,0,-4
1501935824539730,-9,-4,1,-34,-1,-2,0,-2
1501935824539730,-1,-5,-23,23,-6,-3,-3,-1
1501935824552797,1,4,9,48,16,2,0,3
1501935824552797,-2,-2,7,68,-2,0,-1,-3
1501935824559749,1,2,17,-34,-4,-3,-1,0
1501935824559749,-2,-2,-11,-6,2,2,-1,2
1501935824575770,-2,-1,-13,-7,23,3,-1,-2
1501935824575770,-3,-1,18,2,-26,-7,1,0
1501935824576730,4,0,-2,20,8,0,2,1
1501935824576730,0,0,-21,5,1,-1,0,4
1501935824597749,0,-2,-2,-37,-4,-1,-1,-9
1501935824597749,-1,-1,2,-16,5,0,-2,-1
1501935824599731,3,0,-4,4,-1,2,1,-1
1501935824599731,4,3,14,84,11,6,1,7
1501935824612775,-1,1,25,48,10,-3,-1,-3
1501935824612775,-3,-2,-8,-21,-17,-6,-3,-4
1501935824619753,-2,-4,-18,-12,-10,-3,-3,0
1501935824619753,-2,-2,-9,-33,-5,-3,-1,-4
1501935824635744,2,1,10,25,12,4,1,-2
1501935824635744,-1,-1,3,25,9,0,0,4
1501935824636738,0,-1,0,-34,-11,-5,-2,-6
1501935824636738,-6,0,1,-40,-14,2,0,-24
1501935824657741,5,-1,-13,20,2,-1,-2,13
1501935824657741,0,0,1,-25,-11,-2,1,0
1501935824659735,-2,1,-14,-2,1,0,-2,2
1501935824659735,-6,-6,8,-45,11,-3,-3,-2
1501935824680777,-7,-10,0,-30,-12,-6,0,-7
1501935824680777,1,-1,-9,24,1,1,1,-1
1501935824681747,4,4,16,92,19,4,0,1
1501935824681747,2,-2,-33,-112,-34,-2,-1,5
1501935824695780,-2,2,13,33,11,1,-2,2
1501935824695780,0,-4,-19,-49,2,-7,-4,-4
1501935824697737,-2,-4,-1,10,-1,3,0,-6
1501935824697737,3,1,-22,58,22,6,3,4
1501935824717780,-7,-4,4,-45,-2,3,-2,-8
1501935824717780,-3,2,18,-30,-16,-10,-2,-4
1501935824719739,0,0,-4,-32,-5,5,0,0
1501935824719739,0,0,-1,45,14,-1,-2,-2
1501935824731808,-1,2,-6,-37,-23,1,0,-1
1501935824731808,1,-4,-1,25,10,-1,-3,4
1501935824740776,-4,-2,9,-8,2,-2,-2,-2
1501935824740776,1,0,19,76,61,16,4,3
1501935824755780,-3,-6,-43,-46,-56,-21,-3,-3
1501935824755780,-1,1,29,100,27,3,3,2
1501935824756749,-2,0,-1,-49,-20,0,0,-3
1501935824756749,2,3,-6,-28,-12,-3,1,7
1501935824777782,0,1,28,57,47,6,-2,-10
1501935824777782,-4,-6,-35,-15,-12,-1,-1,-3
1501935824779763,-1,-8,-15,41,1,-5,-1,0
1501935824779763,2,4,34,8,-9,-1,-2,0
1501935824791784,2,2,-11,122,75,21,4,0
1501935824791784,-2,1,19,-56,-57,-18,-5,1
1501935824800763,-6,-3,12,29,-8,-3,-3,-4
1501935824800763,1,-1,8,65,-12,-3,-1,0
1501935824815786,1,0,-26,-32,-10,2,0,1
1501935824815786,0,3,34,83,35,6,2,2
1501935824816762,3,2,-16,38,-6,-1,0,8
1501935824816762,-6,-3,-6,-52,-21,-9,-3,-13
1501935824837787,9,5,5,-7,-5,1,0,1
1501935824837787,-10,-2,-4,-31,-2,2,1,5
1501935824839762,2,-2,-8,-25,-6,-3,-2,-5
1501935824839762,1,0,1,65,23,5,1,4
1501935824859755,-6,-8,-27,18,-45,-10,-6,2
1501935824859755,3,2,-22,-57,-11,0,-1,-4
1501935824860747,-1,-1,-14,85,16,-2,1,1
1501935824860747,-3,-1,25,-81,-9,0,-1,-1
1501935824874768,-2,3,7,76,-11,-5,-1,-4
1501935824874768,-1,-4,-1,11,-3,-4,-2,-3
1501935824875747,-4,0,-5,-102,-11,1,0,-1
1501935824875747,5,4,7,59,-13,-3,3,5
1501935824897811,0,-3,-13,-54,8,3,-4,5
1501935824897811,-5,-3,4,-96,-25,-4,-3,-9
1501935824897811,1,4,23,38,8,-1,1,0
1501935824897811,-4,-5,-1,-19,-7,-2,-3,-3
1501935824919793,0,0,23,10,-4,-2,-1,0
1501935824919793,0,-2,-22,22,21,6,-1,-4
1501935824920750,-1,-1,12,25,-5,-2,-3,4
1501935824920750,-3,-5,-13,-44,-15,-7,-3,-5
1501935824934814,0,3,29,38,8,2,1,1
1501935824934814,-4,-8,-8,56,-10,-8,-3,-2
1501935824935751,3,3,-6,-65,25,7,0,1
1501935824935751,0,-3,-9,-11,6,-6,-2,1
1501935824957814,-6,-3,3,-21,6,-8,-6,-7
1501935824957814,6,3,4,33,19,8,3,13
1501935824957814,1,-2,1,-9,0,0,-2,-4
1501935824957814,-8,-7,-21,37,11,-3,-5,-3
1501935824979796,3,4,2,-19,-3,1,2,0
1501935824979796,2,-2,-2,-20,10,4,1,1
1501935824980753,-6,-9,-29,-56,-35,-7,-4,-2
1501935824980753,3,3,10,77,14,2,2,3
1501935824994811,-5,-6,-25,21,-27,-6,-1,-3
1501935824994811,2,-1,-1,-16,-9,-4,-2,0
1501935824995767,-1,-2,-13,-19,2,-1,0,-3
1501935824995767,2,-2,-2,-20,-5,1,-2,1
1501935825017827,1,2,5,10,24,6,2,1
1501935825017827,-5,-6,12,14,-19,-12,-4,-6
1501935825017827,0,1,14,20,6,-2,1,-3
1501935825017827,-1,-1,-13,-18,-7,3,0,4
1501935825039820,-1,4,25,25,3,-1,-1,-5
1501935825039820,-2,-5,-38,-1,-2,2,0,-4
1501935825040769,-1,2,17,98,6,2,0,-2
1501935825040769,-4,-8,-6,-117,-19,-10,-3,0
1501935825054828,3,3,-4,-12,35,8,-2,-2
1501935825054828,-2,1,23,106,16,0,-1,-3
1501935825055758,1,0,-4,-113,-29,-3,-1,2
1501935825055758,-3,4,8,104,17,5,0,-3
1501935825077804,-2,-7,-14,-54,7,-7,-5,1
1501935825077804,-4,1,9,30,-11,-6,-2,-7
1501935825077804,4,3,24,66,-2,2,1,0
1501935825077804,1,3,13,77,32,5,-1,-1
1501935825099808,-7,-10,-2,-26,-50,-16,-6,-5
1501935825099808,2,1,0,-7,8,2,-2,2
1501935825100772,-3,-2,10,-6,-3,-3,-3,-1
1501935825100772,-3,-4,-13,-15,-11,0,0,-7
1501935825114829,-1,-2,-15,20,1,-2,2,4
1501935825114829,1,2,8,19,30,10,-2,-1
1501935825115772,-3,-5,-19,-19,-23,-11,0,6
1501935825115772,1,8,47,55,14,8,2,-3
1501935825137834,-3,-5,-17,-81,-28,-10,-3,-3
1501935825137834,1,-2,-6,-4,-10,-4,-2,-3
1501935825137834,-2,-1,-6,19,10,3,0,-1
1501935825137834,-1,-2,4,80,18,2,-1,-1
1501935825159811,7,10,4,72,-21,5,6,7
1501935825159811,-5,-2,7,-51,-1,-1,-5,-2
1501935825160764,-5,-5,-6,-91,-11,-9,-5,-7
1501935825160764,1,-5,-26,1,-4,-2,-1,-2
1501935825174836,-1,2,11,-5,1,4,-1,-1
1501935825174836,1,5,11,9,16,14,5,3
1501935825175776,-4,-6,-23,-45,-11,-13,-5,-5
1501935825175776,0,-3,-9,-24,-9,-1,-2,-1
1501935825196831,-4,-6,8,-19,9,-4,-4,-3
1501935825196831,2,0,-14,-31,-3,-2,1,0
1501935825204832,0,-1,9,102,13,6,-1,-3
1501935825204832,0,4,8,-88,-30,-7,0,3
1501935825219830,0,0,7,105,28,11,1,-2
1501935825219830,-4,-5,2,-101,-34,-12,-4,-1
1501935825220769,3,2,-20,7,15,9,4,7
1501935825220769,-6,-9,-5,-47,-30,-11,-4,-1
1501935825234810,0,0,1,25,3,-3,0,-8
1501935825234810,0,2,11,57,15,3,1,-2
1501935825235768,-1,0,10,11,5,0,0,1
1501935825235768,-3,-1,-6,-21,-18,-1,-2,0
1501935825257837,-1,0,-18,34,41,9,3,3
1501935825257837,-1,-1,-5,-43,-8,-1,-1,0
1501935825257837,-2,-4,-15,67,9,0,-2,-4
1501935825257837,0,-1,-5,-72,-21,-5,-3,-2
1501935825279812,-3,-3,-20,5,-1,-4,0,-3
1501935825279812,-2,-4,-24,-63,-10,-6,-4,-2
1501935825280782,-1,1,3,12,3,0,0,-1
1501935825280782,0,1,10,16,6,4,4,-1
1501935825294810,-1,1,12,0,-6,-3,-3,0
1501935825294810,2,-1,-2,-55,-1,3,1,5
1501935825295783,-3,-1,2,25,-15,-1,-4,-8
1501935825295783,-2,-3,-5,24,0,-6,-3,-2
1501935825317812,2,-3,-14,-29,-7,-5,-1,3
1501935825317812,3,4,-20,82,2,11,4,2
1501935825317812,-3,1,23,-76,-24,-5,2,0
1501935825317812,0,-3,-29,84,-2,-3,-3,-1
1501935825339816,-6,-9,5,-46,-14,-6,-5,-2
1501935825339816,-1,-2,-31,-61,-16,-6,-1,-1
1501935825340787,2,3,19,80,29,11,1,1
1501935825340787,-4,-3,-19,-125,-19,-8,-5,-5
1501935825354801,-2,-2,13,-62,-30,-4,0,-1
1501935825354801,-2,0,8,67,23,0,0,1
1501935825355775,1,2,1,-54,6,3,-1,-4
1501935825355775,1,-2,-18,0,7,2,-1,0
1501935825377786,1,-1,7,49,-4,-2,-1,-3
1501935825377786,-1,-5,-27,-80,-13,-3,-3,-2
1501935825377786,-1,0,8,-13,-13,-5,-1,2
1501935825377786,-2,-3,-6,20,2,-3,0,1
1501935825399822,-3,-1,1,-25,8,0,-2,-2
1501935825399822,1,-1,7,47,2,-2,0,-3
1501935825400789,-1,-6,-54,-9,-11,1,-2,-6
1501935825400789,-2,-5,-9,-51,-15,-7,1,0
1501935825414783,0,1,12,90,10,0,2,-2
1501935825414783,-3,-1,6,-81,-32,-4,-2,-1
1501935825415779,3,1,12,9,14,0,-1,0
1501935825415779,-2,0,1,40,-5,2,-1,-2
1501935825437790,-6,-5,-23,-49,9,-5,-5,-2
1501935825437790,2,3,13,1,8,0,0,2
1501935825437790,0,2,21,17,17,4,0,-2
1501935825437790,-2,-3,-31,-123,-26,-5,-3,-3
1501935825459823,5,6,47,82,30,5,2,1
1501935825459823,-3,-8,-27,7,-4,-5,-3,-3
1501935825460790,-3,-4,-13,-46,-3,-3,-2,0
1501935825460790,3,6,20,67,23,6,0,1
1501935825474849,4,4,-7,-99,-10,6,1,1
1501935825474849,-5,-3,18,-23,33,-7,-4,-4
1501935825475781,0,2,9,55,-21,-8,2,4
1501935825475781,-4,-2,0,-2,6,1,-2,-2
1501935825497795,-2,-6,-28,-20,-12,-3,-4,-3
1501935825497795,8,6,27,26,-18,4,0,3
1501935825497795,-5,4,7,-65,25,6,2,-1
1501935825497795,-5,-5,-2,-68,-2,-6,-4,-2
1501935825519798,1,2,-4,5,-29,2,2,-2
1501935825519798,-5,-10,-19,-57,-3,-6,-4,-3
1501935825520784,0,-1,22,43,4,-3,-5,-3
1501935825520784,0,2,-16,22,-1,-3,1,-1
1501935825533825,-2,-1,-1,38,11,0,-1,2
1501935825533825,-3,-5,-11,5,0,2,0,-10
1501935825542862,3,3,11,27,14,6,1,0
1501935825542862,-2,-1,-6,-102,-17,-1,-1,-2
1501935825557787,1,4,20,33,-2,-1,2,3
1501935825557787,2,4,10,30,13,9,1,-1
1501935825557787,-4,-10,-54,-43,-17,-12,-3,-4
1501935825557787,-2,2,32,63,-18,-3,1,-1
1501935825579859,-2,-3,-20,-17,-22,-4,0,1
1501935825579859,-1,-2,-29,33,29,4,-4,-3
1501935825580788,-1,0,-16,-94,-41,-2,-1,-1
1501935825580788,3,2,25,58,16,5,2,3
1501935825594840,-4,-4,-11,17,-1,2,-1,-4
1501935825594840,1,4,22,127,-13,-4,1,5
1501935825595790,3,4,16,42,11,5,-1,-2
1501935825595790,-2,-8,-34,10,14,0,-1,-1
1501935825617791,1,2,16,-60,-14,-4,-2,0
1501935825617791,-4,-3,-17,-42,-8,0,1,-2
1501935825617791,-3,-6,-14,74,16,-3,-3,-3
1501935825617791,2,5,0,18,-34,-2,3,1
1501935825639836,-2,-5,-5,-15,23,-2,-3,4
1501935825639836,-3,-1,9,25,-6,-4,-1,-6
1501935825640791,4,6,30,100,25,10,4,0
1501935825640791,-8,-14,-41,-32,-37,-14,-7,-4
1501935825654831,0,-1,-7,44,0,1,0,-1
1501935825654831,-1,-1,-6,9,-26,-7,0,3
1501935825655804,-1,0,20,-77,-10,-2,-1,-1
1501935825655804,2,2,5,103,26,1,-1,-2
1501935825677803,-2,-2,5,-17,3,-2,-4,-5
1501935825677803,-3,-5,-27,-40,-14,-3,-2,-2
1501935825677803,-3,-4,-19,17,3,-3,-1,-1
1501935825677803,0,0,12,-1,8,0,-1,1
1501935825699808,0,-1,-7,-77,-18,-5,1,-3
1501935825699808,5,9,20,42,40,11,3,2
1501935825700800,-4,-9,-9,61,-2,-9,-4,-2
1501935825700800,2,2,-14,-52,-12,2,1,0
1501935825714829,4,10,50,108,4,4,3,0
1501935825714829,-6,-9,-17,-67,-14,-13,-6,-6
1501935825722814,2,5,27,87,40,10,2,1
1501935825722814,-4,-7,-35,-80,-22,-7,-4,-3
1501935825737812,2,4,3,-12,27,9,1,-4
1501935825737812,-5,-7,14,32,-22,-10,-2,4
1501935825737812,6,5,-1,16,-4,7,6,5
1501935825737812,-2,1,28,74,28,8,-1,-3
1501935825759817,2,-5,-39,-111,-5,-1,-2,-1
1501935825759817,-4,2,15,23,7,0,-1,0
1501935825760807,-4,-8,-14,-49,-17,-11,-5,-2
1501935825760807,0,6,17,38,18,6,3,-3
1501935825774828,-4,-4,-17,21,-10,-5,-3,1
1501935825774828,2,5,27,21,10,4,1,-5
1501935825782814,-3,-4,-9,-68,-18,-10,-3,-2
1501935825782814,1,1,7,-81,-5,3,1,1
1501935825797814,-1,-2,-13,19,-13,-4,-4,-2
1501935825797814,3,3,9,4,16,2,0,-1
1501935825797814,-1,1,-9,-54,-8,4,-1,-1
1501935825797814,6,10,66,117,21,0,2,3
1501935825819841,-8,-12,-7,13,-18,-11,-6,-2
1501935825819841,1,3,-7,6,1,3,-1,1
1501935825820803,3,-3,-16,-38,-3,0,-2,6
1501935825820803,-5,0,6,-4,16,4,1,-13
1501935825833843,0,0,4,50,9,3,3,3
1501935825833843,-3,-1,0,3,-15,-6,0,-9
1501935825842854,5,-3,-5,8,-9,-7,-5,21
1501935825842854,-2,-3,-14,-41,-3,-1,-5,-5
1501935825857818,-1,1,3,47,12,1,-1,0
1501935825857818,2,1,1,50,6,4,-1,-4
1501935825857818,-12,-2,-8,-19,-15,-4,3,-21
1501935825857818,12,0,-5,-57,-14,-7,-1,24
1501935825879817,-5,-7,-27,-36,-6,-7,-4,-6
1501935825879817,1,3,17,25,13,1,-2,-3
1501935825880806,-4,-4,-6,-4,-7,-1,5,0
1501935825880806,-4,0,-1,41,8,3,-2,-15
1501935825893843,1,4,12,13,3,2,0,1
1501935825893843,-1,-9,-21,-57,-39,-8,-1,2
1501935825902877,-5,-5,-3,82,0,-9,-5,-6
1501935825902877,-4,-3,-4,31,28,7,0,0
1501935825917824,1,2,-1,-17,-7,0,2,4
1501935825917824,1,2,3,61,10,4,-2,-1
1501935825917824,4,8,11,-58,1,5,0,-1
1501935825917824,-5,-2,9,117,9,-7,-1,0
1501935825939877,-4,-4,-5,-4,-10,-4,-2,-4
1501935825939877,-2,-2,-3,-41,6,-1,-2,4
1501935825940820,-1,2,9,42,18,4,0,-3
1501935825940820,-2,-3,-7,-95,-17,-6,-1,-1
1501935825953850,1,0,-2,-10,11,4,0,-3
1501935825953850,6,10,29,42,23,13,2,2
1501935825962837,-8,-11,-6,88,-20,-12,-2,0
1501935825962837,0,0,-6,-59,-11,3,-1,1
1501935825977822,-1,-2,17,54,15,-3,-1,-2
1501935825977822,0,0,-6,25,-9,-2,-3,0
1501935825977822,4,7,4,-65,1,6,0,-2
1501935825977822,-5,-8,-20,-30,-11,-12,-2,-4
1501935825999880,0,-4,-3,13,-11,-2,-3,0
1501935825999880,3,-3,-16,-22,8,1,0,-2
1501935826000824,-2,2,6,-30,2,4,2,1
1501935826000824,-4,-2,-6,-7,-2,-1,-4,-5
1501935826013859,1,4,-4,-36,-6,2,0,2
1501935826013859,-1,-1,-5,-33,-3,-2,1,0
1501935826022829,-5,-7,5,-7,14,-5,-6,-6
1501935826022829,7,10,32,-63,2,8,5,7
1501935826037830,-5,-8,-36,33,4,-1,-2,-6
1501935826037830,-6,-5,-23,-15,-26,-9,-4,-4
1501935826037830,0,2,-15,-98,-7,2,-2,-2
1501935826037830,2,2,3,61,0,-3,-1,2
1501935826059816,-3,-6,-3,-44,-11,-2,-4,-6
1501935826059816,0,-2,3,10,-6,-3,-2,0
1501935826060816,1,2,6,51,5,5,1,-1
1501935826060816,-1,-4,-27,-64,-10,-3,-2,-1
1501935826082889,-3,1,22,-14,-3,0,-2,-13
1501935826082889,-1,-2,-6,19,11,-2,4,16
1501935826083816,-1,-2,3,-22,-12,-4,-4,-6
1501935826083816,0,0,-1,38,4,2,-1,-2
1501935826097838,0,1,4,13,7,2,1,3
1501935826097838,0,-2,3,-29,0,-1,0,2
1501935826097838,4,3,2,21,-3,1,-2,3
1501935826097838,-31,-4,-3,-2,-3,-2,-2,-8
1501935826119863,19,5,2,0,7,0,-2,7
1501935826119863,-12,-1,-7,-45,-18,-6,-3,-15
1501935826120818,-3,-2,-4,0,-9,-6,3,21
1501935826120818,-2,-2,-3,10,3,4,0,-3
1501935826142892,-4,3,1,-22,4,-3,-10,-48
1501935826142892,4,-1,4,19,7,5,2,9
1501935826143831,38,0,-3,22,1,-2,-6,-15
1501935826143831,-29,-5,3,33,-3,-3,2,5
1501935826157841,-29,-3,9,13,-2,0,1,30
1501935826157841,29,1,-1,-3,-1,-2,3,16
1501935826157841,-12,1,-11,0,-7,-7,-10,-34
1501935826157841,10,3,2,32,0,-4,-4,5
1501935826179864,13,5,1,-16,-5,0,-6,1
1501935826179864,23,-1,4,11,6,3,9,77
1501935826180833,23,-10,-7,-5,-6,-4,12,21
1501935826180833,-20,13,8,18,8,7,-17,-15
1501935826202882,-29,-9,-9,-7,-12,-12,-13,21
1501935826202882,57,24,7,3,2,2,12,-34
1501935826203844,-86,-24,-5,11,3,2,12,24
1501935826203844,10,-9,-10,-3,-3,-3,-12,26
1501935826217842,18,5,-2,-5,-3,-1,17,25
1501935826217842,-26,-37,-17,-3,-4,-7,-25,-24
1501935826217842,18,2,1,1,0,0,-10,-10
1501935826217842,-20,1,2,4,-1,0,11,8
1501935826239867,6,7,0,-4,0,1,-12,-38
1501935826239867,-26,-1,-1,0,-1,1,6,-13
1501935826240836,-7,-2,2,6,-1,2,-1,-5
1501935826240836,21,4,1,6,-2,-2,-3,3
