timestamp,emg1,emg2,emg3,emg4,emg5,emg6,emg7,emg8
1499877354353346,-28,-4,6,-4,-6,-2,97,-12
1499877354353346,-24,-9,-6,-5,-2,6,-105,-43
1499877354359385,87,7,15,12,-1,1,-3,71
1499877354359385,-49,-6,-7,-6,0,1,9,-20
1499877354361385,-34,17,2,1,-8,-9,71,-42
1499877354361385,-16,5,-7,-11,-6,-6,109,-13
1499877354362385,-15,-18,-4,-7,-2,-13,-78,6
1499877354362385,12,-4,-7,5,-4,-3,-64,-29
1499877354365362,-2,4,4,6,5,-1,-16,110
1499877354365362,29,-3,2,2,4,6,-33,66
1499877354373369,-14,-16,-8,3,0,2,-4,-46
1499877354373369,37,-1,-15,-2,1,5,65,17
1499877354388369,-12,-12,-8,5,3,0,-61,-13
1499877354388369,-1,-3,-5,0,-7,-4,-46,-15
1499877354394415,0,7,-19,9,6,4,77,-38
1499877354394415,-54,5,12,-47,-12,-12,-50,-46
1499877354403369,46,10,14,18,8,12,99,61
1499877354403369,-31,5,8,43,-1,-9,-48,-58
1499877354425394,-29,-11,31,0,11,7,-9,35
1499877354425394,-10,-14,-4,-1,-10,-1,-7,84
1499877354426350,39,-8,-5,-91,-9,-5,-70,56
1499877354426350,47,12,20,8,3,4,91,17
1499877354473375,-20,6,12,15,1,2,-34,38
1499877354473375,-9,-9,16,7,1,2,35,26
1499877354474373,42,6,13,15,2,-4,-17,36
1499877354474373,14,-7,5,2,1,-8,-117,22
1499877354477410,-66,0,-14,-14,-13,13,116,-33
1499877354477410,-40,-3,-20,-2,-6,-8,-104,-68
1499877354478391,-13,-12,1,-2,0,1,-32,-25
1499877354478391,-9,-2,-8,-1,-3,-2,-5,11
1499877354485366,33,4,10,15,6,0,-29,1
1499877354485366,-2,0,-10,3,10,1,67,-59
1499877354491415,-10,-9,3,12,-10,-1,70,-12
1499877354491415,0,-2,-15,1,-1,-5,-17,-38
1499877354499416,-2,-10,0,-15,-12,-8,-3,4
1499877354499416,9,14,-19,-27,-3,-5,-47,17
1499877354514394,-12,3,-2,13,13,6,13,17
1499877354514394,3,-2,4,1,-7,1,-14,-36
1499877354521421,-1,-4,-11,9,-2,-4,1,2
1499877354521421,-5,-4,-9,-17,-10,-5,35,-27
1499877354545419,-14,-2,-4,-12,6,1,-8,18
1499877354545419,21,7,4,30,7,0,11,-4
1499877354546357,-6,-5,-6,-15,4,5,-31,7
1499877354546357,16,-5,-1,2,-7,1,-13,44
1499877354559415,21,12,11,-2,-7,-7,-6,9
1499877354559415,-34,-1,9,-10,-1,-1,15,-46
1499877354560358,26,2,0,-6,5,-2,12,55
1499877354560358,-10,0,18,20,7,7,13,-28
1499877354582396,20,-8,-21,-5,-4,-4,17,-40
1499877354582396,-25,9,3,-6,1,-1,-21,0
1499877354583398,17,-1,2,1,-2,-7,-7,-17
1499877354583398,18,1,-1,-1,-4,0,17,46
1499877354605429,-9,-1,-10,-6,1,1,-12,11
1499877354605429,5,-4,1,11,0,5,39,37
1499877354606361,-25,-6,-9,-34,-8,-9,-15,-15
1499877354606361,-35,-3,4,-2,0,-4,16,-94
1499877354620391,-5,-1,7,-11,-2,-5,-77,-68
1499877354620391,21,1,-4,9,7,0,50,1
1499877354620391,-13,0,-2,25,6,-2,-47,-21
1499877354620391,14,2,0,-5,-13,3,25,-6
1499877354643385,-3,-2,-10,-24,-10,1,13,21
1499877354643385,-16,-1,-1,5,1,5,6,-56
1499877354644364,22,3,7,5,1,-1,-24,-115
1499877354644364,1,-5,6,1,11,0,0,81
1499877354665379,1,2,-1,41,-2,1,-6,22
1499877354665379,-2,-15,2,-52,-17,-14,-38,-26
1499877354666368,60,-8,-10,-1,-2,-1,61,87
1499877354666368,-40,-3,-2,-2,-2,-12,-65,-47
1499877354679413,-5,-1,-9,-30,-7,3,-11,-29
1499877354679413,12,3,-12,7,1,-3,-14,5
1499877354680372,14,-1,-1,6,3,-5,3,71
1499877354680372,16,0,8,10,4,7,18,11
1499877354702408,-34,-3,10,16,1,-5,-14,-3
1499877354702408,3,2,-9,-8,-6,1,-33,16
1499877354703369,-2,7,4,-6,-2,6,65,34
1499877354703369,27,2,8,11,2,3,-11,32
1499877354725445,-20,4,4,14,3,-11,-52,-5
1499877354725445,-12,-5,-1,-24,-7,10,81,-5
1499877354726371,-29,-3,2,-11,-2,-5,-68,-34
1499877354726371,-16,-5,-3,-5,-12,-4,44,-37
1499877354740403,22,6,11,23,4,3,26,-18
1499877354740403,-14,2,-7,-28,3,-2,30,41
1499877354740403,-16,-1,-8,5,6,5,-31,-83
1499877354740403,15,2,15,5,-4,-3,-25,2
1499877354762412,-4,-6,-5,-33,-9,-6,-38,-35
1499877354762412,11,1,-7,-5,-1,0,49,42
1499877354763372,-7,-1,-2,3,3,2,-21,-70
1499877354763372,-7,3,9,4,6,0,1,-18
1499877354785437,3,0,4,7,4,7,8,2
1499877354785437,-7,-3,0,12,-6,-8,-9,-47
1499877354786374,20,0,-1,0,3,2,-4,106
1499877354786374,6,9,-2,12,4,3,38,27
1499877354799442,-1,-4,1,0,-3,-3,24,-17
1499877354799442,10,2,2,10,6,4,8,-36
1499877354800375,5,-2,2,-7,-8,-8,-12,-6
1499877354800375,-10,-6,-14,-16,-5,-9,-63,-22
1499877354822377,36,0,-1,-4,5,17,62,75
1499877354822377,-3,3,11,15,3,-9,-102,-6
1499877354823383,-36,1,-6,3,-3,11,120,-65
1499877354823383,30,-1,-4,17,1,-2,-40,13
1499877354845377,-20,-3,-21,-63,-8,-8,-7,13
1499877354845377,9,-5,11,10,5,-2,-35,35
1499877354846388,4,0,15,7,-1,-4,-29,-21
1499877354846388,12,-9,-6,36,-6,-3,-29,123
1499877354859437,-15,1,0,-12,-2,-1,-8,-39
1499877354859437,5,0,-4,-3,1,0,19,-3
1499877354867418,6,3,-12,6,2,2,-16,69
1499877354867418,-3,3,1,-18,-4,1,-10,-28
1499877354882422,-3,-4,7,14,1,-9,-58,-48
1499877354882422,-13,0,5,-12,-3,4,5,-18
1499877354883379,42,1,-4,10,1,4,18,69
1499877354883379,-6,0,0,-5,-1,2,-18,-21
1499877354905434,8,-5,-10,6,-3,-4,-36,11
1499877354905434,-9,-3,2,6,0,-2,-7,-11
1499877354906391,7,-1,-1,-1,0,-4,39,-38
1499877354906391,-9,-4,-8,-10,2,-2,-29,58
1499877354919458,-8,4,5,-2,-1,7,103,-28
1499877354919458,-13,-4,-10,8,-3,2,38,16
1499877354927444,-1,4,-14,-13,-6,-6,-76,-5
1499877354927444,13,-4,21,-6,1,-2,30,16
1499877354942423,-12,-8,-6,9,-3,-6,16,11
1499877354942423,-3,2,-6,-6,-2,4,20,-15
1499877354943417,-9,0,-1,6,-7,-10,-38,-43
1499877354943417,0,8,6,14,9,6,5,-57
1499877354965442,12,0,-8,-19,0,-5,-40,47
1499877354965442,7,-3,5,4,-5,1,37,-4
1499877354966384,-34,-6,6,-10,0,-3,-14,0
1499877354966384,7,2,-3,11,2,6,25,-5
1499877354979449,-2,-2,10,1,-6,-4,12,-3
1499877354979449,9,6,3,0,7,0,-19,5
1499877354987449,2,0,5,30,0,4,18,6
1499877354987449,-1,-6,-23,-53,-14,-5,-1,0
1499877355002425,5,4,7,-2,2,4,19,14
1499877355002425,-16,-1,1,-2,-1,-4,-35,-13
1499877355003406,9,0,8,0,0,-2,-23,46
1499877355003406,-23,-5,-5,1,-3,2,8,-20
1499877355025449,-3,0,-6,10,3,5,10,6
1499877355025449,9,-3,-7,5,-1,-1,-40,15
1499877355026388,0,2,3,4,4,-1,3,36
1499877355026388,-3,2,-8,1,3,5,29,6
1499877355039425,-3,-7,2,-3,-5,-4,18,27
1499877355039425,-5,-7,-2,4,-2,-4,-24,9
1499877355047429,7,-1,-3,-14,-1,2,-3,18
1499877355047429,-8,-4,4,-10,-3,-12,-23,-13
1499877355062399,-13,1,-4,16,5,4,-13,-35
1499877355062399,5,0,2,8,0,-5,-12,-16
1499877355070409,-7,-2,-4,-7,0,4,-5,-12
1499877355070409,6,1,-6,23,1,3,24,1
1499877355085430,-5,4,-3,-27,3,-2,-23,-18
1499877355085430,-1,-3,-11,-2,-1,-1,-7,3
1499877355086393,-5,-6,4,-7,-7,-3,1,-17
1499877355086393,-11,-3,-1,-6,-4,-5,-11,-62
1499877355099440,11,1,-1,10,3,-3,-6,-46
1499877355099440,9,7,1,14,2,5,25,19
1499877355107458,-14,-7,2,10,-6,-9,0,-28
1499877355107458,1,0,-3,-9,-4,-1,21,-40
1499877355122432,1,0,0,-26,-4,-6,-32,-36
1499877355122432,-15,-7,-2,-14,-2,-2,23,-5
1499877355123423,-2,1,1,8,0,3,3,-47
1499877355123423,7,-5,0,-7,-3,-3,-23,46
1499877355145435,-19,-1,-5,14,-2,-1,5,-26
1499877355145435,5,0,17,1,-4,-2,16,16
1499877355146427,-12,2,-3,23,3,-3,-20,-45
1499877355146427,-13,-5,-14,-57,-3,-1,24,42
1499877355159458,-9,0,7,20,8,2,-17,-20
1499877355159458,-6,-9,-12,-16,-13,-7,-15,-7
1499877355167462,7,2,-7,-2,4,1,-1,0
1499877355167462,18,5,-3,5,1,4,26,78
1499877355182408,-1,-8,5,5,2,1,12,74
1499877355182408,14,2,0,13,1,2,-10,39
1499877355183398,-3,1,3,-27,-4,-3,-1,4
1499877355183398,-4,1,11,18,1,-3,-15,-29
1499877355205439,5,1,-5,25,-3,1,-4,11
1499877355205439,-4,3,-6,-26,-5,4,-2,-6
1499877355206399,-8,-4,-6,-15,-2,-1,9,0
1499877355206399,4,-1,7,18,4,-1,-7,-14
1499877355219447,1,1,0,-35,-3,-2,-12,12
1499877355219447,-2,2,4,58,0,1,1,-10
1499877355227468,6,-6,-21,-91,-9,-3,-13,14
1499877355227468,-1,-2,-10,18,-2,-1,-1,-51
1499877355242434,-7,-1,4,-24,-2,-4,-11,-13
1499877355242434,10,-3,-18,67,3,0,9,9
1499877355243400,-22,-9,1,-29,-9,-9,-30,-68
1499877355243400,-1,-7,-5,-21,-1,-1,-15,-11
1499877355265469,-12,-6,-28,-23,-9,-4,20,-36
1499877355265469,23,5,7,7,0,-1,0,-27
1499877355266401,7,8,14,28,7,4,27,-10
1499877355266401,10,-2,-5,20,5,-2,0,46
1499877355288423,-7,4,4,39,4,4,12,-3
1499877355288423,-14,-1,6,-37,0,0,-6,-17
1499877355288423,14,-1,-12,35,-1,-5,-22,82
1499877355288423,-1,4,5,-2,0,5,29,4
1499877355302443,22,-4,12,-11,-6,0,4,78
1499877355302443,48,1,-8,-28,-1,-2,-6,78
1499877355303412,-23,5,10,-40,2,3,10,-12
1499877355303412,-5,2,13,83,5,0,-22,-35
1499877355325446,1,-1,-14,-24,-8,-2,-11,-9
1499877355325446,-22,-6,0,-34,0,-1,4,20
1499877355326405,11,0,18,68,2,-1,-3,-24
1499877355326405,2,-1,-5,-10,-2,-4,4,31
1499877355348428,5,5,11,23,1,-1,-2,22
1499877355348428,-19,-3,-4,-32,-2,-4,-17,-63
1499877355348428,7,0,3,54,3,0,9,-2
1499877355348428,-8,-8,-13,-23,-8,0,-2,53
1499877355362447,-10,-6,-5,7,1,-3,-7,-50
1499877355362447,5,0,-8,-19,1,0,-11,16
1499877355363443,-1,-3,-4,-16,-2,3,39,9
1499877355363443,-2,-3,12,-4,-5,-5,-42,-22
1499877355385418,8,2,-6,29,2,0,11,-6
1499877355385418,-1,1,3,-30,0,-3,12,-6
1499877355386410,2,-4,-11,36,0,4,10,-6
1499877355386410,-12,2,-10,-33,-3,-4,-6,-15
1499877355408429,1,-1,-1,-9,-1,2,4,23
1499877355408429,-17,1,-3,60,1,-2,6,-38
1499877355408429,7,-3,11,-39,-6,-4,4,11
1499877355408429,0,3,2,-35,0,-1,-15,-19
1499877355422450,-2,-7,8,9,-1,-4,-22,-5
1499877355422450,-5,2,2,19,-1,2,5,4
1499877355423410,11,0,-16,-51,-4,-1,9,59
1499877355423410,-4,-2,-9,-4,-1,3,7,44
1499877355444452,-5,4,18,39,2,0,10,-50
1499877355444452,-5,-5,0,1,-4,-6,-13,-17
1499877355453414,-2,-2,-10,-29,1,0,-13,-15
1499877355453414,8,-1,6,-23,-4,-6,-10,-55
1499877355468414,-1,-8,-19,-25,-8,-3,-6,24
1499877355468414,-8,-1,3,2,-2,0,12,-23
1499877355469413,2,3,3,15,0,0,-27,2
1499877355469413,-3,-4,-6,-2,-3,-4,6,-15
1499877355490454,-3,2,-4,-2,4,3,-5,-14
1499877355490454,-5,-2,7,-4,-1,4,14,-8
1499877355492433,9,-4,-12,-14,-8,-8,-6,33
1499877355492433,-3,2,13,62,2,1,0,-6
1499877355504428,1,0,-5,-56,-6,-6,-30,-8
1499877355504428,3,-4,-11,-18,4,5,38,-45
1499877355513428,4,7,7,17,1,0,-8,-18
1499877355513428,-6,-3,0,11,3,1,17,14
1499877355528427,-3,2,-4,22,1,-3,-29,-10
1499877355528427,2,4,10,-17,2,1,1,39
1499877355529417,-7,-3,12,10,3,2,7,-64
1499877355529417,17,-2,3,32,1,0,8,-21
1499877355550458,-5,2,-8,-54,-6,0,6,37
1499877355550458,2,8,1,-2,3,4,-2,-9
1499877355556429,-10,-3,5,12,-4,-4,-4,-7
1499877355556429,-7,-1,-3,-25,-1,-1,8,4
1499877355564466,7,2,4,12,3,2,16,26
1499877355564466,-11,-4,-4,4,-6,-9,-7,-40
1499877355573420,5,-1,-9,-19,-5,1,-2,23
1499877355573420,0,0,-2,-5,1,3,-12,-39
1499877355588440,-5,-2,-1,27,0,-9,-48,-8
1499877355588440,-5,-5,-9,-3,-9,-5,23,25
1499877355589422,-22,-7,-5,-2,-6,-9,-3,-31
1499877355589422,-1,-4,-1,-13,-3,-1,5,17
1499877355610461,-2,0,11,10,-1,-2,15,-25
1499877355610461,1,-2,-4,12,1,5,-54,-11
1499877355612459,-9,-7,1,-25,-5,1,14,8
1499877355612459,2,2,1,-4,-1,-4,-18,1
1499877355624470,-2,-4,1,-29,-2,-6,16,-5
1499877355624470,-5,0,2,-23,2,5,2,-3
1499877355633431,-8,2,-11,26,2,1,2,-18
1499877355633431,-6,2,0,-41,-3,-2,-10,16
1499877355648441,-7,-3,-9,15,0,5,15,-13
1499877355648441,-2,0,1,-9,-1,-7,-8,6
1499877355649424,1,-3,1,9,5,6,11,0
1499877355649424,-5,-2,-11,-1,2,-1,-4,-5
1499877355670465,6,2,-1,18,2,-2,-11,19
1499877355670465,-16,-8,-3,15,-3,-1,9,0
1499877355672431,14,3,-5,-18,-3,-5,-12,-24
1499877355672431,-1,2,6,4,1,0,5,6
1499877355684468,21,-2,4,34,-2,0,10,-11
1499877355684468,-7,-2,-5,-19,-2,-7,-9,34
1499877355693427,-8,-4,0,4,-1,-2,-8,-32
1499877355693427,-2,-3,-3,-3,-1,-1,-1,22
1499877355708429,-2,-2,-8,9,1,2,-1,-20
1499877355708429,11,4,7,7,2,1,10,14
1499877355709432,0,0,4,41,0,-8,9,31
1499877355709432,6,-9,-17,-48,-10,-1,-24,2
1499877355730437,1,2,2,-5,4,6,41,34
1499877355730437,-6,-1,8,5,-4,-7,-18,-37
1499877355732469,0,1,17,15,7,2,-2,16
1499877355732469,-5,-2,-3,11,-3,-1,7,-19
1499877355744496,-26,-8,-8,-16,-6,-2,-5,-9
1499877355744496,3,0,-9,14,-6,-2,6,11
1499877355753429,4,7,-3,-54,4,-2,-4,-12
1499877355753429,1,2,16,18,6,1,-10,-43
1499877355768470,1,-5,-7,-16,-2,0,10,-4
1499877355768470,5,0,3,-6,3,-2,0,3
1499877355769430,0,-2,-8,71,-2,0,-23,-17
1499877355769430,-8,1,0,-28,-3,-3,0,10
1499877355790447,-10,5,6,1,1,-1,-19,-2
1499877355790447,0,-1,-6,27,3,3,20,-10
1499877355792474,3,1,0,-44,-1,3,8,37
1499877355792474,7,0,1,4,-3,-3,7,-7
1499877355813444,-6,-5,3,23,3,3,-1,-12
1499877355813444,11,-2,-2,-8,0,0,-7,-3
1499877355814464,-4,-1,-11,-1,0,4,15,43
1499877355814464,5,4,-3,3,3,-2,0,1
1499877355828435,-5,-2,-10,25,-1,2,16,-20
1499877355828435,-1,-5,7,-54,-8,-4,-3,7
1499877355829434,0,2,3,-6,0,2,3,18
1499877355829434,-6,-4,3,3,0,0,0,-26
1499877355857500,4,0,-5,22,-4,-8,-25,-3
1499877355857500,4,2,-4,-36,1,2,-1,18
1499877355864481,-3,3,-4,0,-1,1,3,-21
1499877355864481,3,-1,4,31,2,2,2,22
1499877355873459,4,-3,0,-35,-4,-3,5,7
1499877355873459,-4,-8,-9,-21,-9,-5,-13,-2
1499877355874439,-11,-2,-6,-15,3,1,5,-18
1499877355874439,11,3,-2,8,-1,-2,-9,-3
1499877355888438,11,1,9,25,2,3,7,37
1499877355888438,-3,3,-2,-18,-2,-1,-26,-16
1499877355889449,-1,0,-6,-9,-3,3,10,3
1499877355889449,-2,-13,6,21,-3,-6,6,-24
1499877355910482,1,-3,-4,-16,-3,-4,-9,26
1499877355910482,-1,5,4,33,4,4,18,4
1499877355912475,3,0,-11,-26,-3,0,-8,-18
1499877355912475,-2,-7,-2,-7,-2,0,-4,2
1499877355933459,3,0,-7,-21,0,4,8,8
1499877355933459,1,3,1,18,-3,-2,23,11
1499877355934441,-1,-8,7,37,-1,-6,-11,24
1499877355934441,-2,3,-14,-40,-4,3,7,5
1499877355947510,-1,0,14,-18,1,1,2,-15
1499877355947510,-6,-2,-9,33,-5,-1,-2,-6
1499877355954487,-4,-2,-2,-44,-1,-2,-15,-7
1499877355954487,-4,1,-12,0,-8,-1,3,11
1499877355970489,-1,-2,-1,-4,-3,-3,-4,-14
1499877355970489,-4,-2,8,-41,1,-2,-8,-19
1499877355972480,2,-3,-4,30,-4,-1,-8,4
1499877355972480,3,-1,2,2,-1,-7,21,37
1499877355993462,-4,5,-1,-21,5,4,-11,-27
1499877355993462,-2,-6,14,48,-4,-6,-24,-6
1499877355994446,-3,-4,-2,-38,-4,-1,16,-6
1499877355994446,-6,2,10,-8,7,6,4,-2
1499877356007455,2,2,-3,42,-3,-3,1,-3
1499877356007455,-3,-1,-10,-52,4,2,5,-4
1499877356014517,-5,2,4,15,-3,-3,-11,-21
1499877356014517,-1,-3,-1,14,2,0,-3,5
1499877356030486,3,0,-1,-11,3,-1,6,6
1499877356030486,0,-2,-8,14,0,-3,0,3
1499877356032481,-5,4,1,5,-2,-1,15,-23
1499877356032481,-11,2,-13,20,0,0,-9,-70
1499877356053466,-3,-6,8,-54,-6,-6,-3,-17
1499877356053466,0,-3,-11,36,1,0,12,30
1499877356054447,-1,-1,6,-20,-4,0,-6,-19
1499877356054447,-13,0,-3,9,2,-1,-6,12
1499877356067520,2,1,-14,17,2,0,13,8
1499877356067520,-2,0,12,-10,0,-1,2,-11
1499877356074501,0,-5,-3,48,-3,-3,-7,8
1499877356074501,-2,-4,-2,-28,-3,-1,-6,11
1499877356090495,4,1,2,6,6,-1,3,-15
1499877356090495,4,1,12,-1,2,4,-10,31
1499877356092450,-6,-3,-10,31,-2,-5,-18,-41
1499877356092450,9,0,-15,-25,-4,0,-4,5
1499877356113470,-14,1,2,13,-2,-7,-8,0
1499877356113470,-2,-7,7,-6,-6,-7,-5,-6
1499877356114451,3,0,3,10,3,4,16,20
1499877356114451,0,2,9,23,-3,-5,-5,-3
1499877356127496,-8,-2,-17,-35,-4,0,2,-16
1499877356127496,1,0,-8,19,-5,-1,-12,-42
1499877356134495,-9,-7,-4,-17,-2,-1,8,-17
1499877356134495,8,1,-2,4,0,2,3,34
1499877356150496,2,2,16,13,-1,1,6,-15
1499877356150496,-5,-1,4,-6,3,1,6,4
1499877356152453,5,-4,-10,8,1,0,3,27
1499877356152453,-3,-1,7,8,2,1,-9,-6
1499877356180465,6,-2,-4,-24,-9,-1,-1,27
1499877356180465,-1,1,-7,-7,4,2,1,-18
1499877356182467,11,5,-1,-7,-4,0,-16,6
1499877356182467,-4,-1,5,1,3,2,21,-3
1499877356187530,0,-1,3,15,-2,-1,-2,12
1499877356187530,1,-4,-5,-6,1,2,12,15
1499877356194504,-6,-5,4,-4,1,-2,-10,1
1499877356194504,11,3,-1,-9,-1,-4,-17,13
1499877356210495,-6,-2,6,-25,-5,0,8,23
1499877356210495,-3,2,-16,11,2,-1,-5,-11
1499877356212461,-7,-3,-1,-19,-2,-2,-4,-48
1499877356212461,-2,-1,-3,-14,0,1,4,-6
1499877356233479,1,-5,-6,20,3,-2,-4,8
1499877356233479,1,0,11,-4,-2,-3,-7,4
1499877356234458,2,-1,-1,-3,2,1,2,33
1499877356234458,-10,-2,-5,-2,-5,-4,-6,-22
1499877356247528,-7,-2,-4,18,0,-2,-6,-54
1499877356247528,1,-2,-5,-21,-3,1,-7,19
1499877356254525,-4,-2,-9,-8,-2,-3,14,-11
1499877356254525,8,6,-1,7,-1,0,4,26
1499877356270492,-6,-6,4,0,-4,-3,-15,23
1499877356270492,-12,-1,0,2,-2,-6,0,-43
1499877356272472,1,-1,0,10,3,3,3,36
1499877356272472,-6,-5,-3,-34,-4,-3,12,-27
1499877356293485,8,4,-7,20,1,3,6,2
1499877356293485,4,-3,6,-4,-5,-1,10,54
1499877356294462,-6,0,4,-17,-1,-4,-5,-26
1499877356294462,0,1,2,12,2,1,7,8
1499877356306501,4,-1,-9,13,4,0,-13,-3
1499877356306501,0,0,0,21,-8,-2,-4,20
1499877356315499,1,-1,13,13,0,0,-16,9
1499877356315499,-2,-3,-6,-3,5,7,-7,-3
1499877356330528,-7,0,-1,11,4,-1,3,3
1499877356330528,11,4,-6,-28,-1,1,-14,-11
1499877356332472,-8,-2,-6,5,-4,-7,-45,2
1499877356332472,6,-3,0,1,-4,-9,7,10
1499877356353490,-16,-4,2,-7,0,5,-45,31
1499877356353490,-13,2,-5,-3,2,6,27,-88
1499877356354465,-2,-1,4,-6,-3,-4,13,-5
1499877356354465,-2,-3,7,0,6,-8,-32,-15
1499877356366505,21,-3,-11,7,12,4,23,80
1499877356366505,-11,0,0,-32,-2,-3,-13,-19
1499877356375503,0,2,-7,-5,-1,0,33,-7
1499877356375503,3,0,7,11,-5,0,-1,19
1499877356390528,2,2,1,-9,-11,-9,-36,-40
1499877356390528,2,-3,-28,14,-2,2,34,16
1499877356392501,11,3,-6,2,-2,2,23,34
1499877356392501,-11,-5,-9,34,-4,-6,-50,-32
1499877356413479,2,1,20,-42,-7,-3,10,-11
1499877356413479,1,-3,12,27,-2,-4,-6,7
1499877356414478,-3,-2,1,-42,-2,1,1,10
1499877356414478,2,3,1,26,1,2,10,13
1499877356426508,-7,-6,1,0,-10,-3,10,-38
1499877356426508,2,2,-4,12,5,-1,-12,22
1499877356435505,-5,-7,-11,23,0,-2,1,14
1499877356435505,0,3,0,-5,6,7,0,-12
1499877356458488,1,-1,8,-5,-3,-4,-2,-13
1499877356458488,-5,-4,17,-15,-5,-1,-5,13
1499877356459472,9,1,23,12,2,0,-4,7
1499877356459472,-9,-4,8,-8,-2,-4,13,-57
1499877356473475,-4,-2,-5,-1,4,5,11,-32
1499877356473475,-4,1,-1,17,2,-1,-14,-12
1499877356474477,9,2,-6,-10,-1,0,19,-6
1499877356474477,-14,-11,-3,-9,-7,-3,-30,-28
1499877356486512,1,2,-5,-8,-1,-5,2,6
1499877356486512,2,-2,-6,0,0,-3,-1,15
1499877356495494,3,3,-6,2,-1,0,7,12
1499877356495494,0,1,-9,-16,0,2,8,31
1499877356510517,2,0,5,0,-1,-3,-6,-20
1499877356510517,5,3,-19,23,2,1,0,4
1499877356512476,-6,-2,9,-25,1,0,-6,-2
1499877356512476,4,1,6,10,-2,4,18,24
1499877356533500,-6,-3,-3,-34,-5,-1,-1,-19
1499877356533500,0,-6,-10,4,1,0,-4,7
1499877356534476,2,3,6,5,1,1,-2,1
1499877356534476,-3,-9,-23,-2,-8,-7,-8,12
1499877356546516,1,1,-6,-27,2,-1,12,-5
1499877356546516,1,0,9,3,-2,-2,0,-10
1499877356555513,-8,-1,4,5,-2,-2,-19,4
1499877356555513,-3,-4,-3,-6,0,0,10,-21
1499877356570477,0,0,-5,16,-4,-1,1,7
1499877356570477,-4,1,-1,-8,0,2,-4,6
1499877356572479,-7,-7,-4,-4,2,-1,-20,-25
1499877356572479,11,7,7,-6,-4,-1,17,24
1499877356593503,-4,-1,4,13,1,0,10,3
1499877356593503,1,-12,-12,-17,-1,-2,-7,-1
1499877356594480,-3,3,-2,8,-3,-6,-23,3
1499877356594480,6,1,-3,-10,0,2,15,58
1499877356606520,-4,0,1,27,0,-4,3,-23
1499877356606520,9,4,10,-27,2,5,9,13
1499877356615493,0,-3,-11,-1,-4,-1,-4,16
1499877356615493,-5,-1,-1,-7,-1,-2,-2,-14
1499877356630542,-1,-1,5,5,2,4,-2,2
1499877356630542,-4,-1,-14,6,-3,-2,2,-15
1499877356632481,2,1,-4,-4,-2,1,18,-4
1499877356632481,-4,-5,5,-5,0,-5,-20,-10
1499877356653506,-6,-5,-12,-1,-1,-3,5,-20
1499877356653506,5,2,5,5,1,0,-6,-11
1499877356654484,-1,1,-6,-2,-3,-1,-16,-3
1499877356654484,-14,3,3,12,0,1,23,-29
1499877356666522,3,-3,-7,-8,0,-4,-5,9
1499877356666522,0,-1,-4,10,-3,2,5,27
1499877356675520,-1,-1,-4,-29,-1,-2,-3,-24
1499877356675520,7,0,5,-12,-2,6,20,19
1499877356690486,-5,-5,-11,-2,-1,0,-1,6
1499877356690486,-9,-3,7,-6,-5,-6,-10,-12
1499877356692483,7,-1,3,14,3,2,21,31
1499877356692483,2,2,-5,0,0,-2,-7,-6
1499877356713489,-1,0,-4,-14,-4,-1,-4,-14
1499877356713489,-7,-1,2,2,-1,-5,-5,-1
1499877356714488,-13,-4,-7,1,-2,-2,-6,-34
1499877356714488,2,2,2,22,2,3,-14,8
1499877356735487,7,-2,5,-24,-5,-4,-4,37
1499877356735487,-3,-1,2,0,3,-2,4,-4
1499877356737520,-1,-3,1,3,1,-3,-13,-13
1499877356737520,-2,-2,0,-13,-2,-1,-1,-7
1499877356750500,-1,1,-5,10,0,-5,-7,12
1499877356750500,0,0,-1,-1,-2,-1,-9,-14
1499877356752488,2,-2,0,-2,-2,0,18,-11
1499877356752488,-7,-1,0,3,-5,-6,-10,21
1499877356773499,-3,-2,4,10,0,1,-9,-17
1499877356773499,5,0,5,-5,-1,-2,-4,10
1499877356774488,-2,1,0,7,-1,-2,-3,-3
1499877356774488,-2,-1,-8,8,2,-1,7,-9
1499877356795548,-1,-1,-7,-10,-1,-1,17,1
1499877356795548,-6,-4,4,-8,-2,-2,-11,-8
1499877356797524,3,1,5,5,-3,-1,-2,-7
1499877356797524,-6,-3,-2,-6,0,-2,3,5
1499877356810527,0,0,1,10,-2,-2,-15,8
1499877356810527,0,3,8,9,0,1,28,2
1499877356812491,-6,2,5,1,0,0,-28,-63
1499877356812491,4,2,-7,-2,2,1,12,9
1499877356833517,1,3,-4,7,2,2,-1,3
1499877356833517,-2,-7,5,-5,-2,-2,0,9
1499877356834492,0,0,-4,-1,1,-2,-2,39
1499877356834492,1,-3,-3,-7,-4,-3,-17,-7
1499877356855565,-10,3,0,3,1,-1,0,-38
1499877356855565,-2,-4,-4,-8,-2,-1,0,3
1499877356857494,-1,0,2,3,0,0,10,13
1499877356857494,4,-2,-7,-5,-3,-1,-3,-7
1499877356869533,1,-4,0,-4,-3,0,-3,10
1499877356869533,1,-3,-14,24,-1,-1,3,11
1499877356876537,0,-3,-5,-34,-3,-2,-11,-20
1499877356876537,-3,-1,0,-1,1,0,-12,-17
1499877356893508,3,-3,9,-1,-2,0,-7,2
1499877356893508,-9,0,-3,7,0,2,2,-27
1499877356894528,1,-2,-38,5,0,-3,3,8
1499877356894528,0,2,-6,-7,-3,-2,-4,5
1499877356915560,-1,1,5,3,1,0,9,5
1499877356915560,2,2,14,-5,-2,0,-24,-2
1499877356917505,-4,-7,15,3,-1,-4,11,14
1499877356917505,-1,0,18,-3,0,-1,-4,-14
1499877356929543,-1,-2,-7,3,-1,1,3,18
1499877356929543,2,0,-1,-4,-3,-6,-3,22
1499877356936538,2,-1,1,-5,-2,2,10,-20
1499877356936538,-1,-6,-14,1,-3,-5,-9,-2
1499877356953526,-1,-2,-11,-3,-4,-2,6,0
1499877356953526,2,1,3,-5,-1,-1,-14,4
1499877356954501,4,1,-1,5,0,1,-3,21
1499877356954501,-4,-3,4,0,0,-1,-8,-20
1499877356975542,-1,-2,3,-2,-2,2,7,-12
1499877356975542,7,2,-20,-6,-1,1,0,9
1499877356977500,-3,0,10,6,-5,-3,0,10
1499877356977500,-4,-5,6,-2,0,1,-2,3
1499877356989517,1,0,-2,-7,1,-1,-1,11
1499877356989517,-2,-1,-1,-4,1,-3,-1,-29
1499877356996543,-5,0,-4,1,2,-6,-4,10
1499877356996543,2,0,-7,0,0,3,-12,-25
1499877357013530,1,1,9,7,-2,-1,11,11
1499877357013530,-1,-1,-8,-5,-3,1,8,-15
1499877357014503,-1,-2,1,2,-1,1,-4,16
1499877357014503,-1,3,0,-4,-2,-4,4,5
1499877357035523,0,2,1,4,0,-2,-20,-6
1499877357035523,-2,-2,6,1,-1,3,7,-14
1499877357037505,1,2,-3,-3,0,-3,-11,-6
1499877357037505,0,1,3,1,-1,-1,13,13
1499877357049571,-1,-6,-6,-8,-3,-3,-11,3
1499877357049571,-4,-1,-6,2,1,2,13,-6
1499877357056547,4,1,-6,1,1,1,-7,8
1499877357056547,3,0,-3,-5,0,-1,24,6
1499877357074549,-4,1,-5,0,-1,-5,-9,-8
1499877357074549,-3,0,-3,3,0,-2,-2,-4
1499877357075506,-6,-7,3,-5,-6,-1,8,-4
1499877357075506,1,-1,5,2,-2,0,-5,17
1499877357095572,-1,-1,-2,-6,-1,0,1,-15
1499877357095572,-1,-1,10,-5,-1,0,-13,-7
1499877357097508,-1,2,12,5,-1,1,3,20
1499877357097508,0,-2,3,-2,-1,-2,-9,-10
1499877357109555,0,-2,-2,0,-1,0,7,12
1499877357109555,1,0,-4,-2,-2,-3,-4,12
1499877357116555,3,0,6,1,1,0,12,3
1499877357116555,-9,-7,-4,-1,-3,-4,-16,-14
1499877357133538,4,2,-13,-8,-2,1,12,3
1499877357133538,0,-2,-4,-3,1,-1,3,4
1499877357134520,-5,-4,1,1,-1,1,-20,-18
1499877357134520,-2,-2,0,-3,0,-2,3,-1
1499877357155578,-3,0,-2,9,2,3,10,0
1499877357155578,0,0,-2,-4,-1,-2,-11,6
1499877357157512,-6,-6,6,1,-2,-3,8,0
1499877357157512,10,2,-8,1,0,4,31,21
1499877357169576,2,4,5,5,1,-1,-6,4
1499877357169576,1,0,-1,-4,-5,-2,12,23
1499877357176558,-1,-1,-9,1,3,-2,-19,-13
1499877357176558,-4,1,1,-6,-1,0,4,-20
1499877357193534,-3,-7,1,1,-1,-1,-2,6
1499877357193534,0,1,0,0,0,-2,8,-13
1499877357194548,2,2,-10,-4,-2,-2,6,11
1499877357194548,-3,-3,1,-2,-1,-1,-6,1
1499877357215562,-5,-3,7,-2,-1,-1,-6,-16
1499877357215562,-5,-3,3,-2,-3,-3,-10,-6
1499877357217549,1,1,-8,0,-1,0,2,2
1499877357217549,-1,0,-7,1,-2,3,-5,-16
1499877357229536,-1,-3,1,-1,-3,-6,-11,-5
1499877357229536,-1,-3,1,3,0,4,0,3
1499877357238517,-2,1,-2,-3,-3,-2,4,-6
1499877357238517,11,3,-5,0,-2,-4,-6,13
1499877357253540,-6,-7,9,-7,-6,-4,16,4
1499877357253540,-5,-3,-3,-1,1,0,-9,-6
1499877357254518,1,-3,0,-4,-4,2,7,21
1499877357254518,-3,1,1,2,2,-3,-23,-50
1499877357275580,1,0,-12,-3,-3,-4,-5,18
1499877357275580,-6,4,0,2,2,9,7,-35
1499877357277518,-3,0,-3,-2,-4,-3,-4,-6
1499877357277518,-3,0,4,1,-1,0,5,8
1499877357289536,1,-5,-1,-2,-2,-1,-1,2
1499877357289536,-1,0,-1,-1,-2,-4,-5,4
1499877357298521,-1,2,-2,2,2,2,-2,-9
1499877357298521,-1,-1,3,3,0,0,3,14
1499877357313543,1,-1,-10,-3,0,1,-1,-11
1499877357313543,-8,-6,-3,-1,-1,-2,2,2
1499877357314528,11,-3,-21,-4,-3,-5,-25,-44
1499877357314528,-4,1,4,0,-2,-4,12,13
1499877357335569,-3,4,-1,-1,0,3,-3,-24
1499877357335569,9,1,13,1,0,-5,6,21
1499877357337525,-9,1,12,0,-1,-3,5,-46
1499877357337525,48,1,9,2,3,6,17,80
1499877357349537,-24,3,-5,-1,-1,1,-11,-53
1499877357349537,-20,-3,-4,-2,-3,-3,-3,-37
1499877357358559,-6,3,1,-2,-1,-3,-7,26
1499877357358559,0,-2,2,2,-2,1,0,-2
1499877357373549,-12,-1,-3,-5,-1,2,21,-3
1499877357373549,12,-2,-5,-6,-1,-6,-18,-23
1499877357374523,-22,-5,1,-1,0,-1,9,60
1499877357374523,-15,2,-8,0,0,-2,-5,-2
1499877357395564,29,8,2,5,1,0,-4,3
1499877357395564,7,0,3,3,-2,-3,-11,71
1499877357397525,-2,0,-3,2,-1,3,11,-25
1499877357397525,2,-2,-1,-4,-1,-3,3,21
1499877357409536,-5,-6,5,1,1,4,-2,-2
1499877357409536,42,-2,-5,-4,-2,3,34,95
1499877357418526,3,2,3,4,-1,0,-15,3
1499877357418526,-15,-1,-8,-4,-2,-3,-7,-2
1499877357433541,8,4,-2,2,0,-4,-2,27
1499877357433541,-4,-2,-5,0,-2,1,2,-63
1499877357434537,-12,-9,4,-4,1,-2,-2,-43
1499877357434537,-34,-5,-11,-6,0,2,0,-7
1499877357455538,-6,3,5,1,2,-2,-25,25
1499877357455538,1,-2,4,-3,-3,-2,-5,10
1499877357457528,-17,-2,-2,1,-7,-6,0,-57
1499877357457528,21,-5,-5,-3,3,0,2,80
1499877357469547,-8,-3,-1,-2,-4,-2,1,-44
1499877357469547,-24,-3,-5,-3,-2,-2,-5,10
1499877357478528,17,9,-2,1,-1,1,2,-18
1499877357478528,-36,-2,15,0,-4,-4,-12,-15
1499877357493569,-2,-10,-11,-1,-2,2,12,-2
1499877357493569,-12,5,-1,-1,-1,-8,-6,-14
1499877357494532,7,-5,5,0,3,8,10,-1
1499877357494532,-35,-5,-10,-6,-6,-9,-26,-55
1499877357515571,-3,0,3,4,2,6,9,36
1499877357515571,9,-2,-9,-6,-2,0,2,13
1499877357517540,-12,-1,-9,-3,0,-5,-15,-7
1499877357517540,18,0,6,-1,-1,3,9,-46
1499877357529551,-1,-4,-1,-1,-1,-7,-12,-35
1499877357529551,-1,-4,0,0,0,1,8,51
1499877357538562,14,0,-6,-3,-1,0,-6,20
1499877357538562,7,-1,-3,-1,-3,0,1,-29
1499877357553570,31,0,5,-4,-2,-3,-1,95
1499877357553570,-47,0,-6,-1,-1,-2,-14,-31
1499877357554535,-6,-3,4,-4,-1,-1,21,-13
1499877357554535,-20,-2,-7,1,0,1,-1,-46
1499877357575602,-17,1,0,1,-2,-1,2,-39
1499877357575602,9,2,3,-1,-3,-3,-14,-9
1499877357577533,8,-2,-6,-1,1,3,4,22
1499877357577533,-7,1,-1,-1,-5,-1,-18,-37
1499877357589547,-13,-5,-9,-2,-3,-3,3,11
1499877357589547,6,-3,-6,-3,0,4,-4,-14
1499877357598565,7,-4,0,-6,-4,-5,-9,46
1499877357598565,18,2,2,2,1,1,16,34
1499877357612581,6,-1,2,-4,0,-4,-17,-17
1499877357612581,25,-7,-4,-4,-3,-4,0,-47
1499877357614554,-6,-1,-1,0,-2,-1,-1,7
1499877357614554,10,0,-3,-2,-1,-2,-12,20
1499877357635588,7,4,3,1,-1,-3,2,-17
1499877357635588,-17,4,3,4,2,4,18,-8
1499877357637538,3,2,3,1,1,-3,-4,19
1499877357637538,15,-1,4,2,0,-3,-4,5
1499877357657612,7,-4,-7,-9,-5,-1,8,67
1499877357657612,8,-1,2,0,1,0,-3,-13
1499877357659554,-12,1,-6,2,0,-2,6,-89
1499877357659554,-18,-1,-5,-3,-1,-3,-16,-18
1499877357673572,-2,-5,5,2,1,-2,-17,39
1499877357673572,-13,1,1,-1,-1,0,-1,-78
1499877357674541,-5,-4,-2,-4,-3,-1,1,23
1499877357674541,12,2,-4,2,1,2,9,5
1499877357695611,-8,-1,0,1,0,2,-3,-40
1499877357695611,3,3,-1,-2,-1,-2,11,36
1499877357697542,15,-3,5,2,-2,-1,-16,61
1499877357697542,-23,-6,-12,-14,-6,0,17,21
1499877357717617,-8,-3,4,2,1,1,-13,-46
1499877357717617,-4,-1,-6,-4,-2,-2,-2,18
1499877357719583,2,4,2,0,3,1,1,1
1499877357719583,8,-4,4,-1,0,-1,25,-1
1499877357733568,-3,2,-5,2,1,0,-5,22
1499877357733568,10,4,0,2,3,2,6,19
1499877357734579,-1,-1,-2,0,-1,-1,-8,-13
1499877357734579,2,-1,0,1,-2,-2,5,-12
1499877357755588,7,-1,0,-1,-1,0,9,4
1499877357755588,-4,5,7,4,0,0,-8,-12
1499877357757547,-2,-6,-11,-9,-6,-5,-4,24
1499877357757547,5,5,9,5,4,6,-3,-5
1499877357777616,-1,-1,-12,-4,-2,-5,9,-17
1499877357777616,-7,-2,-1,-1,-2,-1,-9,-10
1499877357779549,-2,0,7,-2,-1,-1,-14,-38
1499877357779549,-4,-2,0,0,-1,0,8,-21
1499877357792590,-3,-1,-4,-1,0,-3,-6,-17
1499877357792590,5,-1,-3,-3,-3,3,0,34
1499877357799567,10,2,2,-1,1,-1,-4,-1
1499877357799567,-5,-5,-4,-2,-2,-5,-5,0
1499877357815578,3,0,-1,0,0,2,-2,3
1499877357815578,-13,-6,-3,-1,-1,-3,-4,-6
1499877357817575,1,2,2,0,-1,2,8,22
1499877357817575,7,0,-1,3,-2,-1,-11,5
1499877357845627,-1,0,2,-1,-2,-3,-1,4
1499877357845627,4,-2,2,0,0,-2,6,30
1499877357847553,1,-7,-3,-2,-1,-2,-7,35
1499877357847553,3,1,-1,-1,-1,-1,-2,4
1499877357852589,0,1,-5,0,-1,0,4,-13
1499877357852589,13,2,-2,1,-2,-2,-5,24
1499877357859568,-7,0,-2,0,1,0,3,-1
1499877357859568,6,0,-1,-2,-1,1,-2,29
1499877357875617,-3,-1,1,-2,0,2,1,-16
1499877357875617,-14,-1,10,6,0,-9,-19,12
1499877357877577,-18,-4,-10,-9,-1,0,27,-43
1499877357877577,-2,0,9,2,0,-2,-17,-14
1499877357898570,-11,-4,-2,-4,-2,-2,-4,-17
1499877357898570,4,2,-1,4,4,6,20,24
1499877357899588,4,1,1,3,0,-1,1,16
1499877357899588,-7,-2,-3,1,0,-3,-12,-10
1499877357912594,12,0,-4,-1,1,1,5,54
1499877357912594,1,-3,-4,-4,-3,-6,-3,-36
1499877357919573,2,-1,20,1,-2,1,-3,-24
1499877357919573,2,-1,-11,-5,-2,0,-1,-11
1499877357935630,-7,3,3,4,-1,-2,-5,3
1499877357935630,-7,-8,2,-2,-3,-2,8,-35
1499877357937556,4,1,-10,-2,-1,3,3,57
1499877357937556,1,-2,-5,-2,-1,-5,-9,-11
1499877357957632,-3,-1,1,-2,0,0,0,-31
1499877357957632,-3,1,0,-3,-3,-4,0,-29
1499877357959594,13,5,0,4,3,3,-4,16
1499877357959594,-18,-3,2,1,0,-1,2,30
1499877357972568,-2,-1,-2,-1,-3,-1,1,30
1499877357972568,-3,0,-6,-3,0,0,-2,-18
1499877357979559,-3,-6,0,0,-1,-3,-15,-25
1499877357979559,5,1,-10,-5,-2,-2,14,12
1499877357995634,6,4,6,3,-1,-1,-4,1
1499877357995634,-16,-8,-6,-6,0,2,-4,-46
1499877357997559,-3,2,-4,0,2,1,-1,-27
1499877357997559,2,-3,3,-6,-1,-1,4,-7
1499877358018594,-3,0,-8,-3,-1,-1,-1,-13
1499877358018594,11,3,-2,0,-2,-2,-2,3
1499877358019561,-2,-1,-6,0,-1,-3,-17,-19
1499877358019561,14,4,7,4,0,2,0,-13
1499877358032604,-1,-3,-3,-4,-3,-3,-3,-41
1499877358032604,-8,-1,-3,0,0,5,6,29
1499877358039579,9,-2,1,-1,-4,-5,-5,35
1499877358039579,-6,-2,-4,-2,-4,-6,-2,-2
1499877358055630,-1,-1,-8,-1,-2,-1,2,7
1499877358055630,3,2,-2,-1,-2,-1,-3,8
1499877358057564,-2,-8,8,-4,-6,-3,12,-5
1499877358057564,-1,2,-5,-2,1,1,-8,4
1499877358077615,3,-5,7,0,-2,-4,-6,17
1499877358077615,-3,-5,-7,-2,-3,-2,-4,3
1499877358079566,7,3,-8,0,-1,0,2,4
1499877358079566,-13,-2,-4,-5,-2,-3,-10,-73
1499877358092609,-4,1,-1,0,2,3,9,-19
1499877358092609,-1,2,-3,-2,-2,0,9,35
1499877358099581,18,1,6,4,2,2,-10,29
1499877358099581,-4,-3,-3,-1,-1,-2,10,5
1499877358122586,-5,0,6,0,2,0,-3,-38
1499877358122586,1,2,-2,-2,-1,-1,1,-12
1499877358124577,1,-5,3,-4,-2,-1,9,15
1499877358124577,5,0,-3,2,0,2,-2,14
1499877358137617,0,-6,1,-5,-3,-6,-10,28
1499877358137617,17,-2,-9,-1,-2,-3,-4,19
1499877358139578,-9,0,-6,-3,-2,-5,3,-24
1499877358139578,7,1,5,-2,-2,2,-2,25
1499877358151576,-5,-5,-2,-2,-3,-1,-2,5
1499877358151576,6,-1,1,1,0,-2,-5,63
1499877358160589,-18,-1,-3,-1,1,-1,2,-37
1499877358160589,3,2,4,4,2,2,7,-11
1499877358175590,-4,-8,2,-3,-5,-4,-12,-16
1499877358175590,-1,-2,0,0,-1,0,0,8
1499877358177572,0,0,1,3,1,0,2,4
1499877358177572,-2,0,-7,-1,-1,-3,-2,11
1499877358197635,2,4,-3,1,2,3,2,0
1499877358197635,0,1,5,2,1,0,-6,-25
1499877358199582,3,-5,-4,-6,-4,-2,-2,48
1499877358199582,5,-1,0,5,-3,0,-1,12
1499877358211616,-9,-1,-8,-7,-2,0,2,15
1499877358211616,-12,1,6,0,0,0,0,-34
1499877358220572,-2,1,-4,0,2,3,11,1
1499877358220572,-4,-1,4,0,0,-3,-19,-23
1499877358235612,-2,-1,-5,-2,0,-2,4,-49
1499877358235612,-1,1,3,3,1,2,3,-24
1499877358237576,-11,-7,4,-7,-4,-5,-13,-45
1499877358237576,-2,-3,0,-3,-3,-2,-4,2
1499877358257620,2,1,4,-1,-1,-3,2,25
1499877358257620,-16,-2,1,0,1,-1,3,-88
1499877358259576,8,5,-2,1,-1,0,-5,-7
1499877358259576,21,-6,3,-2,0,1,-13,49
1499877358271645,-7,-1,-9,2,-1,1,9,7
1499877358271645,5,-1,3,-2,-2,-4,-6,27
1499877358280609,-4,-1,0,0,0,0,0,16
1499877358280609,6,-3,-8,-2,0,-3,0,-1
1499877358295620,-1,2,4,4,1,3,0,-10
1499877358295620,22,2,-1,-4,-2,0,-2,20
1499877358297588,-7,0,1,3,0,2,2,-12
1499877358297588,-20,0,1,-1,-1,0,7,-27
1499877358318608,-10,-3,2,3,0,-1,-11,12
1499877358318608,15,-7,-4,-3,-2,-3,4,4
1499877358319580,-14,4,2,9,2,0,-2,1
1499877358319580,-6,-1,-6,-4,-1,1,6,2
1499877358331624,6,-1,4,-8,0,1,-2,-24
1499877358331624,-11,-2,-2,-2,-3,-1,-9,-5
1499877358340578,1,-5,-14,-8,-5,-4,0,12
1499877358340578,-7,1,10,4,-1,-1,1,-8
1499877358355625,11,0,-4,11,-2,1,0,23
1499877358355625,0,-1,-9,-11,2,4,5,7
1499877358357584,-15,-4,-7,-3,-5,-3,3,-19
1499877358357584,27,1,10,0,-2,-1,-1,5
1499877358377647,-11,0,2,5,-2,-5,-16,-27
1499877358377647,-7,-3,2,-9,-2,0,7,6
1499877358379581,7,1,2,2,2,1,0,-6
1499877358379581,-10,1,0,-1,0,0,6,16
1499877358391646,9,-1,-5,-5,-1,0,5,20
1499877358391646,-1,-2,-6,7,-1,-2,-6,0
1499877358400588,-7,-1,1,-3,0,-5,-7,-23
1499877358400588,-10,-2,-3,-2,-2,4,7,-23
1499877358415603,3,-2,3,-3,-2,0,2,-12
1499877358415603,-6,1,-10,2,-2,0,-2,-40
1499877358417583,9,4,9,-2,0,1,9,15
1499877358417583,5,-6,-13,-7,-7,-4,-9,-7
1499877358437656,-17,-6,-13,-13,-3,-1,5,-34
1499877358437656,-5,0,2,-1,-3,-3,-18,-65
1499877358439591,14,2,4,3,0,2,-9,14
1499877358439591,-1,1,-1,1,1,-2,-3,2
1499877358451626,-2,0,5,0,1,2,7,15
1499877358451626,-3,-5,-8,-1,-4,-2,7,48
1499877358460594,2,-2,-8,2,0,-4,-9,-10
1499877358460594,-15,-1,0,2,4,1,-16,-23
1499877358475627,7,5,4,0,-1,0,5,15
1499877358475627,-5,0,2,1,1,-1,-5,5
1499877358477588,-7,-1,-3,1,-2,0,3,-10
1499877358477588,3,-2,5,0,0,-5,0,49
1499877358497658,12,-4,-13,-5,0,-3,-1,72
1499877358497658,-6,2,9,3,1,1,-2,-15
1499877358499588,-6,-3,-6,-5,-3,-2,-1,1
1499877358499588,-5,-2,-9,-5,-2,-3,-2,-15
1499877358511630,2,0,3,7,-1,0,6,31
1499877358511630,4,-3,2,-4,-4,-3,-6,17
1499877358526630,5,2,-5,1,-1,3,7,-11
1499877358526630,-13,1,7,3,-1,0,2,-4
1499877358535591,-7,-1,-6,1,1,-5,-7,-17
1499877358535591,-5,-3,1,-5,-3,-2,1,31
1499877358537592,-10,-1,1,-7,-1,0,-11,-39
1499877358537592,11,-9,-18,-6,-1,4,26,33
1499877358557661,-6,-3,-1,-4,-2,-4,-19,-31
1499877358557661,9,3,1,4,2,1,6,18
1499877358559597,-4,0,-1,-4,-2,-2,3,-44
1499877358559597,-3,1,-2,0,-2,-2,0,-17
1499877358571634,2,1,0,-1,0,2,1,-15
1499877358571634,-1,-4,-7,-4,-2,-2,1,4
1499877358580592,-3,-5,1,-2,-2,-4,-13,7
1499877358580592,-7,0,1,3,0,-4,-11,-20
1499877358595595,-2,-3,3,-6,-2,-2,2,-35
1499877358595595,-2,1,1,3,1,-1,-6,4
1499877358597596,2,-4,5,2,0,2,12,6
1499877358597596,-11,-2,2,-3,-2,0,-8,6
1499877358617669,4,0,-3,2,0,-2,-3,13
1499877358617669,-1,0,-3,0,0,3,7,-14
1499877358619612,3,0,-1,-4,-3,-1,-1,7
1499877358619612,10,2,5,-3,0,-3,6,32
1499877358640648,-2,-1,2,3,0,0,-2,-16
1499877358640648,4,1,-3,0,-2,-5,5,13
1499877358641634,-9,1,0,-3,1,5,2,-13
1499877358641634,18,3,5,4,-1,0,-1,42
1499877358655606,-16,3,-5,-4,0,1,8,18
1499877358655606,-6,-7,-1,-2,-2,-4,-9,-7
1499877358657599,-1,-6,-13,-7,-6,-6,-13,11
1499877358657599,-1,1,0,-1,0,1,7,13
1499877358677608,-1,-2,-1,-2,-2,-1,-3,-22
1499877358677608,0,4,-3,1,0,2,-5,-28
1499877358679599,3,-4,2,3,2,0,11,26
1499877358679599,-11,-5,-13,-10,-3,-4,-12,-47
1499877358700643,10,1,1,-1,-1,-1,-1,22
1499877358700643,-1,0,6,2,-2,-3,-4,-6
1499877358701602,-4,1,3,0,3,2,5,0
1499877358701602,7,-3,-14,-2,0,-1,0,0
1499877358715618,36,1,6,-5,-7,-7,-3,6
1499877358715618,-32,-7,-11,-10,-2,0,-7,3
1499877358717602,-4,1,2,2,1,-2,7,-1
1499877358717602,2,2,1,4,2,3,9,-7
1499877358737643,-3,-2,-3,1,-1,0,1,2
1499877358737643,9,0,3,3,1,-2,5,-4
1499877358739603,6,0,-2,0,-4,-3,-12,60
1499877358739603,-7,-3,-4,-4,-4,-2,-8,-25
1499877358760676,-6,-2,-3,1,-1,1,4,-15
1499877358760676,-7,0,6,1,-1,-3,-6,2
1499877358762605,0,-2,-9,-2,-1,-2,3,9
1499877358762605,4,-5,13,0,-3,-6,-9,-30
1499877358774615,-6,-3,0,1,1,2,-4,12
1499877358774615,5,-3,-4,-3,-1,0,3,-2
1499877358781668,3,3,-3,2,1,0,5,3
1499877358781668,0,2,11,5,1,3,-4,-5
1499877358797653,4,-1,-6,-7,-5,2,25,47
1499877358797653,5,3,-4,-3,0,-4,-19,-21
1499877358799611,-7,-2,1,3,-1,0,-4,-24
1499877358799611,0,-3,7,-3,-2,-2,-1,-4
1499877358820650,-14,-2,0,5,0,-2,-9,-3
1499877358820650,6,-2,-6,-4,0,4,9,17
1499877358821608,15,-3,-2,-7,-3,-1,0,33
1499877358821608,-4,-2,-7,0,-1,-2,-2,-41
1499877358834647,-11,0,-2,-3,-1,-3,-7,-21
1499877358834647,5,0,3,6,1,1,3,-5
1499877358841650,-5,-2,5,-3,1,-4,-12,-18
1499877358841650,13,-2,-11,-7,-4,-1,11,26
1499877358857678,3,2,-2,-3,2,3,8,14
1499877358857678,0,3,1,0,-2,-6,-17,-57
1499877358859610,-3,1,8,1,0,3,9,-2
1499877358859610,-5,-2,-6,-2,-1,-5,-4,-6
1499877358880682,-6,-1,-3,-1,-1,1,-13,-29
1499877358880682,6,-3,-3,-1,-5,-3,-18,-10
1499877358881612,1,3,-2,0,0,2,22,3
1499877358881612,-12,-1,1,1,1,2,4,-35
1499877358894623,0,-4,4,3,0,-3,-5,25
1499877358894623,-23,-5,-7,-5,-1,2,12,2
1499877358903611,4,-3,-7,-1,-1,-2,-10,-8
1499877358903611,7,4,-3,0,-1,1,-3,18
1499877358917654,-2,-1,1,-2,-1,-1,7,14
1499877358917654,5,-4,2,-1,-3,-1,3,8
1499877358919613,6,-1,-5,0,0,-2,-6,-9
1499877358919613,-7,0,2,-2,0,-2,4,19
1499877358940657,-20,-2,-3,-2,-2,-2,-6,-10
1499877358940657,33,2,-3,0,0,1,8,41
1499877358941626,-4,-2,-2,-1,-1,0,3,-54
1499877358941626,-5,-5,-3,0,-4,-2,-10,15
1499877358954659,-6,-1,2,0,0,0,-3,-8
1499877358954659,-25,-5,-6,-1,0,-2,2,7
1499877358961660,22,3,3,0,1,0,1,16
1499877358961660,12,2,-7,-3,1,5,5,-1
1499877358977691,-10,-3,-3,-5,-2,-3,-1,-21
1499877358977691,0,2,8,3,0,1,12,-1
1499877358979616,-7,-3,-4,1,0,1,-5,29
1499877358979616,-2,1,3,4,1,-2,0,-11
1499877359000691,-4,-1,1,-2,-2,-4,-10,-8
1499877359000691,-3,-5,-1,-3,-1,1,12,22
1499877359002617,-1,-1,-7,-4,-3,-5,-7,-14
1499877359002617,-6,1,-2,1,0,0,-6,1
1499877359014690,10,0,2,2,-2,-1,0,-27
1499877359014690,0,-1,2,3,1,-1,-9,5
1499877359021690,0,-2,-12,-15,-4,-3,1,10
1499877359021690,-11,-2,-5,-7,-3,1,-5,-14
1499877359037695,9,0,-4,-2,-1,0,1,5
1499877359037695,1,3,-1,1,-2,-1,-12,-3
1499877359039619,-13,1,15,7,1,2,1,-26
1499877359039619,0,-2,10,6,1,-4,16,13
1499877359060664,27,5,-2,2,1,1,-6,-8
1499877359060664,-29,-9,-6,-10,-3,-1,4,-9
1499877359061622,-2,0,-1,-2,-2,-2,4,5
1499877359061622,-6,1,-3,-3,-3,-3,-8,4
1499877359074663,5,-2,12,7,-2,-5,-8,6
1499877359074663,12,-1,-5,0,1,-1,1,-1
1499877359081636,0,-1,2,0,-4,2,8,-54
1499877359081636,-37,-2,-2,-3,-1,-4,-11,-12
1499877359097690,7,1,-4,-2,-2,0,5,-10
1499877359097690,3,-2,5,0,-1,-2,-15,7
1499877359099623,4,3,2,5,3,-2,2,0
1499877359099623,5,-3,-1,1,-1,1,-4,14
1499877359120667,-9,-2,-8,-3,0,2,15,-3
1499877359120667,12,1,-5,0,-1,1,-8,11
1499877359122626,5,-4,10,4,0,-1,-17,6
1499877359122626,4,4,4,1,0,-3,0,-23
1499877359133715,-9,0,-1,-5,1,-1,2,7
1499877359133715,6,0,-2,-1,-2,1,5,2
1499877359143627,-27,-4,0,0,-2,-2,-7,-7
1499877359143627,5,-1,-4,1,0,1,0,-23
1499877359157665,13,-2,-5,-5,-1,0,12,-30
1499877359157665,1,8,4,3,0,-2,-10,-43
1499877359159626,0,-5,2,-7,-1,-1,1,-2
1499877359159626,-11,-2,-1,0,-1,-2,-5,-22
1499877359180694,-8,-2,0,-1,0,-2,-5,33
1499877359180694,4,0,3,4,-1,-3,6,22
1499877359181629,-16,-4,-4,-2,-2,0,1,-34
1499877359181629,21,-2,-9,-11,-3,-2,0,34
1499877359194656,-2,1,2,-1,1,0,-7,3
1499877359194656,0,1,3,-2,0,-1,2,3
1499877359202669,-12,0,-7,-1,-2,-2,-5,19
1499877359202669,13,-5,-4,0,-2,0,12,12
1499877359217704,-28,-1,-3,-5,-5,-3,-8,-27
1499877359217704,-1,-1,5,1,0,-2,-3,-11
1499877359219663,1,0,-1,1,-3,-3,5,15
1499877359219663,-11,-2,-5,-1,1,1,1,-7
1499877359240672,9,5,-5,3,0,1,-17,-33
1499877359240672,3,0,2,2,-1,0,-5,2
1499877359241633,-4,-5,-2,0,-2,-2,-1,-15
1499877359241633,4,1,5,3,-1,-2,-4,-3
1499877359254648,3,-3,-5,-4,-1,0,7,32
1499877359254648,-13,-2,-14,-5,1,0,4,-35
1499877359262679,10,0,-8,0,1,-1,-9,32
1499877359262679,-6,-2,8,2,1,-1,2,13
1499877359277701,5,-3,1,4,0,-1,-2,9
1499877359277701,-4,-2,-1,-1,-3,-1,2,4
1499877359279649,3,-1,-6,-4,-1,0,5,30
1499877359279649,0,0,-6,1,-2,-2,-11,-19
1499877359300675,-8,-1,-3,0,-2,1,2,3
1499877359300675,0,-3,7,-1,-2,-1,10,36
1499877359301636,3,1,-1,-1,1,-1,-10,-6
1499877359301636,-6,-2,-4,-8,-3,-5,-2,3
1499877359314662,-2,-4,-5,-4,-1,0,-4,-41
1499877359314662,9,-1,1,0,0,-1,-3,-6
1499877359322643,-23,1,-6,1,2,1,2,-11
1499877359322643,6,1,-3,-2,-1,1,4,14
1499877359337708,-5,-2,11,0,0,-2,0,-3
1499877359337708,-11,-2,-1,-1,-2,-2,-6,9
1499877359339646,18,1,-6,-8,-2,-3,-3,-20
1499877359339646,-1,3,1,0,0,2,2,30
1499877359360682,-3,-1,-7,-3,-4,-5,-5,6
1499877359360682,-6,0,-3,1,2,4,-4,-18
1499877359361657,10,3,5,2,-1,-2,-5,-40
1499877359361657,2,-2,1,2,0,0,4,10
1499877359374662,8,-1,-3,-2,0,3,6,75
1499877359374662,3,-4,1,-3,-6,-9,-7,-12
1499877359382649,1,-2,4,0,-1,-3,-7,2
1499877359382649,-9,-2,-2,-1,0,-3,-8,5
1499877359397706,-10,-1,-9,-1,0,1,6,8
1499877359397706,-2,-1,-7,-1,-1,-1,-5,-27
1499877359399640,4,-1,1,-2,-2,1,-1,31
1499877359399640,-1,-3,5,2,-2,-1,-1,-6
1499877359420714,7,1,-1,-8,0,0,1,-10
1499877359420714,-2,1,-6,-1,-2,-2,-7,-13
1499877359421644,-11,-4,-4,2,0,0,3,0
1499877359421644,0,-2,-6,0,1,0,-5,-19
1499877359433713,10,1,-4,-3,0,-2,-5,-24
1499877359433713,-2,0,9,1,2,2,3,7
1499877359442650,15,0,20,6,-2,-4,-3,31
1499877359442650,-2,-1,-8,-3,-1,-1,5,7
1499877359457709,-10,0,-1,4,0,-1,4,-42
1499877359457709,3,2,1,-4,-2,-4,-1,21
1499877359459644,4,2,-6,-1,4,5,4,50
1499877359459644,8,2,5,-1,-1,1,-2,-36
1499877359480708,10,-2,8,6,-1,-2,3,16
1499877359480708,-17,1,-6,-6,-1,-1,-10,-31
1499877359481656,-2,-1,-6,-2,-4,-2,7,27
1499877359481656,-3,-4,-6,-1,0,-2,-6,-9
1499877359494667,-8,-2,2,3,2,2,-1,-21
1499877359494667,14,1,2,0,1,0,5,36
1499877359502685,-6,-2,-5,-5,-2,-2,-2,-18
1499877359502685,-5,0,8,1,-2,2,2,-5
1499877359517720,-7,-3,0,2,-1,-2,-3,-5
1499877359517720,6,-7,-10,-4,-3,1,2,3
1499877359519649,4,0,-1,-3,0,-2,9,8
1499877359519649,-10,-2,-5,-5,-2,-4,-19,-46
1499877359540702,-2,1,4,5,0,-2,-2,7
1499877359540702,-5,-3,-1,1,2,3,10,-7
1499877359541658,-4,-5,-6,-5,-3,0,-7,-13
1499877359541658,4,-1,-7,-4,-1,-2,-3,21
1499877359562676,-6,-5,-4,-7,-3,-2,11,-2
1499877359562676,3,2,-3,4,2,0,-10,-19
1499877359564650,9,0,-5,0,0,0,2,-19
1499877359564650,-3,-4,5,2,-3,-5,-2,23
1499877359577722,-3,-2,-1,-2,-1,-2,-10,0
1499877359577722,1,-2,-2,-5,-1,0,3,-19
1499877359579660,-8,1,-5,1,-1,-3,-8,-21
1499877359579660,14,6,-1,-3,-2,0,7,7
1499877359600720,-6,-2,2,-1,-2,-1,-7,-7
1499877359600720,-3,-1,-3,-3,-4,-4,2,9
1499877359601652,-1,0,0,1,1,0,-8,-39
1499877359601652,-5,-4,-6,-2,-1,4,3,6
1499877359622692,0,-2,-3,-5,-3,-1,-3,6
1499877359622692,-4,1,7,4,1,0,5,2
1499877359624653,0,-3,-2,0,-2,-2,0,17
1499877359624653,1,2,6,0,-1,-1,-5,-22
1499877359637716,3,-1,-2,3,0,0,-2,-12
1499877359637716,5,0,1,1,-1,0,7,38
1499877359639654,-13,-6,2,-1,-2,-3,0,-17
1499877359639654,-5,-9,-9,-5,-3,-3,0,33
1499877359660657,13,2,-3,-4,-1,0,-1,-3
1499877359660657,-14,1,-2,3,2,-4,-10,-11
1499877359662657,-3,2,3,-7,-1,-1,2,12
1499877359662657,-5,3,4,5,2,-1,5,-25
1499877359682693,17,-3,0,-3,2,6,9,31
1499877359682693,-42,-5,-5,-3,-3,-2,-6,-31
1499877359684657,1,1,-3,3,-2,-1,-4,-6
1499877359684657,-2,1,8,1,2,1,0,0
1499877359697677,-4,-1,-6,-1,-4,-5,-9,18
1499877359697677,5,-3,1,-3,0,2,5,-5
1499877359704688,10,0,-1,1,-1,-2,2,18
1499877359704688,2,-2,-9,-5,-3,-3,-12,-14
1499877359720723,1,0,3,2,-2,0,3,2
1499877359720723,3,-5,-3,-6,-3,-2,-5,-5
1499877359721661,-5,0,2,1,1,-1,0,8
1499877359721661,10,-4,-5,-4,-2,1,11,33
1499877359742667,-5,2,-4,-4,-1,-3,-11,-13
1499877359742667,3,0,-2,-1,-1,-1,-7,-11
1499877359744670,3,1,1,1,0,3,8,27
1499877359744670,-9,0,4,1,0,-4,-7,-30
1499877359757679,3,0,1,-3,1,-3,1,-14
1499877359757679,1,0,1,-2,0,-1,7,12
1499877359764699,0,-3,-4,0,-1,-1,0,17
1499877359764699,-12,-2,-2,0,-1,1,1,-25
1499877359780736,-17,-2,3,-1,-1,-1,-1,-7
1499877359780736,10,1,4,0,0,1,7,1
1499877359781679,-10,-5,-12,-6,-2,0,-2,-12
1499877359781679,2,4,5,3,0,0,-3,4
1499877359802703,-7,-3,-5,3,-2,-2,-6,2
1499877359802703,25,-3,14,0,-2,-1,0,72
1499877359804664,-13,-5,-4,-2,0,-1,-7,-12
1499877359804664,17,1,-2,-3,0,-1,6,32
1499877359817686,-7,1,-4,1,1,1,5,-12
1499877359817686,21,2,-5,-1,-3,-2,-6,10
1499877359823688,-3,-1,-2,1,-2,-2,-3,-7
1499877359823688,-8,1,-2,2,0,-4,-2,3
1499877359840707,9,-3,3,-7,1,2,0,28
1499877359840707,-4,-2,-5,-4,-1,0,2,-11
1499877359841695,-5,1,4,1,1,1,3,-25
1499877359841695,-2,0,-4,2,-1,0,-8,-9
1499877359862681,2,-1,-3,-3,-4,-6,-3,-9
1499877359862681,-14,0,-2,-2,1,-3,-6,-15
1499877359864668,3,3,1,2,1,2,0,4
1499877359864668,-2,-1,3,0,0,0,4,23
1499877359877685,3,0,-1,-1,0,-2,-4,-15
1499877359877685,2,-3,-1,2,-1,-2,-5,34
1499877359883691,1,-1,-3,-2,-2,-1,-5,-32
1499877359883691,-14,-2,-4,-1,-1,1,2,19
1499877359900713,0,3,5,2,2,1,-1,-9
1499877359900713,2,-2,-4,0,0,1,0,-15
1499877359901670,20,1,4,5,0,0,5,10
1499877359901670,-20,-6,-1,-6,-3,-3,-8,-35
1499877359922710,-7,-2,-2,-3,-1,-2,-9,-10
1499877359922710,-12,-1,-6,-2,-2,-1,5,-30
1499877359924688,6,0,2,0,1,-1,-3,-5
1499877359924688,1,-7,1,1,-1,-1,0,-7
1499877359937693,12,0,-3,-1,-2,0,10,27
1499877359937693,-3,0,-5,-1,-2,0,-10,-18
1499877359943672,-8,-2,-2,-2,-3,-2,-3,13
1499877359943672,7,-2,2,-1,-4,-1,3,-7
1499877359960717,-12,-3,-2,2,-1,0,0,4
1499877359960717,-9,-1,-1,4,3,3,11,14
1499877359961674,-9,-5,-7,-10,-5,-5,-15,-47
1499877359961674,-4,0,-8,-7,-1,-2,-1,4
1499877359982687,-4,0,-1,-1,-1,-1,-3,-8
1499877359982687,-6,2,-4,1,-2,-1,-2,8
1499877359984675,-7,-4,6,-1,-4,-3,-4,7
1499877359984675,14,0,-1,-2,-5,-1,8,12
1499877359997696,-12,1,-2,0,-2,2,-7,-6
1499877359997696,9,3,0,-1,2,-4,-11,-18
1499877360003708,0,-3,-1,-2,0,0,3,-3
1499877360003708,11,4,1,3,3,1,1,-5
1499877360020717,-12,-2,4,3,1,-2,-2,-7
1499877360020717,8,1,1,-2,-2,1,7,2
1499877360021678,32,-1,-3,0,1,1,-1,-3
1499877360021678,-22,1,3,0,0,1,0,-4
1499877360042724,0,-3,-5,2,-1,0,1,6
1499877360042724,-10,-1,4,-4,-3,-2,3,3
1499877360044678,0,-1,-2,-3,0,-2,-5,6
1499877360044678,10,2,-3,-1,-2,-3,-2,9
