timestamp,emg1,emg2,emg3,emg4,emg5,emg6,emg7,emg8
1499877292698358,0,0,3,1,-1,-1,1,1
1499877292698358,-11,1,-1,0,0,0,5,-37
1499877292702341,1,-2,2,3,1,-1,-1,11
1499877292702341,-5,-3,-6,-3,-1,-2,1,-7
1499877292703302,2,-2,-6,1,-2,-2,-11,8
1499877292703302,2,0,-1,-5,-1,-1,-6,-19
1499877292704302,22,0,-2,-3,-3,-1,20,79
1499877292704302,-18,-3,2,4,2,-1,-7,-23
1499877292708313,-1,-2,3,-5,-2,0,-1,-3
1499877292708313,-18,1,0,5,-1,-5,-26,-59
1499877292716303,10,-5,-7,-8,1,-2,-6,42
1499877292716303,-13,0,5,0,-1,4,42,-28
1499877292730366,27,1,-5,0,2,1,0,88
1499877292730366,-12,-6,2,1,-1,-2,-24,13
1499877292741343,-4,-1,-3,-7,-5,-3,20,24
1499877292741343,15,-1,-2,-4,-4,-5,-27,-8
1499877292745358,-9,2,-2,-4,-2,-1,21,-22
1499877292745358,-7,-3,2,3,0,-2,-14,25
1499877292768327,-7,-2,2,4,-3,-5,-25,-55
1499877292768327,-15,-1,0,-7,-1,-1,2,-10
1499877292806317,17,-1,-2,-2,-2,-4,-27,-22
1499877292806317,46,11,6,6,4,-2,-22,12
1499877292807330,-1,-11,-14,-8,-9,-1,-20,49
1499877292807330,-39,-1,-3,-2,-2,2,55,-8
1499877292808327,-15,3,2,2,0,6,32,-53
1499877292808327,-31,-6,-9,-7,-6,-9,-40,9
1499877292809334,-39,-6,0,4,3,2,-35,-109
1499877292809334,1,-5,2,7,-3,-4,17,40
1499877292819373,86,2,-5,-7,-2,1,-29,127
1499877292819373,-35,8,10,13,2,-4,37,-86
1499877292827356,8,-2,8,-13,-1,-9,-39,-65
1499877292827356,-5,-2,-3,7,7,5,-73,24
1499877292836314,46,-4,-1,1,-1,-5,-10,75
1499877292836314,101,26,17,7,5,31,99,50
1499877292849366,-104,-1,3,-5,-13,-8,69,98
1499877292849366,53,3,4,-5,1,-19,-74,-13
1499877292858375,18,0,0,4,1,-4,71,11
1499877292858375,-90,-3,-17,9,0,6,-38,15
1499877292872351,23,24,6,13,5,2,127,-36
1499877292872351,47,-5,0,-21,-12,8,-22,60
1499877292881332,-61,-12,-17,-11,-4,-5,-6,-26
1499877292881332,28,-7,25,15,8,-2,-39,-60
1499877292896346,-78,-25,-6,7,3,3,92,-4
1499877292896346,-14,4,-13,-9,-6,0,-75,-58
1499877292898326,-24,-9,5,7,11,11,14,36
1499877292898326,59,5,-33,-25,-13,-18,-36,-65
1499877292918363,-26,-34,-49,4,4,9,-99,96
1499877292918363,14,13,9,8,11,-4,15,-15
1499877292920319,-10,-9,-4,19,6,0,13,-50
1499877292920319,-45,-33,19,-9,6,0,84,11
1499877292932358,60,10,32,-33,-39,-13,-84,-10
1499877292932358,25,26,35,-12,-39,-8,-7,4
1499877292941346,-19,7,-5,22,-16,11,-8,74
1499877292941346,-4,12,-15,-30,60,10,11,113
1499877292956357,12,10,-21,3,18,10,-25,-86
1499877292956357,-72,-8,-6,11,9,10,81,-36
1499877292957319,-6,-40,8,1,0,-16,-128,28
1499877292957319,98,-4,-10,-19,-52,-3,-13,35
1499877292978359,11,-2,9,-6,21,3,55,95
1499877292978359,-12,5,-5,28,6,-12,-97,35
1499877292980356,-89,-12,-5,-8,-5,19,110,24
1499877292980356,40,13,10,22,-10,-12,-88,-74
1499877292992362,36,2,12,-28,1,-3,-109,-15
1499877292992362,78,-1,-6,4,1,6,9,33
1499877293001357,-13,35,-2,-16,-3,-17,-114,-40
1499877293001357,-47,-16,-11,19,-5,3,7,24
1499877293015363,13,18,-6,-5,-11,3,-15,-2
1499877293015363,-16,-29,16,33,8,0,-61,-27
1499877293022362,34,15,-34,-45,17,0,-1,-54
1499877293022362,-37,-4,-47,1,-22,-13,-31,-10
1499877293040338,22,-4,-5,-45,-14,-8,-14,42
1499877293040338,6,-3,-15,-19,-8,-17,-47,51
1499877293041341,-7,5,23,34,-7,8,83,-55
1499877293041341,-74,-12,23,-9,10,21,41,-82
1499877293052361,37,5,-1,30,15,-8,-9,-41
1499877293052361,19,21,10,-8,5,7,105,63
1499877293061359,-37,11,17,2,-3,-1,-91,-40
1499877293061359,22,4,32,20,2,-13,-15,77
1499877293075388,-57,-19,1,-30,-3,1,-22,-51
1499877293075388,2,-2,-23,-27,-5,20,82,27
1499877293082338,-20,11,4,5,1,-16,8,-110
1499877293082338,-32,-11,15,6,5,-5,0,-34
1499877293098330,7,5,-3,26,1,-9,-64,-18
1499877293098330,-9,-6,2,0,-6,-4,5,37
1499877293100363,16,-6,-8,8,-3,-3,8,14
1499877293100363,-5,0,-12,-66,-4,1,-22,16
1499877293121370,39,10,14,36,-1,0,-21,-19
1499877293121370,-25,-4,-13,2,8,7,19,-94
1499877293123331,-26,-7,7,-23,-9,-4,7,-30
1499877293123331,-8,-9,-15,0,-7,10,58,23
1499877293135390,16,6,12,33,1,-5,-81,3
1499877293135390,-5,-4,-9,-41,8,-9,-11,-9
1499877293142370,11,-6,-16,-15,-10,1,28,81
1499877293142370,19,12,0,19,-2,-4,11,37
1499877293158374,-47,-2,14,-25,-3,-3,44,-1
1499877293158374,-33,-20,-22,66,-2,-5,-80,-43
1499877293160341,31,-8,-18,-26,0,3,32,51
1499877293160341,27,5,-1,-9,1,-2,-2,72
1499877293181397,0,-5,-6,12,5,9,95,-20
1499877293181397,-14,-10,4,-11,-8,-10,38,-68
1499877293183333,32,2,-10,14,-1,-9,-128,-20
1499877293183333,-9,-1,5,10,-5,-2,35,25
1499877293196378,22,5,-13,-7,-8,4,16,-10
1499877293196378,1,6,16,19,11,-5,-52,-4
1499877293198342,-6,-8,7,-9,1,6,-13,64
1499877293198342,-99,-9,4,-4,0,0,40,-57
1499877293218378,-6,3,-2,13,0,-8,-20,15
1499877293218378,-17,-8,2,-2,-1,4,3,-17
1499877293220369,6,9,11,-17,-11,-3,-50,8
1499877293220369,21,-4,-14,16,1,-4,-22,-23
1499877293241376,-20,-9,-12,-28,-8,-11,-43,-8
1499877293241376,-26,2,-5,-9,0,3,-5,-75
1499877293243335,10,4,11,29,14,7,37,-68
1499877293243335,19,3,0,-4,-9,-8,-68,53
1499877293255402,12,7,4,10,7,4,55,14
1499877293255402,13,-1,2,11,-1,-1,35,1
1499877293262376,-6,-5,-4,-28,-2,-13,-59,-104
1499877293262376,0,-5,-13,2,-4,1,-3,-40
1499877293278379,12,2,14,-12,2,0,7,-15
1499877293278379,-19,10,20,-7,-1,-8,-67,-37
1499877293280340,0,-11,-11,7,-18,2,91,36
1499877293280340,19,7,3,6,0,0,-55,-26
1499877293301406,-14,1,-7,24,20,14,42,-39
1499877293301406,8,-1,0,-10,4,-2,-19,-14
1499877293303339,1,2,8,8,-8,-11,31,10
1499877293303339,2,-1,-10,-13,-10,-13,-53,-32
1499877293315401,-10,-2,8,10,-1,12,37,-7
1499877293315401,-9,-8,-2,-13,-6,-10,-18,19
1499877293322386,-9,-2,7,13,8,4,40,5
1499877293322386,-4,3,0,4,4,7,6,-23
1499877293338391,4,-3,1,-7,1,-5,-46,-1
1499877293338391,16,-4,-15,15,-4,12,84,82
1499877293340371,-8,2,3,-3,7,2,-27,-1
1499877293340371,-23,-8,-1,-34,-22,-15,26,-47
1499877293361407,12,6,5,0,1,-5,-23,5
1499877293361407,-6,2,-5,6,1,2,-25,6
1499877293362351,7,0,4,21,7,6,100,17
1499877293362351,2,-5,-6,-22,5,8,2,21
1499877293375386,14,-1,-15,-11,-10,-8,-69,21
1499877293375386,-12,-7,-6,-24,-10,3,86,-22
1499877293382380,-1,7,-6,23,16,3,-16,29
1499877293382380,-7,3,5,16,4,-8,-78,6
1499877293398355,13,-10,-3,-3,-5,11,120,-11
1499877293398355,-14,-1,-4,5,3,1,21,-21
1499877293400347,-14,2,1,3,-4,-8,-68,-39
1499877293400347,-2,5,4,1,8,4,-1,-44
1499877293421411,-33,-6,-4,-9,-18,-8,-25,-33
1499877293421411,16,5,5,-10,3,6,50,18
1499877293422351,16,2,-3,9,0,0,8,-7
1499877293422351,-21,-5,1,-5,3,-1,16,-28
1499877293435389,7,2,5,14,-5,-6,-15,18
1499877293435389,3,-1,8,-8,0,-4,-30,10
1499877293442359,-12,-11,-3,-12,-14,-4,-25,-29
1499877293442359,14,-2,-3,7,0,-4,-24,24
1499877293458388,14,-4,-14,7,4,9,21,81
1499877293458388,-2,3,4,20,9,-3,20,7
1499877293460349,9,8,2,-9,5,3,13,11
1499877293460349,-8,-8,4,-31,-19,-7,-32,-49
1499877293481391,-20,-8,-6,-5,-5,-5,-15,-47
1499877293481391,-22,-1,2,2,-1,4,12,-6
1499877293482351,30,1,-6,42,4,4,15,30
1499877293482351,-12,4,13,-10,6,10,104,-21
1499877293495397,-17,0,5,-6,-3,-6,3,-57
1499877293495397,-1,-3,-5,-12,-3,1,-38,-1
1499877293502391,4,0,-7,-4,-6,-6,-12,16
1499877293502391,17,2,-1,18,4,-4,-22,44
1499877293518366,19,3,4,7,9,11,30,88
1499877293518366,-8,-10,-2,7,3,4,15,-12
1499877293520353,-9,-11,-8,-19,-13,-9,-25,-1
1499877293520353,-1,0,-4,5,0,-1,-6,25
1499877293541392,2,-3,-6,7,5,-1,-7,14
1499877293541392,12,2,-2,2,4,-5,-34,-18
1499877293542353,-3,0,-7,-70,-28,-7,-8,-42
1499877293542353,5,-9,-7,19,2,3,39,34
1499877293555400,8,-2,2,15,7,-1,-2,33
1499877293555400,-6,-2,2,-7,-17,-4,-22,-79
1499877293562394,7,4,5,-12,5,-9,-117,32
1499877293562394,10,7,-2,3,2,11,80,5
1499877293578418,13,6,14,-7,-1,3,27,-2
1499877293578418,22,-6,-21,19,2,-8,-26,21
1499877293580357,-35,-3,8,11,1,-5,25,-9
1499877293580357,10,-4,0,-13,0,3,-29,-43
1499877293601416,-18,1,-13,3,-2,1,35,-29
1499877293601416,-13,7,2,-15,-2,-1,-11,1
1499877293602359,-5,-4,7,18,4,10,61,-19
1499877293602359,-2,-3,-2,7,-2,-7,-33,-35
1499877293615362,11,4,-2,-7,2,-5,7,8
1499877293615362,0,-2,-5,-14,-8,-5,-2,7
1499877293624358,-9,-5,-8,-2,5,1,-10,-8
1499877293624358,0,-2,9,5,2,0,-11,17
1499877293638425,14,-4,-5,0,-1,1,-16,33
1499877293638425,-2,-5,4,0,4,-3,-2,47
1499877293640360,-3,2,-3,-16,-1,2,18,6
1499877293640360,4,-1,-2,-16,-18,-11,-28,2
1499877293661434,9,0,-7,12,-10,-6,-25,20
1499877293661434,12,-4,-9,-16,7,4,-9,-33
1499877293662362,10,-1,4,7,3,-1,20,-12
1499877293662362,-12,-4,-9,-3,1,-5,-3,-28
1499877293675366,-21,-2,-3,6,-3,-5,-89,-51
1499877293675366,-10,25,-13,5,-1,-1,8,-23
1499877293683408,-8,-2,4,-7,-4,10,66,-53
1499877293683408,10,-2,-8,8,2,-2,-30,21
1499877293698402,7,-9,-1,-7,-3,-4,-10,-1
1499877293698402,1,0,-1,-19,-9,1,-23,-16
1499877293700376,1,-4,-5,5,3,-9,-44,56
1499877293700376,18,1,3,1,-1,-3,25,-11
1499877293721404,-11,1,-6,-8,-3,-1,-14,-22
1499877293721404,-6,-4,12,-1,-7,-19,-5,26
1499877293722364,-6,-5,-9,-5,-2,16,-1,-49
1499877293722364,-16,-7,-14,-6,-1,-1,11,16
1499877293743428,0,-7,5,-13,1,-10,-33,-5
1499877293743428,9,-2,11,26,-2,3,27,13
1499877293745397,11,0,3,-31,8,-3,-10,23
1499877293745397,0,8,6,14,11,6,0,46
1499877293758413,-6,-3,-13,-28,-12,-4,-14,9
1499877293758413,-2,-6,-1,-6,0,-3,6,7
1499877293760369,-2,1,0,26,-6,-4,3,-58
1499877293760369,12,7,1,-3,2,9,23,17
1499877293780407,-2,3,2,6,3,-3,40,-14
1499877293780407,-5,-1,-1,3,2,5,-17,-30
1499877293787410,-7,-3,8,5,6,11,42,-33
1499877293787410,-13,-4,7,25,-2,-8,-15,-20
1499877293803375,2,1,-4,-12,-1,1,5,-6
1499877293803375,-12,-5,-6,-8,-1,2,23,-18
1499877293805369,19,-1,-3,-3,-2,-10,-31,75
1499877293805369,-14,4,11,14,5,3,26,-68
1499877293826409,-12,0,-2,2,0,-3,-1,-18
1499877293826409,9,-4,10,3,3,-2,-32,10
1499877293827378,-1,2,-2,-4,-4,-5,5,-11
1499877293827378,-10,-4,-5,-14,-4,4,12,23
1499877293840391,2,-1,7,9,2,2,-24,-4
1499877293840391,4,1,2,4,4,2,0,21
1499877293847432,-15,-4,-5,-8,-3,-9,-14,-12
1499877293847432,4,-5,-4,5,-10,0,-7,7
1499877293871372,5,-2,-12,-38,-4,-3,-9,11
1499877293871372,-18,-3,6,3,-3,0,50,-4
1499877293872380,0,1,3,7,-1,-2,-21,10
1499877293872380,19,3,-11,5,3,-6,-34,7
1499877293886441,-8,-2,4,13,2,12,66,-8
1499877293886441,10,-5,3,-5,-5,-7,-29,3
1499877293887397,6,1,-3,16,10,5,9,-38
1499877293887397,-20,-5,-4,-16,-3,-6,-31,-20
1499877293900417,-9,-2,4,6,-4,-6,-16,10
1499877293900417,1,-4,-12,-14,-3,-4,-28,26
1499877293907419,7,0,0,2,-6,-1,-28,-1
1499877293907419,11,1,0,-1,1,12,44,-4
1499877293931449,2,0,-7,4,2,-5,-19,-12
1499877293931449,-3,-2,-8,-7,-3,-3,-10,-9
1499877293932377,-2,-3,-4,-5,-2,-3,-13,0
1499877293932377,-3,4,1,-3,-1,-4,-15,-14
1499877293946416,9,-8,5,1,-4,-3,9,79
1499877293946416,-2,3,-1,0,2,5,-17,-27
1499877293947376,5,5,2,2,6,7,37,41
1499877293947376,0,-3,-12,-12,-3,-5,-11,36
1499877293960419,-2,0,-1,7,0,0,6,7
1499877293960419,-7,-4,-3,1,-3,-3,23,-6
1499877293967452,-6,-2,6,-15,-5,0,-15,-10
1499877293967452,-3,-2,-5,8,3,6,16,-41
1499877293983425,0,0,-3,1,-1,-6,-49,-6
1499877293983425,14,0,-3,-6,-2,6,28,35
1499877293985379,-1,-2,12,-1,-2,-4,-8,4
1499877293985379,6,2,-7,-4,0,-4,-16,27
1499877294006422,7,2,-10,12,3,-1,4,43
1499877294006422,9,-2,-28,1,-2,-5,-14,3
1499877294007380,0,-3,-15,-5,-4,-3,-4,-13
1499877294007380,-1,4,-17,1,1,-2,-18,30
1499877294020384,-13,-1,-6,-4,-1,1,23,-6
1499877294020384,3,-3,36,-3,-1,0,4,33
1499877294027409,-4,2,12,6,2,3,34,-37
1499877294027409,-9,-5,26,-4,-5,-7,-12,-34
1499877294043383,4,6,15,-4,-4,0,-5,-32
1499877294043383,-1,1,7,-1,-1,0,13,-5
1499877294045383,14,-4,14,7,0,-7,-24,-11
1499877294045383,0,-1,6,-8,-6,-2,11,8
1499877294066392,3,-5,-1,-2,-3,2,14,7
1499877294066392,-3,3,-6,-2,-3,0,-18,28
1499877294067384,-6,3,-11,-1,7,0,-7,-25
1499877294067384,-4,-3,5,5,-5,-5,-10,14
1499877294080418,37,-10,-4,-4,-5,-1,-13,61
1499877294080418,-9,4,-6,-4,0,3,10,5
1499877294087385,-20,-8,-11,-11,-5,-1,24,21
1499877294087385,4,2,4,2,5,-1,4,8
1499877294103397,-10,1,7,-2,-3,-4,-11,-34
1499877294103397,-2,-5,-1,-2,-6,-4,-2,-8
1499877294105386,3,0,-5,1,-3,-1,-19,37
1499877294105386,0,1,-6,2,6,5,0,-9
1499877294126429,-9,-3,-3,-3,-1,-4,10,8
1499877294126429,6,0,3,-1,-1,-4,-3,-1
1499877294127389,-5,1,-38,-1,-1,-1,8,-3
1499877294127389,-6,-5,-62,-6,-3,-5,-6,-26
1499877294139435,-7,-2,-29,-2,-2,-3,-6,-33
1499877294139435,-12,0,7,3,2,5,6,-50
1499877294148406,-5,-1,41,3,1,3,18,-3
1499877294148406,-4,-5,28,-6,-2,-1,4,12
1499877294163457,-15,4,27,4,-6,0,-4,-47
1499877294163457,4,2,10,-2,0,-3,-8,-28
1499877294165423,-6,-5,15,6,-1,-3,-20,18
1499877294165423,-5,-2,2,-4,4,-1,11,12
1499877294186433,-12,0,7,-3,-4,-3,-23,-29
1499877294186433,-7,-1,-12,-3,-2,5,21,-77
1499877294187393,-1,0,-14,-6,-7,-8,-1,-11
1499877294187393,-5,0,7,6,-1,1,12,7
1499877294200411,4,-3,-7,-5,-1,2,33,13
1499877294200411,8,-3,-5,-2,-1,-5,-33,63
1499877294208410,6,-1,-6,-1,2,-3,-11,33
1499877294208410,-2,-4,3,-2,-6,-6,-24,-12
1499877294223473,-5,0,-1,-8,0,1,9,-11
1499877294223473,-5,3,-6,5,4,3,-21,-14
1499877294225424,-3,4,-6,0,0,1,26,-13
1499877294225424,0,-4,8,-2,-3,-1,-1,27
1499877294246436,2,-1,-3,1,4,-1,-3,-16
1499877294246436,9,-4,-7,2,-2,2,8,50
1499877294247395,-4,5,9,-2,-4,-3,-4,8
1499877294247395,-4,-3,2,4,1,4,7,-22
1499877294259457,17,0,-10,-6,2,-3,9,72
1499877294259457,-6,0,0,0,-5,0,7,-3
1499877294268445,-2,0,-3,4,-3,0,4,-6
1499877294268445,6,3,6,3,9,5,-3,7
1499877294283408,1,-1,15,3,0,-3,-13,-25
1499877294283408,-7,-4,-10,-5,-2,-3,-14,29
1499877294285397,4,-1,-10,-2,-1,4,18,11
1499877294285397,1,-1,-1,0,-2,-1,2,-1
1499877294306446,-11,-4,-6,5,2,-1,-15,-28
1499877294306446,2,-1,1,-4,-4,-2,9,2
1499877294307398,6,-4,-7,-2,-2,-4,-22,4
1499877294307398,-10,-1,-9,-4,-2,1,23,-4
1499877294319467,-7,-1,14,8,3,0,-9,-41
1499877294319467,6,-2,3,-2,-1,-1,2,52
1499877294328448,-2,2,-2,-3,-1,0,2,-40
1499877294328448,9,-2,-6,0,0,-4,-11,18
1499877294343428,4,-2,3,-1,-6,-2,-5,39
1499877294343428,-7,-2,-6,-3,-2,-3,8,-31
1499877294345402,-5,-1,4,3,-2,-5,-6,-17
1499877294345402,2,2,-4,-5,-3,-5,-21,-3
1499877294366401,10,-1,-7,2,3,5,21,8
1499877294366401,1,-3,0,-1,-1,-6,-6,-9
1499877294367401,18,-7,-3,0,7,7,-17,19
1499877294367401,-2,1,2,1,-10,-2,25,-16
1499877294379448,3,0,-9,-3,3,-3,-19,16
1499877294379448,-6,-7,9,4,4,9,35,16
1499877294388420,-7,-4,-9,-8,-6,-6,7,-31
1499877294388420,4,4,7,2,3,1,-24,-3
1499877294403406,-10,4,-1,-3,1,1,-4,-12
1499877294403406,3,2,-2,3,0,-2,-2,2
1499877294405413,-13,-1,-2,-12,-3,-4,-8,15
1499877294405413,-3,-1,10,0,-4,0,4,1
1499877294426448,-7,-3,1,-4,1,-3,5,-24
1499877294426448,-4,0,-3,-6,-1,-3,-14,-18
1499877294427414,3,-1,-5,0,-2,0,0,36
1499877294427414,-1,1,-4,1,0,-4,-13,-11
1499877294439470,0,-1,0,-1,-4,5,10,-23
1499877294439470,-2,-5,0,2,0,-1,-6,-13
1499877294448422,-4,-4,-9,-8,-5,-6,-13,2
1499877294448422,8,-3,-4,-4,-3,0,-16,27
1499877294463430,-11,-7,3,1,-8,-5,25,-39
1499877294463430,-6,2,-5,-4,-2,-1,3,-44
1499877294465406,1,6,12,5,-1,1,-7,18
1499877294465406,-1,-7,-15,-11,-3,-1,2,-20
1499877294486451,-14,-4,-14,-4,-2,-5,-10,2
1499877294486451,3,2,-1,0,3,-2,-7,4
1499877294487409,-2,-1,-2,-3,-4,-3,-3,2
1499877294487409,-3,0,1,2,-2,-2,0,-12
1499877294499411,5,1,-14,2,3,5,11,-4
1499877294499411,-3,-2,-18,-1,-4,-4,-40,11
1499877294508428,-2,-5,2,-2,-5,0,16,2
1499877294508428,3,-1,7,-2,2,-2,12,22
1499877294523477,4,3,18,2,1,-1,-21,8
1499877294523477,-2,-3,7,-1,0,1,18,16
1499877294525419,2,-1,-3,2,1,0,-18,-28
1499877294525419,-10,-2,7,2,-3,-3,-8,-17
1499877294546454,5,3,3,-3,-2,0,-8,-2
1499877294546454,-2,3,15,-6,-4,0,9,2
1499877294547421,0,1,23,4,1,1,4,7
1499877294547421,0,-5,4,-4,-1,-3,-6,-2
1499877294568455,-9,0,2,0,-5,-3,2,-30
1499877294568455,-1,-5,-11,-3,-1,-3,-1,15
1499877294570428,0,3,-12,1,2,0,3,-5
1499877294570428,-6,2,-8,3,2,1,-5,-7
1499877294583460,1,-6,-16,-7,-3,-1,-6,25
1499877294583460,-2,-1,-14,1,1,1,-3,-22
1499877294585418,2,-1,-6,-2,-3,-3,-12,-7
1499877294585418,4,-4,-13,-3,0,-4,-8,4
1499877294606454,7,1,2,4,1,3,12,49
1499877294606454,1,0,7,-3,-2,2,12,7
1499877294607427,5,1,3,-1,-1,-1,-10,4
1499877294607427,8,2,-3,0,-2,-2,18,39
1499877294628459,8,3,0,-1,-2,-1,-6,26
1499877294628459,1,4,-2,2,-1,0,-12,-18
1499877294630429,-8,0,-4,0,1,-1,-13,-22
1499877294630429,-8,-1,4,0,1,5,31,-5
1499877294643464,0,2,3,3,0,-2,8,-3
1499877294643464,5,-5,5,-1,2,0,-5,16
1499877294645417,-14,-2,-9,-6,-1,-3,3,-9
1499877294645417,-12,0,3,1,-1,-2,-15,-39
1499877294666459,-7,-5,-8,0,2,-1,-8,8
1499877294666459,6,-1,-4,-12,-4,-2,12,-14
1499877294667420,11,-7,-2,-2,-2,-2,4,-52
1499877294667420,-10,1,-1,4,0,0,0,-13
1499877294688489,-4,1,2,1,2,2,5,-25
1499877294688489,3,1,-8,0,0,-3,-16,37
1499877294690421,9,-3,6,-3,-3,1,17,60
1499877294690421,-4,-2,-3,-7,-2,-2,-4,7
1499877294703444,-5,-2,4,8,4,3,-4,-19
1499877294703444,1,1,5,1,1,1,11,-16
1499877294709465,-5,0,1,6,-1,0,0,8
1499877294709465,14,0,-7,-4,-3,-2,-10,39
1499877294725492,31,-4,2,-4,-5,-6,-2,60
1499877294725492,-22,-2,3,-3,-1,-1,1,-24
1499877294733465,-9,-2,-2,4,3,1,-2,-21
1499877294733465,-2,0,1,-2,-2,-1,-2,9
1499877294748458,13,2,-8,-4,-1,-2,-9,56
1499877294748458,-2,-1,-9,-2,1,-2,4,26
1499877294750425,4,-2,2,-3,-3,-3,-5,-4
1499877294750425,10,-2,-7,-6,1,0,4,10
1499877294763446,0,0,6,1,-3,-1,-4,9
1499877294763446,13,1,1,-5,-4,-5,-32,3
1499877294769466,-9,0,-3,-2,0,0,15,13
1499877294769466,0,-4,9,2,-3,-1,-2,-31
1499877294786469,-14,2,3,4,2,2,12,-43
1499877294786469,1,-2,-5,6,1,-3,-14,38
1499877294787431,0,-3,-8,-9,-3,-2,-13,-29
1499877294787431,-11,0,2,2,-3,0,1,32
1499877294808470,-8,-3,-4,-4,-2,0,-1,-18
1499877294808470,14,0,-2,5,-1,2,14,11
1499877294810427,11,-2,0,1,0,-1,1,20
1499877294810427,-2,0,-1,-2,1,0,1,-14
1499877294823438,-5,-4,-3,-7,-2,-3,-21,-90
1499877294823438,-1,-5,-3,1,0,-2,-6,30
1499877294829442,-12,3,1,1,-2,6,47,8
1499877294829442,2,0,-1,0,0,-3,-3,-27
1499877294846468,-4,-2,2,4,0,-2,18,-14
1499877294846468,-3,-7,5,-4,-6,-5,-14,-29
1499877294847430,-2,0,1,-2,-1,-4,-11,7
1499877294847430,17,2,-9,0,-1,3,4,26
1499877294868497,5,2,-3,-4,0,-1,-3,-9
1499877294868497,-10,-2,6,1,1,0,0,-12
1499877294870432,-3,3,3,3,2,2,-1,22
1499877294870432,-6,-4,2,-1,-1,-2,0,-16
1499877294883446,-1,-2,-1,1,2,-1,-19,-30
1499877294883446,-1,4,2,2,-1,2,24,-15
1499877294889473,-2,-3,-10,-2,0,-4,-23,-3
1499877294889473,0,4,-9,5,2,3,13,-10
1499877294906459,-6,-5,8,-4,-2,0,3,60
1499877294906459,-4,-1,8,-3,-2,-1,9,-83
1499877294907441,-6,-2,7,0,-2,-2,10,-2
1499877294907441,-4,2,3,0,0,-2,-27,-11
1499877294928445,-15,-5,-10,-1,-8,-6,-14,7
1499877294928445,-4,-3,-1,5,-2,0,16,3
1499877294930433,18,1,3,-1,0,-4,14,31
1499877294930433,-13,-9,0,2,1,2,10,-28
1499877294943437,7,3,0,-10,-2,6,36,21
1499877294943437,2,3,-3,-1,-1,-7,-14,14
1499877294949455,0,3,22,3,2,0,-6,-3
1499877294949455,4,1,-24,0,-1,-2,-10,9
1499877294966458,-1,-3,-12,-4,-8,-9,-10,-11
1499877294966458,-7,-5,-5,7,6,11,29,8
1499877294967437,-10,-7,4,2,-1,-3,-38,-36
1499877294967437,-2,-5,19,-7,-4,-4,5,1
1499877294988480,4,2,-1,0,-8,-1,2,13
1499877294988480,6,10,33,-3,6,-5,-39,40
1499877294990437,1,-22,-67,-13,-6,-8,-18,-8
1499877294990437,-11,-9,-36,-5,-3,2,15,-32
1499877295003439,-7,-4,-1,4,-3,2,11,-7
1499877295003439,12,10,15,2,-5,-1,20,4
1499877295009483,-5,-5,-21,0,7,5,-15,13
1499877295009483,-8,-1,32,-9,-12,-13,-14,-8
1499877295026474,9,-8,-9,-4,6,2,19,32
1499877295026474,-13,-7,-19,-10,-7,-4,-33,-56
1499877295027440,-7,5,5,-1,-4,-3,8,32
1499877295027440,3,6,7,6,5,5,13,-7
1499877295048447,-5,0,-7,4,-1,-2,-5,0
1499877295048447,1,-5,5,-6,-5,-5,-8,7
1499877295050442,0,8,11,13,2,1,13,-18
1499877295050442,-3,-1,3,2,-3,2,-1,5
1499877295062442,0,9,9,6,2,-1,-17,-7
1499877295062442,-6,-14,-34,-1,5,3,9,-11
1499877295071444,2,0,10,2,-4,-2,-20,-2
1499877295071444,8,1,0,-6,1,-3,-1,3
1499877295086477,-2,-3,3,-5,-1,-3,16,-31
1499877295086477,1,0,10,-1,-7,-7,-8,15
1499877295087443,6,-1,-9,0,1,4,25,17
1499877295087443,8,-1,-4,2,2,-2,-25,6
1499877295108446,-7,-4,-9,-5,1,-3,15,11
1499877295108446,-2,0,12,-1,0,1,15,-4
1499877295110444,-2,2,13,-3,-1,1,-3,-22
1499877295110444,-1,-1,-5,4,4,4,-14,-5
1499877295131444,3,-6,-1,-5,-6,-2,-5,-32
1499877295131444,-2,-1,-3,6,-1,1,2,1
1499877295133448,-4,-1,-1,-4,-3,-2,-2,-15
1499877295133448,1,-2,-9,-2,-6,-2,-2,-8
1499877295146457,-3,-2,1,-1,-1,-4,-13,47
1499877295146457,21,2,1,0,1,0,-3,48
1499877295147446,-9,1,1,-3,-2,-3,5,11
1499877295147446,-6,-6,-1,-8,-5,-6,-38,6
1499877295168509,8,4,13,3,1,2,7,-7
1499877295168509,0,0,-11,-5,-2,-1,-5,-56
1499877295170480,12,-1,0,-1,3,1,-6,-2
1499877295170480,2,2,5,4,4,-2,3,21
1499877295182493,-19,-4,-5,-4,-1,-3,-7,-6
1499877295182493,-10,-1,1,-2,-2,-1,7,7
1499877295191482,-1,2,-8,-2,0,-2,-8,-4
1499877295191482,-8,-7,-3,-5,-4,4,12,-7
1499877295206490,6,3,-4,4,1,3,-4,32
1499877295206490,-11,-7,-5,-7,3,-3,-3,-44
1499877295207460,-2,4,10,-1,-3,-7,-3,-7
1499877295207460,6,2,20,6,2,6,30,1
1499877295228495,5,2,-2,3,0,-1,-10,13
1499877295228495,3,-1,-5,0,-5,-4,-32,26
1499877295230459,20,3,4,1,-2,1,28,33
1499877295230459,-10,-2,-1,-6,-4,-3,-5,-10
1499877295242492,7,-7,1,-5,-2,-4,-11,24
1499877295242492,7,0,3,1,0,2,17,49
1499877295251454,-1,-4,-1,-1,2,1,-4,12
1499877295251454,3,3,-15,1,-1,-2,0,-13
1499877295266493,-4,-2,3,-5,2,-3,-3,-33
1499877295266493,-3,0,-1,0,0,3,-6,32
1499877295267454,7,-1,2,2,1,-3,-13,5
1499877295267454,-3,5,0,-3,2,-4,-5,2
1499877295288526,-11,-5,-19,1,3,-2,-17,-19
1499877295288526,-16,-2,-6,-3,-5,0,17,8
1499877295290454,-5,-4,-1,-2,-3,-1,-21,-16
1499877295290454,-2,-3,7,-4,-2,-2,17,-14
1499877295302493,4,1,5,-6,-1,-2,-14,-18
1499877295302493,5,2,-4,2,0,1,2,49
1499877295311456,-9,3,1,0,-2,5,20,-6
1499877295311456,0,-1,-2,4,-1,-4,-5,15
1499877295326467,-1,3,15,5,2,3,12,-6
1499877295326467,5,1,-17,-1,-4,-3,2,-37
1499877295327485,-9,-10,-1,-6,-1,1,-1,-57
1499877295327485,15,-3,-9,-3,0,-3,-7,-27
1499877295348501,11,3,6,4,2,2,9,1
1499877295348501,6,2,2,6,3,2,9,-27
1499877295350461,22,1,1,-5,-2,-6,-5,9
1499877295350461,18,0,0,-2,-6,-3,1,11
1499877295362498,8,-11,-17,-1,-2,-2,-5,-7
1499877295362498,1,-3,3,-8,-3,-4,-8,-16
1499877295371472,-5,1,-1,1,-3,1,12,15
1499877295371472,-13,-2,2,2,-5,1,-11,14
1499877295386492,-9,3,0,1,5,2,-2,6
1499877295386492,-3,-2,-6,-2,-2,-3,-6,-16
1499877295387460,-5,1,-1,1,-3,-5,-8,-1
1499877295387460,-6,1,12,4,0,-2,-9,-7
1499877295408530,-15,4,-2,-2,-3,-2,-5,-18
1499877295408530,-19,-1,4,2,1,5,11,-2
1499877295410462,-27,0,-6,-2,-3,-1,-9,9
1499877295410462,-15,1,0,0,5,1,6,-4
1499877295422502,-14,1,0,-1,-3,-2,-12,-23
1499877295422502,-8,0,-6,-2,3,-1,10,17
1499877295431464,0,2,2,-3,-1,2,2,-34
1499877295431464,-9,-5,-9,-4,1,1,19,14
1499877295446503,-9,1,-3,-5,-1,-2,-2,5
1499877295446503,-2,6,4,3,-4,-3,-9,-5
1499877295447465,-5,0,2,7,1,1,5,-7
1499877295447465,-7,-12,-17,-10,-3,-8,-2,6
1499877295468508,2,-2,2,-2,-5,-1,-1,-2
1499877295468508,2,2,0,2,-1,3,3,-2
1499877295470475,1,-6,-10,-4,0,0,-26,17
1499877295470475,2,1,-7,1,0,1,17,1
1499877295482515,13,0,-1,-1,-1,0,15,17
1499877295482515,-2,-6,4,3,1,-3,-11,-6
1499877295491467,0,-5,-4,-1,-3,-2,7,-13
1499877295491467,-3,3,3,5,-5,1,-3,-24
1499877295506516,2,-4,5,2,1,-1,-15,23
1499877295506516,-4,-3,-7,-9,-3,2,6,-39
1499877295507480,1,-2,2,-8,2,-3,-6,-2
1499877295507480,-2,-1,-3,-4,-3,-2,-16,-5
1499877295528509,3,4,-6,2,-3,0,29,-8
1499877295528509,1,-2,4,1,-2,0,-3,4
1499877295530501,-4,-3,9,2,-2,-3,2,-1
1499877295530501,-2,0,-13,-7,-2,-2,-5,-4
1499877295551513,-2,2,8,-9,-6,-3,-7,15
1499877295551513,0,-5,-13,4,1,-4,-9,-2
1499877295552470,3,2,-17,-2,0,0,3,23
1499877295552470,8,0,1,3,2,3,3,24
1499877295566511,-6,-1,6,-1,0,-2,-9,-9
1499877295566511,0,-2,-1,-7,-1,-3,10,-6
1499877295567481,6,4,6,-4,1,-1,4,-38
1499877295567481,3,-7,1,-2,0,-5,0,-20
1499877295588536,-8,0,-6,-1,1,-1,-45,-25
1499877295588536,7,5,14,-2,-3,5,53,-1
1499877295590471,-7,-1,-3,0,-5,-1,-4,-2
1499877295590471,-5,1,-1,6,1,7,19,-70
1499877295611517,1,-7,-8,-1,-3,-1,1,7
1499877295611517,1,-3,-7,-2,-2,-4,-20,-8
1499877295612474,-7,0,3,-1,0,-1,-5,-2
1499877295612474,7,1,-3,4,0,0,-7,34
1499877295626513,4,-3,10,2,-1,2,9,8
1499877295626513,1,-2,-6,-1,2,-2,-6,75
1499877295627485,1,-1,-16,-3,-2,-2,-5,11
1499877295627485,-4,0,21,2,-2,-3,-18,-15
1499877295648486,0,0,-7,-1,0,1,1,4
1499877295648486,4,4,6,0,-1,0,-6,17
1499877295650480,-1,-6,18,5,-2,2,2,-9
1499877295650480,-1,-2,-9,-7,-1,-4,-9,25
1499877295671495,3,-5,-28,-2,-1,-3,4,7
1499877295671495,0,-1,-4,0,-4,1,-9,-21
1499877295672477,5,1,1,1,1,3,5,8
1499877295672477,2,2,1,-2,0,-1,-3,5
1499877295685539,-4,-1,3,-1,-3,0,7,-14
1499877295685539,-2,1,2,-3,-1,-3,-28,-22
1499877295692506,0,-5,-6,-1,0,-1,24,9
1499877295692506,3,1,6,3,-1,0,9,31
1499877295708521,2,-4,-3,-4,-4,-5,2,15
1499877295708521,13,0,-5,0,-1,-2,-4,1
1499877295710478,-2,4,8,6,1,0,-9,-22
1499877295710478,-5,2,-5,-8,-2,-3,-14,-9
1499877295731547,-6,0,2,0,0,3,9,-16
1499877295731547,-6,-9,-9,-4,-2,-2,-6,-10
1499877295732481,4,-3,6,-2,3,0,3,11
1499877295732481,2,-2,14,-6,-4,-4,-3,11
1499877295745491,4,-4,-17,2,1,2,-3,-32
1499877295745491,-6,4,25,-3,-2,0,-4,18
1499877295752481,0,-2,-2,-3,-3,-1,11,47
1499877295752481,-4,5,16,5,3,2,-15,-27
1499877295768491,-1,-1,-5,0,0,-1,-2,4
1499877295768491,0,-7,-44,2,-1,-2,12,1
1499877295770484,2,4,1,-6,-6,-1,-8,4
1499877295770484,-2,1,-37,6,1,1,3,-25
1499877295791505,-7,3,9,-6,-2,0,3,3
1499877295791505,-7,-11,-2,-1,5,-2,-17,-12
1499877295792484,0,3,-2,0,-2,-5,-6,-4
1499877295792484,1,-6,6,1,-5,-2,-1,31
1499877295805546,-1,2,12,4,2,-4,-14,-11
1499877295805546,-12,3,7,-3,0,2,25,-17
1499877295812524,4,-5,-10,-1,-2,-1,-3,5
1499877295812524,-1,5,7,-1,5,-3,2,4
1499877295828526,2,0,1,4,-3,-1,-8,-3
1499877295828526,2,-5,-12,-9,-1,-5,-10,-4
1499877295830519,-6,-6,-19,3,3,-1,-6,-20
1499877295830519,-43,17,22,6,-4,0,11,22
1499877295851503,-14,11,57,-3,-2,2,-1,-4
1499877295851503,-9,-17,-78,-12,-7,-7,-5,-8
1499877295852493,12,6,17,-1,1,0,-3,-4
1499877295852493,23,-8,25,1,-1,-1,4,-33
1499877295865548,11,-12,-53,-2,6,2,7,12
1499877295865548,9,9,16,11,10,5,14,-2
1499877295872530,-2,-6,-10,-7,-6,-6,-7,-5
1499877295872530,9,-5,-37,-6,-6,-3,1,-6
1499877295888565,-5,-11,-2,-1,-15,4,-5,-14
1499877295888565,6,0,23,5,4,-1,-1,20
1499877295890501,-4,-1,-16,0,3,6,10,1
1499877295890501,-1,0,22,2,13,-1,-6,8
1499877295911513,3,1,-7,-6,-2,-5,4,-11
1499877295911513,-1,-3,-11,-1,-12,-4,-15,3
1499877295912492,-6,6,25,2,-5,-3,-1,0
1499877295912492,4,-7,-9,-6,-4,-3,-27,36
1499877295925554,-4,-2,-10,-6,2,1,14,-1
1499877295925554,0,3,8,-3,2,4,15,0
1499877295932540,2,2,3,2,0,-3,-5,5
1499877295932540,-2,-5,-28,-9,-6,-2,8,-11
1499877295948556,6,4,6,6,-2,1,-5,7
1499877295948556,-1,-1,26,4,-2,2,0,-1
1499877295950502,-3,-1,-4,-6,-2,-1,-4,-14
1499877295950502,2,-5,-1,8,5,4,4,9
1499877295971505,-2,-3,0,-6,0,-3,2,3
1499877295971505,-4,2,2,1,1,-1,-4,-7
1499877295972494,-4,-6,-1,-3,-1,1,1,-5
1499877295972494,-8,-3,0,1,-1,-2,-13,-61
1499877295985531,0,1,-5,2,0,1,7,33
1499877295985531,-1,4,-9,1,-2,-4,-7,-43
1499877295992533,10,-2,14,1,-2,-6,-4,-17
1499877295992533,-4,0,5,-8,-4,-2,27,13
1499877296008566,2,-3,-16,-1,0,-5,-15,7
1499877296008566,1,6,11,-1,0,1,-8,25
1499877296010529,0,5,5,-2,0,-2,1,-2
1499877296010529,-4,-11,-26,-5,-11,2,-4,-13
1499877296031539,2,0,12,13,11,2,-4,3
1499877296031539,-1,-6,-6,-14,-8,1,8,9
1499877296032500,-10,-2,2,2,4,-2,-8,12
1499877296032500,4,1,8,3,-1,-3,-9,-7
1499877296044542,1,-2,13,-4,-3,-2,4,13
1499877296044542,12,4,20,3,-2,0,-3,1
1499877296053532,-11,-11,-19,-12,-9,-5,8,-26
1499877296053532,1,3,-10,-5,1,-2,-3,1
1499877296068546,1,2,22,-5,0,1,0,-5
1499877296068546,-1,1,-4,8,0,-1,1,-5
1499877296070516,-5,-6,-3,-2,-4,2,1,4
1499877296070516,8,-8,-39,0,0,0,3,26
1499877296091511,0,0,12,-5,-4,-5,-7,-12
1499877296091511,-5,0,-4,-1,-1,-1,-3,-1
1499877296092501,-1,1,15,6,4,2,-1,-2
1499877296092501,-3,0,23,2,0,-3,-11,-1
1499877296104545,-3,1,1,0,-1,0,13,-2
1499877296104545,-7,-4,-5,-2,0,-1,9,26
1499877296113530,-3,2,-15,3,-1,1,0,-3
1499877296113530,3,4,13,-3,0,0,-17,-44
1499877296128574,9,2,-7,-5,-2,-1,12,30
1499877296128574,-6,-1,2,-5,-3,-2,7,1
1499877296130536,-6,-3,2,5,0,3,-1,0
1499877296130536,-2,2,2,-5,-1,0,6,15
1499877296151506,-2,-3,-3,2,1,-2,-15,-26
1499877296151506,-8,-2,-1,1,-1,-3,-10,-40
1499877296152504,-5,6,13,6,2,1,1,16
1499877296152504,17,-2,-26,-1,-1,-2,3,48
1499877296164570,19,-4,-6,-3,-3,1,2,-6
1499877296164570,-14,-3,1,-1,-2,-4,-9,4
1499877296173549,-4,4,24,1,-1,0,-5,3
1499877296173549,-6,-5,-6,3,0,1,10,37
1499877296188571,1,0,3,-3,-1,-1,1,9
1499877296188571,-2,-10,-7,2,-1,-4,-17,-14
1499877296190540,8,5,-3,-1,2,1,4,20
1499877296190540,-4,-11,-31,-8,-1,-3,-4,27
1499877296211519,4,3,-1,8,0,1,1,15
1499877296211519,1,6,22,-6,0,1,-5,-23
1499877296212510,-7,-8,-19,-3,-6,-2,-8,-10
1499877296212510,-2,4,11,-2,-1,2,6,-4
1499877296224577,-9,0,-8,2,-2,-4,-6,-23
1499877296224577,7,0,4,5,4,2,6,36
1499877296233535,3,0,-9,0,4,-1,-5,-29
1499877296233535,-6,1,10,-4,-4,-3,2,-11
1499877296248552,-5,0,4,8,1,1,12,43
1499877296248552,3,-6,-9,-5,2,-4,-17,-28
1499877296250511,-16,-1,-17,-11,-7,0,7,11
1499877296250511,-4,0,9,14,0,-5,-10,-31
1499877296271527,-21,-5,-14,-4,-4,0,-1,-22
1499877296271527,6,5,7,-6,-4,0,9,-27
1499877296272523,4,-4,-4,-16,10,2,4,-31
1499877296272523,-5,0,14,2,2,2,2,-7
1499877296285584,-9,-9,-26,8,-13,-7,-11,-8
1499877296285584,5,-1,21,-10,-7,-6,4,7
1499877296293513,5,-3,-32,-6,1,-1,-1,15
1499877296293513,-1,4,19,3,-2,0,5,32
1499877296308536,5,-6,12,9,8,4,1,52
1499877296308536,-11,-3,-4,8,0,-1,-9,-16
1499877296310529,-4,-4,-8,-10,-6,-3,9,-2
1499877296310529,6,-3,-8,-8,3,0,-1,-17
1499877296331525,3,5,7,3,3,1,12,-22
1499877296331525,-1,-4,-24,-4,1,2,7,19
1499877296332514,7,-4,1,5,-1,-4,-10,0
1499877296332514,0,1,-4,1,1,2,5,-9
1499877296344587,-2,-1,5,-4,-5,0,-2,-19
1499877296344587,0,-1,-6,-6,-3,-3,-1,-27
1499877296353552,8,1,7,18,1,-3,-1,32
1499877296353552,-7,-2,7,-8,-3,-1,-5,-66
1499877296368557,-12,0,5,-4,2,-3,-9,11
1499877296368557,-1,-2,-10,8,5,3,-1,10
1499877296370553,-3,-3,13,-5,-6,0,-3,-7
1499877296370553,0,-1,17,13,-1,-3,-3,-3
1499877296391529,2,3,-11,-10,10,4,0,-7
1499877296391529,0,-2,-12,-18,-21,-6,-6,32
1499877296392518,-1,1,-4,9,1,-1,-1,-22
1499877296392518,0,2,17,-10,-5,-1,2,16
1499877296404585,3,3,12,1,-1,3,1,-27
1499877296404585,-3,-1,13,11,12,-3,0,14
1499877296413558,-2,-10,-25,-5,-5,-1,-4,-7
1499877296413558,4,9,9,8,5,4,5,6
1499877296428563,15,-7,-20,-12,-6,-6,-9,46
1499877296428563,-2,0,6,-8,-1,-1,-2,-10
1499877296430521,5,1,-1,-1,6,0,7,68
1499877296430521,0,-5,-23,1,-3,0,1,-7
1499877296451547,0,1,10,-1,-1,-1,0,-12
1499877296451547,-2,-4,4,10,-1,1,3,-10
1499877296452524,5,0,9,1,-1,-2,-12,13
1499877296452524,-4,-1,-8,1,-4,-1,-3,9
1499877296472563,-16,-3,-10,-1,-3,-4,-7,-49
1499877296472563,-3,-2,10,-4,0,0,3,-17
1499877296473561,7,1,-4,3,0,0,-4,45
1499877296473561,11,-5,-12,-9,1,-2,1,68
1499877296487525,-7,4,12,1,0,0,-2,-18
1499877296487525,-1,0,-22,0,0,1,3,20
1499877296488561,-1,3,17,-6,-1,-1,-3,-21
1499877296488561,0,-5,-6,-3,-3,-3,0,0
1499877296510524,-6,-5,15,-1,1,3,1,0
1499877296510524,-1,3,-8,0,-3,0,0,-36
1499877296511526,-2,-8,-11,-3,-5,-1,2,-27
1499877296511526,-5,-2,-15,1,1,-3,-4,-17
1499877296532556,-2,2,7,-4,-3,-3,-5,-20
1499877296532556,-1,1,12,-3,-3,-3,-1,-3
1499877296533563,0,0,1,-6,-8,-6,-3,-2
1499877296533563,-9,-1,-4,-2,2,3,0,-26
1499877296547592,6,-3,-2,-3,-1,-3,3,16
1499877296547592,2,-4,-3,6,2,-1,-5,17
1499877296548564,-2,-2,-3,-2,0,-1,-2,-9
1499877296548564,1,-7,-20,-7,-5,0,12,0
1499877296570544,-4,-5,5,-1,-4,-5,-6,14
1499877296570544,3,1,-18,-1,-2,0,7,19
1499877296571529,5,-1,25,8,0,-4,-11,32
1499877296571529,-12,-3,21,-3,-2,-2,0,-21
1499877296592568,0,2,-7,1,-2,-1,-5,-9
1499877296592568,4,-4,-23,2,-1,-2,-5,-15
1499877296593566,1,1,-9,-5,0,2,1,-18
1499877296593566,2,5,14,-2,-2,0,-6,-5
1499877296608551,0,4,13,1,1,4,10,4
1499877296608551,0,-7,-7,-1,3,-5,-18,-15
1499877296608551,-7,1,-4,1,-1,-1,-7,5
1499877296608551,0,6,23,1,2,0,-1,6
1499877296630543,1,-4,-1,1,0,-2,-4,-12
1499877296630543,-2,-3,-20,-5,-1,1,5,42
1499877296631532,-4,-2,2,2,2,3,-3,-45
1499877296631532,-1,-3,-22,7,2,1,0,-22
1499877296653555,1,-1,-5,-6,-7,-3,-2,20
1499877296653555,-2,0,17,3,0,-1,5,-3
1499877296653555,-4,1,-2,-1,-1,0,10,-4
1499877296653555,-1,1,-9,-4,0,2,0,9
1499877296667600,-3,1,-3,-7,-1,1,-3,-1
1499877296667600,-5,-6,-11,2,-3,-2,-5,-34
1499877296668577,-7,-3,-5,-4,-2,-2,0,-16
1499877296668577,8,2,6,7,0,-1,-4,19
1499877296690575,5,0,-18,6,6,1,8,13
1499877296690575,-4,-1,23,-3,-1,0,-15,-3
1499877296691536,-7,-1,10,3,-2,0,7,-17
1499877296691536,-2,-5,-12,-9,-5,-4,-5,10
1499877296713587,3,-2,-12,4,-2,0,-5,-43
1499877296713587,5,8,15,-3,3,3,7,10
1499877296714539,2,4,-2,5,3,2,3,-23
1499877296714539,1,4,4,-2,-4,-2,-4,16
1499877296727580,-14,-14,7,-11,-7,-5,-3,-37
1499877296727580,-7,2,-4,1,1,-2,-1,-4
1499877296728577,1,0,-18,2,1,1,-2,10
1499877296728577,0,1,-2,-8,-1,0,0,-7
1499877296750539,-2,-1,-22,-6,-4,-2,-1,11
1499877296750539,4,5,10,2,5,0,4,-2
1499877296751548,-1,-8,9,-1,-9,-6,-9,9
1499877296751548,-3,-4,4,2,3,1,-3,-3
1499877296772588,3,2,2,-2,-2,2,8,8
1499877296772588,-2,-2,-1,-7,-9,-2,-4,-6
1499877296773576,-1,2,13,2,5,2,2,-10
1499877296773576,-7,-3,1,13,2,-4,-7,-25
1499877296787576,10,-3,-12,-21,-2,-5,-4,29
1499877296787576,-8,5,1,4,-2,2,6,27
1499877296788576,-3,1,-3,-11,-5,1,9,-9
1499877296788576,-5,-2,7,6,3,-1,-19,-22
1499877296810582,-1,-1,-5,14,1,2,-1,6
1499877296810582,3,-4,0,0,8,3,4,33
1499877296811554,9,-3,-4,-9,-8,-3,12,17
1499877296811554,1,-5,-7,-5,-2,-5,0,16
1499877296832564,0,1,-9,18,10,-2,-3,-21
1499877296832564,3,5,11,14,7,1,-5,4
1499877296833544,-6,-5,-14,-44,-29,-7,-7,-21
1499877296833544,-1,0,11,-11,-5,0,8,-33
1499877296847585,-1,6,10,2,-2,-3,-5,8
1499877296847585,0,-15,-22,6,2,-3,0,22
1499877296848582,-3,-1,0,19,16,3,-3,-1
1499877296848582,-6,4,-9,-3,-1,6,6,-3
1499877296870585,-4,1,11,-13,-1,-1,11,-9
1499877296870585,5,8,9,6,0,0,0,-15
1499877296871555,-4,1,-4,6,-2,-5,-7,-20
1499877296871555,3,-4,-4,1,2,-1,7,10
1499877296892586,3,0,2,-1,3,3,6,13
1499877296892586,-1,-3,-5,-10,-8,-7,-19,-77
1499877296893558,-7,1,4,7,-2,-3,-9,27
1499877296893558,-1,-2,-1,-22,-8,-6,-1,2
1499877296907615,0,-2,-6,4,-4,0,-1,19
1499877296907615,-8,1,5,-10,-9,-4,-4,5
1499877296915611,6,-5,-20,3,7,2,-5,50
1499877296915611,-1,-2,-15,5,0,-2,-2,-4
1499877296930593,-3,-7,-13,-8,1,1,-2,14
1499877296930593,2,-3,5,-15,-10,-2,-3,9
1499877296931561,9,0,10,8,6,2,9,31
1499877296931561,-4,1,0,-6,-7,-2,3,66
1499877296952592,-5,3,-4,-3,-7,-6,-22,-36
1499877296952592,-6,-1,19,6,-1,0,6,-10
1499877296953583,3,0,-4,6,6,2,4,-28
1499877296953583,-4,-6,-10,-4,-3,1,6,-17
1499877296976563,-3,3,17,5,0,-2,-4,-8
1499877296976563,-1,0,-30,-3,-4,-2,2,14
1499877296976563,1,-3,6,2,2,-2,2,4
1499877296976563,3,1,-3,3,0,0,-5,-22
1499877296990593,-2,-2,-4,3,-1,-1,-1,5
1499877296990593,0,2,6,3,3,2,7,6
1499877296991554,-4,-3,4,3,-1,3,7,5
1499877296991554,-2,0,-1,0,1,-3,-13,-24
1499877297012595,-4,-1,-1,-3,-1,-3,5,-18
1499877297012595,7,-3,7,1,-1,2,4,13
1499877297013591,-16,-2,-3,-4,0,0,-2,-43
1499877297013591,2,2,2,3,0,-1,-7,17
1499877297027626,-3,0,-13,1,0,-2,-4,-1
1499877297027626,-3,-4,10,-1,-1,-4,-3,-2
1499877297035621,8,-1,-5,-5,-2,0,0,-2
1499877297035621,0,-3,2,-12,-9,-3,4,7
1499877297050576,-5,-3,32,0,-5,-3,-16,-3
1499877297050576,10,-5,-61,-10,1,4,5,14
1499877297051558,0,-1,-1,-6,-6,-4,-1,21
1499877297051558,-1,4,-6,2,8,0,-1,-21
1499877297072600,4,1,1,4,0,-1,4,12
1499877297072600,-4,2,12,0,-1,-2,-2,-11
1499877297073596,-3,-2,0,-2,-1,-2,-9,6
1499877297073596,1,-1,0,5,-1,-1,-1,1
1499877297087620,-1,1,-8,-2,0,2,1,-3
1499877297087620,-4,0,-2,-3,0,-1,3,3
1499877297095619,-1,0,-2,-1,-4,-2,-6,-13
1499877297095619,2,-2,9,3,-2,0,2,15
1499877297110603,-3,-1,-2,-5,-1,1,2,-18
1499877297110603,-2,-4,5,-3,-4,-2,-4,21
1499877297111570,3,-1,-3,-6,-3,0,0,5
1499877297111570,1,0,2,4,3,-1,-5,-13
1499877297132577,0,-4,-2,-1,-2,-2,3,11
1499877297132577,-1,-2,7,4,-1,-4,-12,-5
1499877297133587,-9,-2,-13,-4,-1,-1,1,-39
1499877297133587,3,3,-3,0,-3,0,1,9
1499877297156582,2,1,2,0,-1,1,3,6
1499877297156582,-8,-4,7,0,0,-1,0,-8
1499877297156582,-1,-2,6,-3,0,-2,-1,1
1499877297156582,-2,-2,-2,-1,0,0,3,7
1499877297170564,-3,-6,-10,0,-1,-3,-3,-9
1499877297170564,0,0,2,-6,-2,1,2,4
1499877297171601,2,8,7,2,2,-2,-2,-19
1499877297171601,-1,0,-2,1,0,1,-4,-7
1499877297192605,-2,-1,4,1,-1,-1,-3,9
1499877297192605,-4,1,-4,-3,-4,-4,-20,-16
1499877297193574,2,-2,-6,1,-1,3,11,17
1499877297193574,-3,-2,-2,-2,0,1,9,1
1499877297207618,1,0,-6,-2,-4,-3,0,6
1499877297207618,8,4,7,4,3,4,8,-22
1499877297215632,-6,-3,4,2,1,0,-5,-3
1499877297215632,-4,-6,-1,-3,0,-1,-4,-5
1499877297230633,0,-1,-4,-3,-2,-1,-1,12
1499877297230633,-2,-2,-3,-2,1,0,4,11
1499877297231577,-4,1,7,6,-4,-4,0,-32
1499877297231577,-2,-6,-18,-10,0,2,0,-9
1499877297252580,0,-3,-4,-1,-4,-2,-7,2
1499877297252580,1,0,3,-2,0,2,3,6
1499877297253571,-1,0,2,0,0,-2,-4,18
1499877297253571,-5,-5,-4,2,-5,-6,-4,-4
1499877297267593,0,4,3,-6,0,0,4,-12
1499877297267593,-3,-1,-6,2,-1,-3,4,-31
1499877297275634,8,3,0,-5,-1,-1,-5,21
1499877297275634,3,4,8,1,1,-2,0,-4
1499877297290572,-4,-7,3,-1,-1,0,14,0
1499877297290572,-3,-2,0,-5,-2,-3,-2,-1
1499877297291589,0,0,-10,-1,0,-1,-8,-7
1499877297291589,-1,5,-24,0,1,1,4,-7
1499877297312611,-1,-3,-10,3,0,-1,-1,-2
1499877297312611,0,1,11,-2,-2,2,4,22
1499877297313611,9,0,23,-2,-3,-3,0,34
1499877297313611,-5,0,22,-2,-2,-2,6,4
1499877297327618,-4,0,-6,1,0,0,-16,-16
1499877297327618,-4,-5,13,-5,-3,-1,4,41
1499877297335642,-7,-1,-3,-5,-1,-2,-8,-31
1499877297335642,-1,0,7,5,0,2,2,1
1499877297350619,1,-2,1,2,0,-2,2,2
1499877297350619,-5,0,-5,-3,2,2,1,-3
1499877297351602,-9,-5,-10,-3,-6,-4,2,-37
1499877297351602,4,2,3,5,-1,-3,-15,-3
1499877297372615,0,2,-3,-6,-2,1,-1,-10
1499877297372615,-1,0,-29,-1,-4,-2,-5,-13
1499877297373574,4,-4,-7,2,1,3,8,19
1499877297373574,5,-4,2,1,-2,2,2,19
1499877297396586,-8,-4,-5,-3,-2,-3,-16,-1
1499877297396586,3,-1,2,2,-2,-6,-4,22
1499877297396586,-2,-2,1,-6,0,2,0,2
1499877297396586,0,-1,1,-4,-3,-2,0,2
1499877297410619,3,-1,3,1,-2,0,6,6
1499877297410619,1,0,-2,4,5,2,1,-12
1499877297411578,-3,0,-2,-2,-3,-3,-7,-2
1499877297411578,1,-2,1,-2,0,-4,5,-14
1499877297432580,-2,-3,1,-1,2,-1,6,-1
1499877297432580,1,5,5,-2,-2,0,1,-18
1499877297433580,0,-1,-7,-3,-1,-3,-2,15
1499877297433580,-3,1,-3,1,1,3,-3,-4
1499877297456614,0,0,6,-6,-3,-1,-2,0
1499877297456614,3,-3,3,1,-2,-1,1,11
1499877297456614,7,2,0,4,2,3,1,11
1499877297456614,-6,-5,-16,-7,-3,-1,-7,-7
1499877297470631,2,2,4,2,-2,-1,1,-3
1499877297470631,-3,-1,-1,0,-2,0,0,-25
1499877297471591,-5,-1,-1,3,-3,-1,2,-5
1499877297471591,0,2,-4,0,-2,-1,-2,-23
1499877297492621,0,-3,-6,9,5,1,2,-4
1499877297492621,-3,0,11,-1,-1,-4,-2,2
1499877297493581,-4,-2,-7,-7,-1,-1,0,2
1499877297493581,-3,-1,4,5,4,5,8,12
1499877297516616,-6,-3,-11,-8,0,-2,-14,6
1499877297516616,4,1,5,0,2,-1,7,13
1499877297516616,-2,-1,20,-1,0,-3,9,-5
1499877297516616,-3,-1,13,-2,-1,-3,-7,-7
1499877297530626,0,-3,-3,-4,-1,1,1,2
1499877297530626,0,-3,-12,-4,-4,-3,-7,-7
1499877297531585,-4,0,-5,1,-1,-1,-4,2
1499877297531585,3,0,-9,0,-4,-2,1,13
1499877297552625,-5,-3,-14,-1,0,0,4,-6
1499877297552625,-5,-1,-7,1,0,-3,-7,5
1499877297553591,-1,0,-6,-4,0,-2,-1,-1
1499877297553591,-1,-3,-6,-10,-3,-4,-7,-14
1499877297576618,-1,0,8,4,-1,0,-1,3
1499877297576618,1,-1,1,-2,-2,2,3,-1
1499877297576618,-2,-3,-1,0,-3,-1,0,-9
1499877297576618,2,2,0,2,2,-2,-1,16
1499877297590661,2,2,-2,-5,-4,0,3,-3
1499877297590661,-2,-1,3,1,0,-1,-5,-9
1499877297591588,1,-3,-5,-3,-1,-2,-4,-3
1499877297591588,-6,-3,1,-1,-1,1,1,-7
1499877297612628,5,-4,-3,-1,-3,-4,0,6
1499877297612628,-5,0,0,2,1,2,2,-4
1499877297613588,0,-1,-10,-5,-1,-1,-1,8
1499877297613588,0,-4,4,-1,-2,-3,0,15
1499877297636623,1,2,3,-1,-1,2,1,4
1499877297636623,3,0,5,1,-1,-2,0,7
1499877297636623,-1,-2,-8,4,0,-1,-5,-5
1499877297636623,-3,-3,-1,-4,1,-1,-1,5
1499877297650595,-3,1,-1,-1,-2,-2,-3,-1
1499877297650595,-2,-1,0,0,0,-3,-5,-8
1499877297651591,0,1,-2,4,1,2,2,5
1499877297651591,3,3,2,1,-2,-1,-1,-4
1499877297672625,-4,-4,-4,-2,-3,-8,-3,-10
1499877297672625,1,-3,-14,-3,-2,1,6,8
1499877297673594,-1,-2,5,-2,0,-3,-8,-7
1499877297673594,-4,3,1,-1,-2,1,-2,-16
1499877297703655,6,1,6,0,0,1,-2,8
1499877297703655,-1,-2,-2,-2,-2,2,-11,-5
1499877297704594,-2,3,4,1,-1,-1,2,0
1499877297704594,-1,-4,-5,-2,-4,0,0,-26
1499877297710637,2,0,4,-3,-3,-3,2,28
1499877297710637,2,-1,-2,1,-2,-3,-9,-17
1499877297711606,-9,-1,-2,0,1,-1,-6,-2
1499877297711606,2,2,-3,4,3,2,5,-3
1499877297732634,-2,-3,6,0,0,0,-1,-8
1499877297732634,-1,-3,-7,-3,-2,-1,-1,-12
1499877297733595,2,0,0,0,-1,-2,-1,18
1499877297733595,-7,-3,5,2,-2,-6,-1,-4
1499877297756620,-3,-2,-4,-3,2,4,2,-11
1499877297756620,-3,-4,-5,-5,-2,-3,1,19
1499877297756620,-3,0,1,-6,-2,2,0,-8
1499877297756620,2,-2,-2,1,0,-1,0,11
1499877297770631,3,3,-1,0,0,2,3,6
1499877297770631,-2,-1,-2,-5,-2,-1,0,-25
1499877297771611,0,-2,0,4,0,-4,-3,3
1499877297771611,2,-1,-2,-2,-1,-2,0,18
1499877297792639,-4,-2,-1,3,3,0,1,-17
1499877297792639,9,4,-2,0,1,-1,7,41
1499877297793598,-6,-7,-4,-3,0,-3,-12,-31
1499877297793598,1,1,2,0,-1,-1,-1,7
1499877297816614,0,-1,-1,-2,-2,-2,-5,-7
1499877297816614,-1,-1,6,0,-2,-2,14,4
1499877297816614,6,-5,-2,-1,-2,-1,-1,19
1499877297816614,-12,-3,-7,-1,-3,-2,-9,-41
1499877297830643,-1,2,-1,5,3,2,7,4
1499877297830643,-5,-2,-1,-6,-2,-3,-3,17
1499877297831603,-1,0,2,-3,-4,-2,2,-9
1499877297831603,0,0,-5,-1,1,1,3,-6
1499877297852643,1,0,2,-2,-3,0,-2,-8
1499877297852643,-9,-7,-2,-4,0,-1,-1,-18
1499877297853604,4,2,-1,1,0,0,4,22
1499877297853604,0,0,-3,-3,-1,-2,-12,-3
