timestamp,x,y,z
1499877244992492,36.25,10.3125,-11.25
1499877245015498,-27.625,5.125,-17.5625
1499877245031493,-71.125,-3.8125,-0.375
1499877245054494,-21.8125,0.25,4.6875
1499877245075515,8.375,3.625,0.1875
1499877245090534,-26,0.8125,-7.5
1499877245114498,-31.5625,-1.3125,-7.5625
1499877245135544,-2.125,0.5,-7.8125
1499877245183540,4.75,0.4375,-5.625
1499877245185539,-4.3125,-0.8125,-0.25
1499877245197546,1.5625,0.0625,1.9375
1499877245211549,0,2,-3.625
1499877245233568,-3.8125,5.25,-9.125
1499877245260544,-2.75,6.0625,-9.5625
1499877245309537,-1.3125,3.5625,-5.3125
1499877245310520,2.8125,3.25,-2.0625
1499877245317533,2.9375,3.875,-3.125
1499877245330530,3.75,4.6875,-4.625
1499877245353531,0.0625,3.8125,-3.4375
1499877245375536,-2.4375,3.125,-1.0625
1499877245390560,1.1875,3.9375,-2
1499877245412558,1.8125,3.125,-2.5625
1499877245435552,1.625,2.5,-1
1499877245450563,-0.4375,1.6875,1.5625
1499877245472560,-2.4375,2.125,0.875
1499877245495555,-2.8125,2.375,0.375
1499877245510572,-1.375,1.625,1.25
1499877245532570,0.1875,1.3125,1.9375
1499877245555559,0.0625,1.625,2.0625
1499877245570568,-0.0625,1.625,0.625
1499877245592544,-0.3125,1.75,-0.375
1499877245615574,1.125,0.875,-0.6875
1499877245630569,-0.0625,-0.125,0.4375
1499877245652568,0.75,0.5625,-1.0625
1499877245675603,-1.0625,0.375,-1.75
1499877245690599,-2.125,-0.125,-1.875
1499877245712574,-0.8125,0.0625,-1.6875
1499877245735599,-0.4375,0.75,-1.1875
1499877245750579,-1.4375,0.9375,-1.25
1499877245772585,-0.5625,0.1875,-0.9375
1499877245795584,3.25,0.1875,-0.1875
1499877245810581,3.9375,0.125,-0.375
1499877245832580,2.375,0.125,-2.25
1499877245855608,1.625,0.75,-2.6875
1499877245870546,0.625,0.875,-1.9375
1499877245892579,-1.9375,0.4375,-0.6875
1499877245915593,0.125,0.75,-0.75
1499877245931573,3.3125,0.625,-0.3125
1499877245952554,2.9375,0.125,-0.4375
1499877245975590,0.625,-0.125,-0.1875
1499877245991552,-1.8125,0.625,-0.125
1499877246012593,-1.1875,1,0.5
1499877246035627,-0.5625,0.6875,1
1499877246051577,-0.3125,0.4375,1.5
1499877246072596,1.8125,0.0625,0.5
1499877246095625,2.0625,-0.0625,-0.375
1499877246111584,-0.375,-0.125,0
1499877246132598,-0.0625,0.3125,0.625
1499877246155604,-0.1875,0.125,0.0625
1499877246171583,0.125,0.125,-0.0625
1499877246192607,-0.0625,-0.3125,-0.5625
1499877246215611,-0.6875,0.1875,-0.25
1499877246237623,-0.125,1,0.25
1499877246252576,-2.75,0.3125,0.0625
1499877246275601,-2.3125,0.4375,-0.625
1499877246297635,0.5625,0.5,-0.3125
1499877246315570,2.375,1.0625,-0.125
1499877246335631,0.5625,0.875,0.3125
1499877246357646,-0.0625,0.25,0
1499877246375584,2.5625,0.4375,-0.5
1499877246395621,5.0625,0.625,-1.25
1499877246417637,3.5,0.3125,-1.3125
1499877246436594,1.0625,0.375,-0.75
1499877246455586,-0.1875,0,-0.6875
1499877246477649,-0.4375,0.1875,0.0625
1499877246495581,0.625,0.75,0
1499877246516581,1.375,0.5625,-0.1875
1499877246537621,1,0.3125,-0.5625
1499877246555586,1,0.75,-1.6875
1499877246578586,0.375,0.9375,-2.0625
1499877246597648,0.5625,0.5625,-1.375
1499877246615595,0.3125,0.5,-0.9375
1499877246636621,-3.8125,1.125,-4.75
1499877246657623,-6.0625,1.1875,-8.4375
1499877246675593,-2.875,0.75,-7.875
1499877246696624,1.8125,-0.0625,-5.125
1499877246717638,-0.125,-1.25,-1.4375
1499877246735595,-0.8125,-1.625,0
1499877246756596,1.6875,-1.0625,-1.25
1499877246777664,1.625,-0.6875,-2.1875
1499877246795599,-0.1875,-0.3125,-2.625
1499877246818633,-0.9375,-0.0625,-1.875
1499877246837602,-0.625,-0.25,-1.375
1499877246855602,1,0.1875,-0.1875
1499877246878612,0.0625,0.9375,0.0625
1499877246897673,-3.8125,0.5,0.4375
1499877246915606,-1.8125,0.9375,0.625
1499877246938642,1.875,1.125,0.75
1499877246957650,1.125,1.0625,1.125
1499877246975617,-0.25,0.5625,1.6875
1499877246998647,-0.0625,0.375,1.3125
1499877247018654,1.125,0.5,0.125
1499877247035623,1.5625,-0.1875,-0.625
1499877247058634,1.5,-0.125,-0.9375
1499877247077683,0.5,-0.5,-0.6875
1499877247095616,-1.25,-0.25,-0.625
1499877247118640,-1.5625,-0.4375,-0.75
1499877247139628,0.4375,-0.875,-0.75
1499877247155621,1.875,-0.8125,-1.25
1499877247178664,0.4375,-0.4375,-1.125
1499877247197670,-0.5625,-0.125,-1.0625
1499877247215650,-2.25,-0.0625,-0.4375
1499877247238633,-0.3125,0.0625,-0.625
1499877247257692,0.9375,-0.0625,-0.875
1499877247275636,0.3125,-0.5625,-0.375
1499877247298638,0.4375,-0.375,-0.375
1499877247317672,0,-0.25,-0.125
1499877247335628,-1.1875,-1.125,0.6875
1499877247365633,0.125,-1.375,0.5
1499877247378667,2.375,-0.8125,0.6875
1499877247394644,0.9375,-0.3125,-0.0625
1499877247417633,-1.75,-1,0.5
1499877247438648,-2.25,-1,0.75
1499877247454645,-0.375,-0.8125,0.375
1499877247477636,-0.6875,-0.6875,0.5625
1499877247498679,-0.5,-0.5,0.625
1499877247514644,-0.25,-0.4375,0.6875
1499877247537642,-0.6875,-0.625,0.6875
1499877247558649,-1.1875,-0.625,0
1499877247574643,0.5,-0.25,-0.0625
1499877247597643,2.25,-0.5,-0.125
1499877247618645,0.625,-0.6875,0.625
1499877247634648,0.75,-0.5625,0.3125
1499877247657649,-0.25,-0.3125,-0.1875
1499877247678694,1.625,0.1875,-0.875
1499877247694666,2.125,-0.3125,-0.5625
1499877247717650,1.625,-0.8125,0.0625
1499877247738696,1.3125,-0.1875,0.0625
1499877247754664,0.1875,0.125,-0.4375
1499877247777654,-0.5,0.25,-1
1499877247799665,0.3125,0.4375,-0.375
1499877247814656,2.6875,0.8125,0.125
1499877247837657,1.8125,1,0.25
1499877247867659,1,0.25,0.625
1499877247874672,2,0.0625,0.6875
1499877247897705,3,0.0625,0.5625
1499877247919682,2,0.1875,-0.5625
1499877247934664,0.5,-0.125,-1
1499877247957664,0.875,-0.5625,-1.6875
1499877247979700,0.0625,-0.9375,-1.0625
1499877247994667,-2.4375,-1.875,-0.5625
1499877248017680,-1.625,-1.1875,-0.25
1499877248039669,1.1875,-1.0625,-1.5
1499877248054670,1.125,-1.375,-1.5
1499877248077671,-0.25,-1.6875,-0.8125
1499877248099706,-1.125,-1.8125,-0.375
1499877248114685,0.4375,-1,-0.8125
1499877248144688,0.3125,-0.625,-0.375
1499877248159704,-0.5625,-0.5625,-0.125
1499877248174689,-0.1875,-0.4375,0.125
1499877248197702,0.3125,-0.125,0.375
1499877248219704,-0.375,0.125,0.3125
1499877248234681,-0.25,0.0625,0.6875
1499877248257685,1.5625,0.0625,0.5625
1499877248279705,0.4375,0.125,0.5625
1499877248300723,1.25,0.375,0.375
1499877248317686,0.1875,0.25,0.25
1499877248339689,-0.125,0.1875,0.1875
1499877248360703,0.125,-0.125,0.25
1499877248377689,1.3125,0.4375,-0.125
1499877248399708,0.125,0.0625,-0.5625
1499877248420690,-0.625,-0.1875,-0.3125
1499877248444727,0,0.125,-0.4375
1499877248459709,0.1875,0.25,-0.625
1499877248480728,-0.125,0.0625,-1.625
1499877248497698,-0.1875,0,-1.4375
1499877248519730,-0.25,-0.0625,-0.875
1499877248540764,0.375,0,-0.5625
1499877248557710,0.75,-0.625,-0.25
1499877248579727,2.625,-0.75,-0.375
1499877248600741,4.25,-1.125,-0.375
1499877248617702,4.0625,-1.4375,0.3125
1499877248639737,3.875,-1.4375,0.25
1499877248660754,1.75,-1.25,0.3125
1499877248677706,0.625,-0.8125,-0.1875
1499877248699728,-0.5625,-0.625,-0.4375
1499877248722710,-0.8125,-0.5625,0.125
1499877248737711,0.0625,-0.75,0.125
1499877248759754,0.25,-0.5625,-0.125
1499877248782713,-0.8125,0.0625,0.125
1499877248797714,-1.4375,0.125,1
1499877248819750,-0.375,0.5625,0.875
1499877248842717,-0.375,0.5,0.5
1499877248856725,-0.125,0.4375,0.6875
1499877248879726,-1.875,-0.0625,0.625
1499877248902720,-0.75,-0.375,0.625
1499877248916720,2,-0.625,0.125
1499877248939721,2.8125,-0.4375,-0.4375
1499877248962725,0.5,-0.3125,-0.6875
1499877248976723,-1.375,-0.5,-0.625
1499877248999732,0.875,-0.6875,-0.3125
1499877249022731,2.3125,-1.1875,0
1499877249036733,0.5625,-0.875,-0.125
1499877249059729,-1.5,-0.4375,-0.25
1499877249082741,-1.5,0,-0.4375
1499877249096731,1.3125,0.125,-0.1875
1499877249119742,1.0625,-0.5625,0.25
1499877249142733,-0.1875,-0.5625,-0.25
1499877249156734,-0.25,-0.25,-0.75
1499877249179735,0.875,0.1875,-0.4375
1499877249202739,0.125,0.1875,-0.3125
1499877249223776,-0.5,0.25,0.125
1499877249239750,-0.8125,-0.25,0.5
1499877249262776,0.375,-0.3125,0.5625
1499877249283801,1.0625,-0.5,0.3125
1499877249299778,0.25,0.1875,0.25
1499877249322746,-0.75,-0.1875,0.4375
1499877249343805,0.625,-0.5,1.0625
1499877249359752,2.6875,-1.25,1.6875
1499877249382748,1.875,-1.0625,0.4375
1499877249403798,0.75,-0.4375,-0.625
1499877249419787,-0.75,-0.375,-0.125
1499877249442786,-2.875,-1,0.375
1499877249463805,-2.25,-1,0.375
1499877249479789,0.4375,-0.6875,-0.375
1499877249502764,-0.25,-0.6875,-1.125
1499877249523828,-1.25,-1.125,-0.125
1499877249539795,-2.75,-1.625,0.375
1499877249562761,-1.5,-1.875,0.4375
1499877249583769,0.9375,-0.8125,-0.375
1499877249599796,0.875,-0.8125,-0.625
1499877249622761,-0.4375,-0.6875,0
1499877249643834,-1.3125,-0.6875,0.375
1499877249659791,-0.75,-0.4375,0.5625
1499877249682772,0.25,0.25,0.25
1499877249704803,1,0.375,0.5
1499877249719805,0.375,0.4375,0.3125
1499877249742770,-0.1875,0.625,0.8125
1499877249764772,-1,0.625,0.5625
1499877249779810,-0.625,1.0625,0.625
1499877249802779,-0.4375,0.875,-0.1875
1499877249824813,1.5625,0.5625,-0.875
1499877249839775,1.9375,0.25,-0.5625
1499877249862776,0,-0.1875,0
1499877249884783,0.875,0.3125,-0.5
1499877249899786,1.875,0.4375,-1.25
1499877249922779,0.1875,-0.5625,-1
1499877249944816,0.3125,-0.3125,-0.4375
1499877249958819,1.375,-0.5,-0.25
1499877249982789,0.0625,-2,-1
1499877250004796,-0.0625,-1.375,-1.875
1499877250019786,-0.8125,-1.0625,-1.6875
1499877250042787,0.6875,-1.0625,-1.1875
1499877250064805,0.9375,-1.1875,-1.3125
1499877250078804,0.4375,-1.1875,-0.625
1499877250102789,0.0625,-1.375,0.5
1499877250124822,1.9375,-1.1875,0.5
1499877250138809,3.1875,-1.1875,0.0625
1499877250162795,4.875,-1.375,0.9375
1499877250184833,5,-1.9375,1.375
1499877250205858,6.0625,-1.9375,1.6875
1499877250222796,6.8125,-1.6875,0.8125
1499877250250837,5.5,-1.5,0.8125
1499877250265843,2.75,-2.1875,1.0625
1499877250282800,1.625,-1.9375,1.6875
1499877250304799,1.125,-1.0625,1.5
1499877250325874,-0.6875,-1.6875,1.625
1499877250342811,-3.8125,-3.875,3.8125
1499877250364806,-0.9375,-4.8125,5
1499877250385870,-2.25,-7.625,9.4375
1499877250402807,6.25,-8.75,11.1875
1499877250424812,9.0625,-8.4375,14.9375
1499877250445855,2,-12.375,18
1499877250462811,-2.0625,-14.9375,20.125
1499877250484846,-0.4375,-14.75,18.3125
