timestamp,x,y,z,w
1499877331437035,-0.528259,-0.379639,-0.285767,0.703674
1499877331452038,-0.528198,-0.379578,-0.2854,0.703918
1499877331476076,-0.527832,-0.379639,-0.285217,0.704224
1499877331497081,-0.527588,-0.379578,-0.285278,0.704407
1499877331512107,-0.527527,-0.379578,-0.285339,0.704468
1499877331536081,-0.526794,-0.379211,-0.285461,0.705139
1499877331557101,-0.524353,-0.378601,-0.286011,0.707092
1499877331613085,-0.519653,-0.378235,-0.288269,0.709839
1499877331615086,-0.51825,-0.375977,-0.293701,0.709778
1499877331616047,-0.520813,-0.371643,-0.300293,0.707458
1499877331629058,-0.525146,-0.365845,-0.306213,0.704712
1499877331647096,-0.529846,-0.362061,-0.309814,0.701599
1499877331671089,-0.534973,-0.360474,-0.314758,0.69635
1499877331714111,-0.539856,-0.358337,-0.319885,0.691284
1499877331725063,-0.539673,-0.357849,-0.322937,0.690247
1499877331731075,-0.538452,-0.357849,-0.322327,0.691467
1499877331746053,-0.53717,-0.357788,-0.320557,0.693359
1499877331768068,-0.535706,-0.358582,-0.32196,0.69342
1499877331799056,-0.537231,-0.357544,-0.325439,0.691101
1499877331813064,-0.539063,-0.356079,-0.326843,0.689758
1499877331837070,-0.53833,-0.355957,-0.325745,0.690979
1499877331859060,-0.536743,-0.356873,-0.324707,0.6922
1499877331873079,-0.536743,-0.356934,-0.324768,0.692139
1499877331898084,-0.536926,-0.356812,-0.325623,0.69165
1499877331919077,-0.536377,-0.356445,-0.325745,0.6922
1499877331933074,-0.535339,-0.356323,-0.325439,0.693237
1499877331957071,-0.535034,-0.355957,-0.325623,0.693542
1499877331979080,-0.535095,-0.355835,-0.327148,0.692871
1499877331993084,-0.535522,-0.355164,-0.328796,0.692078
1499877332017074,-0.535828,-0.354431,-0.329773,0.691772
1499877332039072,-0.536072,-0.353699,-0.330017,0.691833
1499877332053074,-0.536316,-0.35321,-0.330139,0.691833
1499877332077077,-0.53656,-0.352478,-0.330566,0.691833
1499877332099075,-0.536499,-0.352112,-0.331116,0.691772
1499877332113075,-0.53717,-0.35144,-0.331238,0.691528
1499877332136119,-0.538208,-0.350525,-0.330933,0.691406
1499877332159079,-0.538391,-0.350159,-0.330872,0.691467
1499877332180123,-0.538086,-0.350037,-0.33136,0.691528
1499877332197083,-0.537964,-0.349915,-0.332214,0.691223
1499877332219082,-0.538696,-0.349548,-0.333313,0.690308
1499877332240127,-0.539368,-0.349121,-0.333679,0.689819
1499877332257084,-0.539307,-0.349304,-0.33374,0.689819
1499877332279097,-0.539063,-0.349792,-0.334167,0.689514
1499877332300127,-0.53949,-0.349792,-0.334961,0.688782
1499877332316110,-0.53949,-0.34967,-0.335266,0.688721
1499877332339125,-0.538879,-0.350159,-0.335266,0.688965
1499877332360164,-0.539124,-0.350525,-0.335571,0.688416
1499877332376114,-0.540222,-0.350586,-0.336304,0.687134
1499877332399093,-0.541016,-0.350342,-0.336731,0.686401
1499877332420138,-0.54071,-0.350403,-0.33667,0.686646
1499877332436107,-0.540649,-0.350525,-0.336426,0.686829
1499877332459107,-0.541565,-0.350464,-0.336365,0.686157
1499877332480158,-0.542419,-0.350281,-0.336487,0.685486
1499877332497101,-0.542603,-0.350037,-0.336731,0.685364
1499877332519099,-0.542053,-0.350098,-0.336975,0.685669
1499877332540170,-0.541748,-0.350098,-0.33728,0.685669
1499877332557104,-0.542114,-0.35022,-0.338074,0.684937
1499877332579106,-0.542908,-0.350281,-0.339233,0.683777
1499877332600178,-0.543152,-0.350464,-0.34021,0.682983
1499877332616156,-0.542419,-0.350952,-0.340637,0.683105
1499877332639108,-0.541138,-0.351807,-0.340576,0.683716
1499877332660149,-0.5401,-0.353027,-0.341064,0.683655
1499877332676145,-0.539917,-0.353882,-0.342041,0.682861
1499877332698110,-0.539795,-0.354858,-0.342834,0.682068
1499877332721121,-0.539185,-0.355774,-0.343018,0.681946
1499877332744130,-0.538452,-0.356689,-0.342834,0.682129
1499877332766135,-0.537598,-0.357605,-0.342957,0.682312
1499877332767117,-0.536926,-0.358337,-0.343994,0.681885
1499877332787159,-0.536926,-0.358459,-0.344788,0.681458
1499877332809178,-0.536865,-0.358521,-0.344604,0.68158
1499877332827120,-0.536133,-0.358765,-0.344116,0.682251
1499877332847158,-0.5354,-0.35907,-0.344116,0.682678
1499877332869161,-0.535156,-0.359131,-0.344482,0.682617
1499877332887122,-0.535583,-0.358948,-0.344727,0.682251
1499877332907161,-0.536377,-0.358582,-0.344421,0.682007
1499877332929167,-0.537109,-0.358154,-0.343628,0.682068
1499877332952125,-0.537292,-0.358093,-0.342896,0.682312
1499877332967128,-0.537354,-0.358032,-0.342834,0.682312
1499877332990146,-0.537659,-0.357971,-0.342773,0.682129
1499877333012172,-0.538086,-0.357727,-0.342285,0.68219
1499877333027171,-0.538208,-0.35791,-0.341492,0.682373
1499877333049172,-0.538208,-0.358154,-0.340881,0.682617
1499877333072173,-0.538391,-0.358337,-0.340759,0.682434
1499877333087172,-0.538269,-0.358582,-0.34082,0.682312
1499877333109201,-0.538025,-0.358887,-0.34082,0.682312
1499877333132179,-0.537659,-0.359253,-0.340576,0.682556
1499877333147175,-0.537354,-0.359741,-0.340515,0.682617
1499877333169181,-0.537415,-0.359863,-0.340698,0.682373
1499877333192140,-0.537537,-0.359802,-0.340881,0.682251
1499877333207184,-0.537231,-0.359924,-0.341064,0.682312
1499877333229179,-0.536743,-0.360168,-0.34137,0.682434
1499877333252181,-0.536377,-0.360352,-0.341553,0.682495
1499877333267143,-0.536133,-0.360596,-0.34198,0.682373
1499877333289215,-0.536255,-0.360535,-0.342468,0.682068
1499877333312219,-0.536072,-0.360596,-0.342712,0.682007
1499877333327212,-0.535767,-0.360718,-0.343018,0.682068
1499877333349189,-0.535522,-0.36084,-0.343262,0.682068
1499877333372193,-0.535278,-0.360962,-0.343445,0.682129
1499877333387193,-0.535461,-0.360901,-0.343689,0.681885
1499877333409152,-0.535767,-0.360596,-0.34375,0.681702
1499877333432196,-0.535828,-0.360596,-0.34375,0.681763
1499877333447197,-0.535522,-0.360718,-0.343506,0.681946
1499877333469197,-0.535217,-0.36084,-0.343384,0.682251
1499877333492198,-0.535217,-0.360779,-0.343384,0.682251
1499877333507196,-0.5354,-0.360413,-0.343201,0.682434
1499877333529195,-0.535461,-0.360168,-0.342896,0.682678
1499877333552160,-0.535339,-0.359985,-0.342712,0.682922
1499877333567161,-0.535095,-0.359802,-0.342468,0.68335
1499877333589188,-0.534912,-0.359802,-0.342468,0.683533
1499877333612234,-0.534912,-0.359802,-0.342468,0.683533
1499877333627205,-0.534973,-0.359619,-0.342285,0.683655
1499877333649204,-0.534546,-0.359741,-0.342041,0.684021
1499877333672216,-0.533997,-0.360168,-0.341919,0.684265
1499877333687211,-0.533325,-0.36084,-0.342102,0.684326
1499877333709192,-0.532593,-0.361694,-0.34259,0.684204
1499877333732212,-0.531921,-0.36261,-0.343323,0.683899
1499877333750171,-0.531311,-0.363708,-0.343811,0.683533
1499877333769212,-0.530151,-0.365112,-0.344421,0.683411
1499877333792224,-0.528076,-0.366943,-0.345337,0.683594
1499877333808174,-0.526245,-0.368591,-0.345886,0.683838
1499877333829215,-0.525024,-0.370117,-0.346252,0.683777
1499877333852218,-0.52478,-0.370972,-0.346863,0.683105
1499877333868217,-0.524963,-0.371277,-0.347534,0.682495
1499877333889218,-0.525024,-0.371521,-0.3479,0.682129
1499877333912245,-0.524902,-0.371704,-0.348145,0.682007
1499877333928215,-0.525024,-0.371765,-0.348328,0.681824
1499877333949211,-0.525024,-0.371704,-0.348694,0.681641
1499877333972214,-0.525269,-0.371399,-0.34906,0.681458
1499877333988185,-0.525269,-0.371033,-0.349121,0.68158
1499877334009186,-0.525391,-0.370667,-0.348999,0.681763
1499877334032232,-0.525208,-0.370544,-0.34906,0.681946
1499877334056225,-0.525146,-0.370178,-0.349182,0.682129
1499877334069240,-0.525024,-0.370056,-0.34906,0.682373
1499877334092240,-0.525024,-0.370056,-0.34906,0.682312
1499877334110213,-0.525757,-0.369812,-0.348999,0.681946
1499877334129235,-0.526245,-0.369446,-0.348816,0.681885
1499877334152233,-0.526184,-0.369324,-0.348328,0.682251
1499877334176198,-0.526123,-0.369385,-0.348022,0.682373
1499877334189236,-0.526611,-0.36908,-0.348145,0.682129
1499877334212245,-0.527527,-0.368591,-0.347961,0.681763
1499877334230233,-0.527771,-0.368347,-0.347656,0.681885
1499877334249245,-0.527832,-0.368225,-0.347229,0.682068
1499877334272241,-0.527771,-0.368225,-0.347046,0.682251
1499877334290236,-0.528015,-0.368225,-0.34668,0.682251
1499877334309205,-0.528198,-0.368347,-0.346619,0.682068
1499877334332248,-0.528198,-0.368408,-0.346619,0.682068
1499877334350216,-0.528259,-0.368469,-0.346375,0.682068
1499877334369229,-0.528259,-0.368469,-0.346375,0.682068
1499877334392212,-0.528259,-0.368469,-0.346375,0.682129
1499877334410233,-0.52832,-0.368652,-0.346313,0.681946
1499877334429243,-0.528625,-0.368713,-0.346252,0.681702
1499877334452275,-0.528687,-0.368896,-0.346375,0.681519
1499877334470246,-0.528687,-0.368835,-0.346375,0.68158
1499877334489219,-0.528503,-0.368958,-0.346069,0.681763
1499877334512270,-0.528503,-0.368896,-0.346069,0.681824
1499877334530216,-0.528442,-0.368896,-0.34613,0.681824
1499877334549216,-0.528625,-0.369019,-0.346252,0.68158
1499877334572262,-0.528809,-0.368774,-0.346191,0.68158
1499877334590221,-0.528564,-0.368835,-0.346069,0.681763
1499877334609232,-0.528076,-0.369202,-0.346313,0.681824
1499877334632235,-0.527832,-0.369568,-0.346924,0.681519
1499877334650235,-0.52832,-0.369629,-0.34729,0.680908
1499877334669233,-0.529358,-0.369385,-0.347595,0.680115
1499877334692269,-0.53009,-0.368958,-0.347412,0.679871
1499877334717227,-0.529663,-0.369019,-0.347107,0.680359
1499877334729266,-0.529358,-0.369324,-0.347107,0.68042
1499877334752270,-0.529846,-0.369019,-0.347168,0.680115
1499877334770248,-0.530396,-0.368591,-0.346924,0.680054
1499877334791237,-0.530518,-0.368469,-0.346375,0.680298
1499877334812276,-0.530701,-0.368347,-0.346069,0.68042
1499877334830233,-0.530945,-0.368164,-0.345825,0.680481
1499877334851236,-0.530762,-0.368103,-0.345703,0.680664
1499877334872242,-0.53064,-0.368164,-0.345459,0.680847
1499877334890238,-0.530823,-0.368042,-0.345276,0.680908
1499877334911244,-0.531128,-0.36792,-0.344971,0.680847
1499877334932249,-0.531128,-0.36792,-0.344971,0.680847
1499877334950275,-0.530945,-0.367981,-0.344849,0.68103
1499877334971249,-0.530701,-0.368164,-0.344604,0.681213
1499877334992276,-0.530701,-0.368164,-0.344666,0.681213
1499877335010243,-0.530701,-0.368225,-0.344666,0.681213
1499877335031253,-0.530579,-0.368408,-0.34491,0.68103
1499877335052249,-0.53064,-0.368591,-0.345215,0.680786
1499877335070282,-0.531006,-0.368652,-0.345398,0.680359
1499877335092258,-0.531128,-0.368713,-0.345642,0.680115
1499877335112260,-0.531006,-0.368713,-0.345886,0.680054
1499877335130261,-0.530884,-0.368896,-0.346008,0.679993
1499877335152288,-0.530823,-0.368896,-0.346008,0.679993
1499877335173252,-0.530823,-0.368896,-0.346069,0.679993
1499877335190253,-0.530823,-0.368835,-0.346252,0.679932
1499877335212260,-0.53064,-0.368835,-0.346436,0.679993
1499877335232279,-0.53064,-0.368774,-0.346375,0.680054
1499877335250268,-0.53064,-0.368774,-0.346375,0.680054
1499877335272260,-0.530884,-0.368774,-0.346497,0.67981
1499877335292270,-0.530945,-0.368774,-0.346497,0.67981
1499877335310269,-0.530701,-0.368713,-0.346313,0.680054
1499877335332293,-0.53064,-0.368469,-0.34613,0.680359
1499877335352302,-0.530945,-0.368164,-0.345825,0.68042
1499877335370273,-0.53125,-0.368103,-0.345764,0.680237
1499877335392274,-0.53125,-0.368103,-0.345764,0.680237
1499877335412278,-0.531189,-0.368042,-0.34552,0.680481
1499877335430277,-0.531006,-0.368042,-0.345276,0.680725
1499877335452279,-0.531006,-0.368042,-0.345337,0.680725
1499877335472310,-0.531006,-0.368103,-0.345337,0.680725
1499877335490271,-0.530823,-0.368408,-0.345398,0.680603
1499877335512273,-0.530823,-0.368652,-0.345337,0.680542
1499877335532314,-0.530945,-0.368896,-0.345276,0.680298
1499877335550285,-0.530884,-0.369141,-0.345215,0.680237
1499877335572278,-0.530273,-0.369812,-0.345276,0.680359
1499877335592288,-0.530334,-0.3703,-0.345398,0.679993
1499877335610286,-0.53064,-0.370605,-0.34552,0.679504
1499877335632280,-0.530884,-0.370728,-0.345764,0.679077
1499877335652291,-0.530945,-0.370789,-0.345886,0.678955
1499877335670291,-0.530945,-0.370789,-0.345886,0.678955
1499877335692285,-0.530884,-0.370972,-0.345825,0.678955
1499877335713287,-0.531067,-0.371094,-0.345886,0.678711
1499877335730286,-0.531311,-0.371094,-0.345764,0.678589
1499877335757321,-0.531311,-0.371033,-0.345764,0.67865
1499877335773287,-0.53125,-0.370972,-0.345764,0.67865
1499877335790300,-0.53125,-0.370972,-0.345825,0.678711
1499877335812290,-0.531677,-0.370667,-0.345703,0.678589
1499877335841292,-0.531677,-0.370667,-0.345642,0.678589
1499877335854361,-0.531677,-0.370667,-0.345642,0.678589
1499877335872295,-0.53186,-0.370422,-0.345703,0.678528
1499877335893294,-0.531921,-0.370178,-0.345581,0.678711
1499877335914366,-0.531799,-0.370178,-0.345337,0.678894
1499877335932298,-0.531982,-0.370056,-0.345154,0.678955
1499877335953298,-0.531982,-0.369995,-0.345093,0.679016
1499877335974364,-0.531738,-0.369934,-0.345032,0.67926
1499877335992301,-0.531006,-0.369995,-0.345032,0.67981
1499877336015312,-0.530579,-0.370056,-0.345154,0.680054
1499877336034343,-0.530701,-0.369995,-0.345276,0.679871
1499877336052304,-0.530762,-0.369934,-0.345459,0.67981
1499877336075317,-0.53009,-0.370239,-0.345581,0.680115
1499877336094347,-0.52948,-0.370422,-0.345703,0.68042
1499877336112308,-0.529175,-0.370605,-0.345947,0.68042
1499877336135327,-0.52887,-0.37085,-0.346313,0.680359
1499877336154356,-0.528809,-0.370911,-0.346558,0.680237
1499877336172346,-0.528748,-0.370972,-0.346558,0.680237
1499877336195314,-0.528503,-0.371216,-0.346436,0.680359
1499877336214363,-0.528198,-0.371399,-0.346558,0.68042
1499877336232316,-0.52832,-0.371277,-0.346802,0.680298
1499877336255327,-0.528809,-0.370911,-0.346863,0.680115
1499877336274356,-0.528809,-0.37085,-0.346802,0.680115
1499877336292319,-0.528748,-0.370728,-0.346436,0.68042
1499877336315320,-0.528442,-0.370667,-0.346191,0.680847
1499877336334361,-0.528198,-0.370605,-0.345886,0.681213
1499877336353321,-0.528137,-0.370544,-0.345642,0.681396
1499877336375339,-0.528381,-0.370605,-0.345398,0.681335
1499877336394382,-0.528381,-0.370605,-0.345398,0.681335
1499877336411362,-0.528259,-0.370789,-0.345703,0.681152
1499877336434327,-0.528259,-0.370728,-0.345703,0.681213
1499877336455333,-0.52771,-0.370911,-0.345459,0.681641
1499877336477403,-0.52771,-0.370972,-0.34552,0.68158
1499877336494340,-0.528076,-0.370911,-0.345642,0.681274
1499877336515397,-0.528076,-0.370911,-0.345642,0.681274
1499877336531370,-0.527832,-0.37085,-0.34552,0.68158
1499877336554367,-0.527344,-0.37085,-0.345398,0.681946
1499877336575403,-0.527283,-0.370911,-0.345459,0.681946
1499877336591352,-0.527832,-0.370789,-0.345642,0.681519
1499877336614344,-0.528076,-0.370605,-0.345764,0.681396
1499877336635397,-0.528076,-0.370544,-0.345703,0.681396
1499877336651363,-0.527649,-0.370544,-0.345398,0.681885
1499877336674376,-0.527466,-0.370605,-0.345215,0.682129
1499877336695399,-0.528015,-0.370422,-0.345215,0.681824
1499877336719343,-0.52832,-0.370178,-0.345032,0.681824
1499877336734345,-0.52832,-0.370056,-0.344727,0.682007
1499877336756345,-0.528137,-0.370056,-0.344116,0.682495
1499877336771374,-0.527771,-0.370178,-0.343445,0.682983
1499877336794366,-0.527649,-0.370361,-0.343201,0.683167
1499877336815390,-0.527954,-0.370361,-0.343323,0.6828
1499877336831370,-0.528381,-0.370239,-0.343201,0.682617
1499877336854352,-0.52832,-0.370239,-0.342834,0.682861
1499877336875420,-0.527893,-0.370361,-0.342529,0.683289
1499877336891390,-0.527771,-0.370361,-0.342285,0.683533
1499877336914385,-0.527954,-0.370178,-0.341675,0.683777
1499877336935431,-0.528076,-0.370239,-0.341187,0.683899
1499877336951365,-0.528076,-0.370239,-0.341187,0.683899
1499877336974358,-0.528015,-0.370239,-0.341248,0.683899
1499877336996369,-0.527893,-0.3703,-0.341003,0.684082
1499877337011387,-0.527649,-0.370483,-0.340698,0.684326
1499877337034372,-0.527466,-0.370605,-0.340454,0.684509
1499877337056361,-0.527466,-0.370605,-0.340454,0.684509
1499877337071371,-0.527466,-0.370605,-0.340454,0.684509
1499877337094365,-0.527466,-0.370667,-0.340454,0.684509
1499877337116367,-0.527527,-0.370728,-0.340027,0.684631
1499877337130378,-0.527283,-0.370911,-0.339478,0.684998
