timestamp,emg1,emg2,emg3,emg4,emg5,emg6,emg7,emg8
1499877670116947,2,-13,-31,8,13,10,5,3
1499877670116947,2,20,74,-42,13,9,7,4
1499877670117969,10,14,100,-98,3,6,4,6
1499877670117969,-14,-28,-69,-101,-51,-20,-15,-10
1499877670119966,4,16,19,41,2,-4,0,2
1499877670119966,2,1,24,27,20,4,0,2
1499877670120974,5,21,3,10,-6,6,3,1
1499877670120974,8,-8,-5,88,21,13,12,6
1499877670126952,-4,3,-11,-89,-27,-8,-8,-5
1499877670126952,0,-10,-82,-51,-14,-9,-6,0
1499877670133992,5,19,29,127,31,21,9,4
1499877670133992,-7,2,-40,13,-39,-22,-12,-6
1499877670141954,2,-2,21,-18,15,10,5,2
1499877670141954,-2,-3,-45,-1,-22,-9,-4,-5
1499877670157988,-5,-3,33,59,10,-6,-7,-3
1499877670157988,9,19,-3,-70,19,12,7,6
1499877670163961,4,13,25,63,26,11,6,4
1499877670163961,-11,-25,-47,69,-14,-10,-6,-8
1499877670188990,-8,-8,-16,-78,-33,-20,-11,-8
1499877670188990,-2,-1,67,-36,12,3,3,0
1499877670227964,-7,-29,-47,7,-8,-1,-1,-3
1499877670227964,2,18,32,-47,6,-2,-1,1
1499877670227964,-8,-35,-80,-92,-52,-7,-3,-3
1499877670227964,1,9,32,-7,0,1,1,0
1499877670231019,-1,7,-22,-1,30,5,2,1
1499877670231019,4,8,-38,13,-7,3,1,2
1499877670231953,5,15,13,-49,8,5,4,3
1499877670231953,2,15,2,91,63,21,5,3
1499877670239960,-18,-8,61,108,-44,-36,-18,-16
1499877670239960,7,21,50,-36,27,8,4,3
1499877670246023,-10,-10,73,58,-19,-14,-10,-8
1499877670246023,9,-7,-28,-7,-10,12,12,10
1499877670254955,-20,-46,18,-70,-53,-33,-24,-18
1499877670254955,-10,-25,3,48,-14,-7,-2,-8
1499877670268021,8,21,68,43,21,12,8,4
1499877670268021,3,2,-39,-128,3,-1,-2,0
1499877670276968,7,10,-10,54,5,2,-2,4
1499877670276968,1,9,-13,-27,-18,-5,-1,-1
1499877670307000,-9,-12,1,41,1,-3,-4,-5
1499877670307000,-10,-6,-91,-7,-36,-6,-6,-6
1499877670308960,-3,-6,-9,-42,24,-4,-6,-5
1499877670308960,4,21,50,105,21,6,2,2
1499877670313977,-3,-18,6,-50,8,-2,0,-2
1499877670313977,-2,1,24,29,-12,-2,-1,-1
1499877670320978,-1,-9,-87,87,-32,5,4,3
1499877670320978,-12,-16,63,56,9,-16,-11,-8
1499877670336982,8,18,-84,80,31,6,1,4
1499877670336982,4,19,66,-90,4,9,10,2
1499877670338960,-10,-15,-76,-83,-44,-7,-6,-6
1499877670338960,-6,-8,9,16,3,-11,-4,-6
1499877670359964,6,14,42,126,8,7,3,4
1499877670359964,15,19,22,0,53,15,9,9
1499877670360960,1,29,127,100,10,-2,0,-2
1499877670360960,4,9,-89,-111,-5,7,4,3
1499877670372980,-9,-2,-16,-31,-33,-24,-12,-9
1499877670372980,2,7,-5,81,7,3,1,0
1499877670381974,8,8,9,43,30,18,11,9
1499877670381974,7,9,12,35,-8,-1,0,3
1499877670396994,0,-2,44,-16,10,8,5,1
1499877670396994,-3,8,59,72,-20,-14,-7,-6
1499877670398964,17,21,47,30,32,17,14,10
1499877670398964,-16,-37,-63,-73,-34,-20,-14,-11
1499877670419969,9,12,-39,40,5,11,7,6
1499877670419969,-4,-18,33,-12,-31,-17,-11,-5
1499877670420964,-1,6,-35,-123,1,3,1,0
1499877670420964,20,40,72,116,44,30,16,13
1499877670433984,-1,28,6,13,2,-6,-4,-5
1499877670433984,-27,-74,-64,-43,-36,-30,-19,-17
1499877670441023,13,25,47,52,16,10,5,7
1499877670441023,1,-6,10,15,21,16,9,4
1499877670457007,-1,4,-3,-22,-14,-5,-2,-1
1499877670457007,0,4,69,91,14,-1,0,-1
1499877670459005,9,12,-23,76,23,10,7,5
1499877670459005,-10,-22,1,-16,-36,-11,-6,-6
1499877670479971,12,10,78,-67,30,15,9,9
1499877670479971,-10,-31,-32,-36,-25,-14,-8,-6
1499877670480972,2,-4,18,5,13,9,9,2
1499877670480972,-2,-6,-2,40,-19,-11,-5,-4
1499877670492993,14,33,64,4,42,22,15,10
1499877670492993,-18,-32,-16,52,-30,-26,-19,-16
1499877670501976,-2,6,57,0,0,-6,-4,-3
1499877670501976,1,0,-1,28,8,3,0,-1
1499877670516989,-7,-22,-54,18,-15,-8,-6,-6
1499877670516989,9,49,12,45,30,14,8,7
1499877670518990,-12,-14,14,-26,-20,-11,-8,-8
1499877670518990,0,1,-9,-47,-5,-2,-1,2
1499877670539991,-3,-7,28,66,8,-1,-1,-2
1499877670539991,-1,6,-32,65,-8,0,2,0
1499877670541972,5,5,-27,-108,-3,5,4,5
1499877670541972,-4,-10,-14,20,-12,-6,-3,-1
1499877670552991,-7,-5,-20,-60,-14,-5,-3,-4
1499877670552991,0,-5,17,-95,4,3,1,1
1499877670561987,0,1,-18,-42,-2,3,1,1
1499877670561987,3,4,-2,103,1,2,1,2
1499877670576973,4,18,75,20,23,8,6,3
1499877670576973,-12,-56,-53,111,-26,-17,-11,-8
1499877670579012,1,0,17,-84,-12,-9,-3,-4
1499877670579012,-7,-22,-18,-9,-2,-2,-4,-4
1499877670600012,-1,-7,-35,58,3,-2,-5,-4
1499877670600012,15,37,17,58,17,18,12,10
1499877670600979,-4,-16,-15,9,-10,-5,-3,-3
1499877670600979,-7,-6,9,-73,-1,-8,-4,-4
1499877670613020,-2,-15,0,-8,-11,-8,-6,-2
1499877670613020,8,35,68,84,21,11,7,6
1499877670622000,-16,-48,-51,10,-44,-28,-19,-14
1499877670622000,3,16,52,-23,11,6,4,1
1499877670637019,-8,-19,-35,-60,-20,-7,-7,-4
1499877670637019,2,7,25,-38,11,1,0,0
1499877670638979,2,17,0,-53,-1,4,2,3
1499877670638979,-2,-7,-19,-21,1,-3,-2,-2
1499877670660013,0,-7,-13,43,-6,0,-1,0
1499877670660013,-2,2,-42,-128,-6,-3,-4,-4
1499877670660982,-4,-19,-42,-3,-11,-7,-3,-5
1499877670660982,-2,2,-16,118,2,-1,0,-3
1499877670673013,-7,-4,38,-68,-17,-10,-4,-4
1499877670673013,3,7,-99,-28,8,6,1,2
1499877670682004,2,16,41,-52,14,5,4,3
1499877670682004,0,9,-24,-24,10,4,0,-1
1499877670697052,-2,-2,1,38,-2,-4,-3,-3
1499877670697052,-2,-8,3,-27,5,1,1,-1
1499877670698986,7,30,8,80,17,11,5,4
1499877670698986,-7,-13,-7,104,-18,-13,-9,-6
1499877670720019,-13,-34,-47,-102,-42,-18,-11,-11
1499877670720019,-6,-6,29,57,-12,-7,-5,-5
1499877670720984,6,13,12,107,23,10,8,5
1499877670720984,0,-1,18,11,-12,1,0,1
1499877670733022,1,-9,-1,39,8,-3,-3,-1
1499877670733022,1,-8,-5,18,-8,2,3,2
1499877670742000,0,1,29,91,9,5,1,-3
1499877670742000,0,-3,-13,-127,0,2,-1,1
1499877670757027,2,1,-13,52,8,3,1,2
1499877670757027,-6,-6,40,45,3,-2,-1,-4
1499877670758999,0,-2,-32,-36,-10,1,-1,-1
1499877670758999,-10,-24,-54,-127,-16,-14,-10,-8
1499877670779998,-2,-12,-66,-13,-6,-2,0,-3
1499877670779998,7,19,51,2,10,3,2,3
1499877670780988,-3,-10,-88,-20,-15,-1,-2,-2
1499877670780988,-1,-9,13,25,2,0,2,-1
1499877670793024,3,9,9,-35,15,5,2,3
1499877670793024,-1,-4,-29,-63,-10,2,3,-2
1499877670802001,17,37,84,120,52,17,9,10
1499877670802001,-12,-11,55,-78,-14,-16,-13,-10
1499877670817049,6,26,21,39,10,7,5,5
1499877670817049,-9,-24,-41,-57,-27,-8,-5,-4
1499877670819023,-4,-11,-28,-10,-7,-9,-5,-3
1499877670819023,1,-5,-45,64,4,6,6,4
1499877670840008,-1,6,7,15,-1,-1,-4,-1
1499877670840008,0,2,14,-33,-14,0,0,0
1499877670840994,-1,6,50,64,-4,-4,-2,-1
1499877670840994,1,-1,39,-78,-1,-1,-1,1
1499877670852995,-5,-18,3,71,-11,-2,-1,-3
1499877670852995,-2,-13,-63,-21,7,-2,-4,-1
1499877670862026,-1,8,37,115,4,-3,-2,-1
1499877670862026,9,22,-9,-31,7,10,7,6
1499877670876994,0,-7,95,1,6,-2,0,-3
1499877670876994,2,0,2,-16,2,-2,0,1
1499877670878995,-3,-4,10,55,12,6,1,1
1499877670878995,-4,-7,-39,-11,4,-2,-4,-3
1499877670900018,-9,-7,-15,18,-21,-13,-10,-8
1499877670900018,-2,2,-13,-12,-5,-1,-2,-2
1499877670900996,-1,-3,29,-59,-5,-5,-4,-2
1499877670900996,8,13,-1,127,9,8,5,4
1499877670922041,1,5,0,-57,3,4,1,2
1499877670922041,-2,1,9,16,1,-8,-3,-2
1499877670923998,2,8,17,-74,12,5,2,0
1499877670923998,-1,-5,9,16,0,-5,-3,-1
1499877670937025,-1,-5,-66,-3,-14,-7,-4,-3
1499877670937025,0,18,40,113,21,12,3,1
1499877670939004,-6,-7,-25,-128,-16,-8,-7,-5
1499877670939004,-2,-5,-6,119,2,-3,-3,-3
1499877670960002,-1,3,0,-80,-6,6,3,0
1499877670960002,1,9,30,52,15,1,2,0
1499877670960999,-8,-29,-84,-27,-22,-6,-3,-3
1499877670960999,2,9,84,56,16,7,2,1
1499877670982048,-3,-15,-15,-80,4,0,-2,-2
1499877670982048,-4,-10,15,87,-21,-13,-8,-4
1499877670984001,-6,0,33,-27,4,0,-1,-4
1499877670984001,0,-3,-45,7,-10,0,2,0
1499877670997043,-8,-10,8,-8,-18,-10,-8,-5
1499877670997043,-6,-6,4,4,-2,-3,-1,-4
1499877670999010,0,-8,-15,-1,-8,-6,-4,-3
1499877670999010,4,8,-6,-73,-3,6,6,3
1499877671020023,-1,4,7,34,1,0,0,1
1499877671020023,-3,-11,-14,-74,-4,-3,-3,-2
1499877671021003,3,7,12,57,3,-2,-1,0
1499877671021003,5,13,19,8,9,7,4,4
1499877671042004,5,17,3,56,15,9,5,2
1499877671042004,-2,-6,16,-61,2,-2,-1,-1
1499877671044004,-5,-8,29,66,-4,-5,-3,-4
1499877671044004,1,6,35,16,6,-2,-1,1
1499877671057040,6,15,-36,12,16,7,6,3
1499877671057040,-2,-6,-3,-24,-28,-7,-3,-4
1499877671059003,-2,-3,-6,-64,4,1,0,-1
1499877671059003,-5,-5,-28,-62,-9,-6,-3,-4
1499877671080015,-3,-2,-26,42,-10,-3,-3,-3
1499877671080015,4,24,38,-35,12,5,1,3
1499877671081006,-14,-43,-44,-82,-48,-20,-11,-10
1499877671081006,0,2,11,65,9,1,-2,-1
1499877671102044,-3,11,-9,-24,9,-1,-2,-1
1499877671102044,3,1,-36,34,-3,3,3,2
1499877671104006,-3,-1,-13,26,5,-1,-1,-1
1499877671104006,-3,-4,-35,-31,-12,-5,-4,-2
1499877671116081,-2,-9,-8,-90,-5,1,-2,-1
1499877671116081,3,1,-31,-23,4,6,5,3
1499877671123046,-10,-17,-59,46,2,-3,-6,-4
1499877671123046,1,5,1,-19,-13,1,2,-1
1499877671140070,4,4,47,49,12,7,4,3
1499877671140070,-3,-2,-22,20,7,-2,-1,-2
1499877671142039,6,11,4,-86,3,9,3,3
1499877671142039,-2,0,25,108,11,2,0,-1
1499877671162050,-9,-20,-17,17,-22,-11,-7,-6
1499877671162050,7,19,-24,-28,18,8,2,5
1499877671164011,-11,-26,-12,2,-32,-18,-10,-8
1499877671164011,-3,5,-6,-95,-5,-6,-4,-3
1499877671185022,-1,-3,13,81,-2,2,1,-2
1499877671185022,4,14,66,-12,18,4,3,2
1499877671186019,3,0,-47,-78,-7,0,0,1
1499877671186019,0,-5,-51,-113,0,2,-1,-1
1499877671198013,-2,-9,-23,127,-7,-7,-2,-4
1499877671198013,2,2,67,99,4,1,-1,1
1499877671213055,2,10,-18,19,-2,3,4,1
1499877671213055,-7,-5,56,100,4,-7,-4,-5
1499877671222075,0,-5,-66,-128,-21,1,0,0
1499877671222075,-7,-16,-59,51,-7,-10,-7,-7
1499877671224013,6,24,43,-18,23,5,2,4
1499877671224013,-4,-3,-19,14,-4,-2,-3,-3
1499877671245041,-7,-13,20,98,3,0,-3,-4
1499877671245041,-2,-10,-71,-63,-15,-2,-3,0
1499877671247019,-13,-26,45,112,-38,-21,-13,-11
1499877671247019,6,18,44,45,20,6,3,4
1499877671258015,-3,-6,-46,-110,-22,-4,-3,-1
1499877671258015,-6,-6,41,99,3,-5,-6,-4
1499877671267053,4,11,-33,32,8,9,2,2
1499877671267053,2,5,21,89,2,3,0,1
1499877671282083,6,14,26,58,19,3,2,3
1499877671282083,2,4,5,39,-6,-1,3,2
1499877671284018,-1,-7,7,-46,19,9,6,1
1499877671284018,-2,-11,-32,-73,-20,-2,-1,1
1499877671305029,10,27,55,41,34,16,9,8
1499877671305029,-11,-19,38,-7,-18,-21,-16,-12
1499877671306020,10,21,64,127,30,7,6,6
1499877671306020,-4,-19,-73,-100,-27,-1,1,0
1499877671318060,2,9,33,-32,29,6,1,3
1499877671318060,-2,-1,-28,-44,-14,1,-3,-2
1499877671327020,-1,-8,-10,43,4,-2,-1,-2
1499877671327020,2,1,-4,27,9,4,2,3
1499877671342061,-5,-2,41,-37,-10,-4,-3,-4
1499877671342061,5,9,13,-12,6,7,7,4
1499877671344022,3,8,5,-66,9,6,1,2
1499877671344022,-6,-13,-55,-13,-6,-7,-4,-4
1499877671365032,-5,-10,1,44,-16,-10,-5,-4
1499877671365032,5,9,5,-82,29,9,4,4
1499877671366023,7,13,69,40,-3,10,4,5
1499877671366023,-6,-8,40,91,10,-5,-3,-5
1499877671378088,-1,1,-15,-128,-12,-4,1,0
1499877671378088,3,11,0,-4,-4,2,0,1
1499877671387056,0,-3,-37,-6,-1,1,0,0
1499877671387056,-3,-1,-9,-73,-5,-3,-3,-1
1499877671402089,0,-2,15,-45,0,-5,-5,0
1499877671402089,-9,-18,-19,111,-15,-7,-3,-5
1499877671404023,5,17,11,-82,21,10,6,6
1499877671404023,-6,-7,5,-29,-13,-8,-4,-5
1499877671425048,2,7,3,39,10,2,2,1
1499877671425048,2,9,12,8,15,3,-1,1
1499877671426026,-4,-4,-19,39,-10,-4,-3,-3
1499877671426026,3,4,-9,24,-2,2,3,2
1499877671447029,-2,-3,-7,-87,-19,-6,-3,-3
1499877671447029,-5,-9,-1,97,-10,-7,-5,-6
1499877671449027,-4,-12,7,28,-5,-6,-2,-3
1499877671449027,4,11,23,29,-1,1,2,2
1499877671462027,-10,-23,-53,-10,-6,-8,-6,-7
1499877671462027,0,0,11,-4,-7,0,1,-2
1499877671464027,-6,-2,3,-65,-4,-3,-3,-4
1499877671464027,11,32,99,127,45,16,10,8
1499877671485033,-8,-23,-100,29,-44,-14,-9,-5
1499877671485033,-9,-25,-19,-128,-3,-12,-7,-8
1499877671486030,4,7,1,11,-3,0,2,1
1499877671486030,-1,-7,-37,41,11,5,0,-1
1499877671507042,1,6,-2,24,-8,-4,0,0
1499877671507042,1,2,10,13,0,3,0,2
1499877671509032,-4,-4,-20,17,-6,-6,-3,-2
1499877671509032,5,4,-3,39,9,7,4,1
1499877671522067,1,11,29,-27,6,2,1,2
1499877671522067,5,8,-41,-4,-6,-1,2,4
1499877671524039,-14,-23,82,79,-6,-12,-11,-10
1499877671524039,-3,-12,-68,-39,-8,-5,-1,-1
1499877671545032,-7,-3,11,-26,-2,-10,-8,-5
1499877671545032,11,29,112,50,36,18,9,8
1499877671546032,-8,-31,-100,100,-31,-6,-3,-5
1499877671546032,-12,-22,12,33,-16,-16,-11,-11
1499877671567068,2,7,39,109,19,0,1,-2
1499877671567068,1,2,-22,-48,-19,2,3,1
1499877671569043,9,21,-5,-5,35,12,6,7
1499877671569043,-2,-8,9,-94,-26,-7,-6,-3
1499877671582040,0,0,21,11,13,6,4,1
1499877671582040,0,2,-16,63,-3,0,-2,1
1499877671584046,6,16,48,-83,1,4,4,4
1499877671584046,-11,-29,-71,-98,-29,-18,-13,-9
1499877671605051,7,16,39,66,21,11,6,5
1499877671605051,-11,-24,-9,-33,-15,-14,-10,-9
1499877671606048,1,-2,-41,-118,-9,-2,-1,0
1499877671606048,4,16,50,46,23,9,4,4
1499877671627070,-1,-7,-71,-9,-11,0,-1,1
1499877671627070,-5,-9,-9,102,-8,-9,-8,-5
1499877671629037,-4,-11,-10,-52,-3,-3,-4,-4
1499877671629037,3,10,65,-93,-7,2,3,3
1499877671641091,0,-1,11,-2,7,-1,-3,-2
1499877671641091,-2,-13,-34,-49,-16,-1,-1,-1
1499877671648100,-1,5,10,88,5,-2,-2,-2
1499877671648100,0,0,-29,-21,-7,0,-1,0
1499877671665056,1,3,17,67,-2,-1,1,1
1499877671665056,-1,5,23,-105,-2,-4,-3,-1
1499877671666049,0,3,6,79,-12,-7,-2,-1
1499877671666049,-4,-11,-24,-17,-1,-1,-2,-3
1499877671687080,1,1,-20,-52,-3,-2,-1,0
1499877671687080,0,3,35,43,7,2,0,0
1499877671693080,-3,-7,-1,84,-13,-5,-2,-1
1499877671693080,2,5,-26,-58,2,3,1,1
1499877671702080,-1,1,39,71,-1,1,0,-1
1499877671702080,-1,4,-28,25,8,0,0,0
1499877671708104,5,10,6,71,17,8,3,4
1499877671708104,-18,-28,-14,-29,-45,-25,-15,-13
1499877671725060,-2,-9,-39,-60,-4,-2,-2,-2
1499877671725060,1,-5,-5,51,-5,2,2,-1
1499877671726042,1,12,9,-55,14,0,0,0
1499877671726042,3,5,11,43,11,8,2,2
1499877671747046,4,14,0,67,7,6,4,4
1499877671747046,-8,-16,27,-4,1,-7,-3,-4
1499877671749057,4,8,-30,-72,-7,4,1,4
1499877671749057,6,9,39,121,40,9,3,4
1499877671770056,-5,-16,-97,-107,-18,-8,-5,-3
1499877671770056,1,3,37,17,7,0,1,1
1499877671771078,-1,0,34,16,-1,0,0,-1
1499877671771078,-1,-2,-30,17,-1,0,1,-1
1499877671785048,-1,6,43,59,7,-1,-1,-2
1499877671785048,0,3,-22,-39,-4,1,-1,-1
1499877671786048,0,-4,-1,-41,1,-3,-1,0
1499877671786048,2,7,0,-28,1,-4,1,1
1499877671807082,2,2,44,19,-4,3,2,3
1499877671807082,3,-5,-112,-33,-5,7,7,2
1499877671809074,-18,-24,21,-110,-16,-23,-18,-15
1499877671809074,5,14,40,20,6,6,2,3
1499877671821118,-7,-20,-50,25,-12,-10,-7,-5
1499877671821118,5,18,50,-36,13,6,3,4
1499877671828068,3,6,-32,63,7,8,4,4
1499877671828068,-2,-6,-23,-16,-20,-6,-5,-2
1499877671845060,-1,3,21,9,7,1,0,-1
1499877671845060,0,3,5,-40,-5,-1,-1,-1
1499877671846051,4,10,47,60,5,8,5,4
1499877671846051,-1,4,-10,-58,-9,-5,-3,-5
1499877671867093,-3,-11,22,28,-5,-6,-5,-5
1499877671867093,-1,-1,-12,39,3,0,-1,-2
1499877671869087,1,-5,33,-115,-6,-2,-1,1
1499877671869087,-2,1,20,124,8,3,1,-1
1499877671881097,4,9,12,28,9,6,3,3
1499877671881097,3,5,2,-50,-1,6,3,2
1499877671888124,-2,0,-42,-36,4,-6,-2,-4
1499877671888124,-3,-7,-9,36,3,-1,0,-3
1499877671905064,4,17,49,26,26,5,1,1
1499877671905064,-4,-13,6,-25,-17,-4,-4,-4
1499877671906062,1,1,-22,-21,-3,2,-1,0
1499877671906062,-6,-7,-32,-15,-4,-4,-5,-2
1499877671927055,-4,-12,26,35,-4,-5,-2,-3
1499877671927055,0,7,9,36,10,1,0,0
1499877671929090,3,7,0,69,-1,0,0,0
1499877671929090,4,10,26,-21,-2,6,4,2
1499877671941126,-16,-35,-47,7,-18,-16,-13,-12
1499877671941126,-4,-5,25,-36,-4,-8,-4,-5
1499877671950064,-2,-6,-7,32,4,-1,1,-1
1499877671950064,-2,-10,-37,43,-21,-5,-2,-2
1499877671965067,1,5,23,-86,-3,1,0,-1
1499877671965067,-6,-8,-27,-52,-2,-5,-5,-4
1499877671966056,2,6,30,57,-1,1,0,0
1499877671966056,5,10,-3,-85,5,6,3,4
1499877671987096,-1,-6,-23,-3,-13,-5,-1,0
1499877671987096,-5,-12,5,36,2,-6,-4,-3
1499877671989072,1,3,-19,3,5,3,2,1
1499877671989072,0,1,30,94,7,0,0,1
1499877672001097,0,5,-14,-20,-6,0,1,1
1499877672001097,7,12,35,-41,14,8,7,6
1499877672010063,-14,-23,-59,-10,-22,-15,-12,-11
1499877672010063,-3,-8,21,13,-6,-6,-4,-3
1499877672025071,-5,-8,8,-8,6,-1,-1,-6
1499877672025071,6,14,-24,43,5,2,2,3
1499877672026059,5,12,22,-10,14,12,6,6
1499877672026059,-10,-14,-44,-76,-14,-14,-7,-6
1499877672047073,8,14,33,-59,-11,1,1,3
1499877672047073,0,-1,14,113,1,1,-1,0
1499877672049071,1,6,-29,-27,-4,-3,0,0
1499877672049071,-8,-7,68,48,6,-4,-4,-7
1499877672061073,-1,-9,3,127,12,6,1,2
1499877672061073,-4,-13,-81,-80,-34,-8,-4,-2
1499877672070066,-6,-17,31,103,4,-5,-5,-4
1499877672070066,2,8,29,40,-3,4,3,3
1499877672085074,1,4,-6,51,-1,4,1,2
1499877672085074,-5,-11,-2,-84,-5,-8,-7,-5
1499877672086063,-2,-2,-25,-98,6,4,3,-1
1499877672086063,3,7,-54,-92,-5,0,1,1
1499877672107104,2,4,12,-28,8,4,2,2
1499877672107104,-1,-4,-4,53,-2,-2,-2,-2
1499877672109065,2,8,18,-15,2,1,1,1
1499877672109065,1,-4,27,62,3,0,1,0
1499877672121126,-2,2,-66,-68,2,-3,-3,-2
1499877672121126,-2,-1,96,67,0,-2,-3,-3
1499877672130066,-6,-13,-31,-24,-4,-5,-6,-4
1499877672130066,3,4,17,-34,5,2,0,-2
1499877672145078,-4,-3,15,14,-7,-4,-4,-4
1499877672145078,0,2,-5,48,-3,-3,0,0
1499877672146067,-2,4,25,49,12,2,-1,-2
1499877672146067,2,5,-1,16,5,4,4,2
1499877672167107,0,4,-20,-55,-10,-6,-3,-1
1499877672167107,-5,-6,17,-15,10,1,-2,-4
1499877672169072,0,3,26,-10,-9,0,1,0
1499877672169072,2,1,7,-16,15,4,1,0
1499877672181099,3,7,-12,60,-15,3,3,3
1499877672181099,-8,-9,14,-48,-11,-10,-7,-5
1499877672190073,-2,-1,23,-11,-8,-6,-3,-2
1499877672190073,0,-9,-8,31,-1,-2,-1,-1
1499877672205081,-3,6,-2,-21,8,-3,-3,-1
1499877672205081,2,-2,-9,30,4,5,4,3
1499877672206080,1,2,2,10,-7,2,1,1
1499877672206080,-2,-2,5,16,5,0,-3,0
1499877672227073,7,16,63,53,16,5,6,4
1499877672227073,-8,-12,-44,21,-19,-8,-5,-4
1499877672229072,-5,-17,-41,0,-15,-11,-6,-4
1499877672229072,1,0,-44,2,2,2,4,1
1499877672241106,0,11,49,-23,19,6,1,-1
1499877672241106,-4,-13,-48,-57,-17,-11,-7,-6
1499877672250075,0,-2,18,70,6,5,1,-1
1499877672250075,-1,4,-22,41,-6,-2,-1,0
1499877672265085,-5,-23,-9,-79,-23,-6,-5,-5
1499877672265085,4,11,6,30,15,7,4,3
1499877672266074,0,-5,-17,-60,-3,-2,-2,-2
1499877672266074,2,10,23,68,6,2,0,2
1499877672287076,-1,-6,-49,-39,4,3,3,1
1499877672287076,-2,1,-2,35,0,-2,-5,-2
1499877672289091,0,-1,27,9,7,-2,1,1
1499877672289091,1,1,6,-77,12,7,4,-1
1499877672301134,-6,-22,-36,-44,-42,-12,-8,-5
1499877672301134,-2,-8,-18,-21,5,1,0,-1
1499877672310077,5,14,-14,34,7,4,3,4
1499877672310077,-4,-6,-20,-128,-6,-5,-3,-3
1499877672325089,-1,4,13,13,4,1,1,1
1499877672325089,3,9,-3,10,6,2,3,2
1499877672326088,-4,-11,14,92,-4,-4,-3,-2
1499877672326088,-1,-2,0,33,7,0,-1,2
1499877672347124,2,-2,-46,7,1,2,2,0
1499877672347124,-3,-7,25,0,-3,0,0,-2
1499877672349079,0,8,7,44,11,3,0,0
1499877672349079,0,9,-24,-55,-7,-1,-3,-2
1499877672361100,-3,-6,16,-26,3,-6,-2,-2
1499877672361100,5,7,32,96,12,3,3,2
1499877672370084,-2,-6,10,-50,-13,-4,-3,-2
1499877672370084,-7,-17,-5,45,-11,-7,-4,-5
1499877672385093,-1,3,14,-5,0,0,-1,-2
1499877672385093,2,10,-2,17,6,3,1,1
1499877672386094,3,5,-19,-66,-1,3,3,0
1499877672386094,-5,-8,7,-32,-14,-5,-5,-2
1499877672407122,-4,-8,-19,73,5,-6,-4,-4
1499877672407122,-3,-6,-50,-125,-12,-1,1,-2
1499877672409085,3,9,64,34,-4,1,1,0
1499877672409085,0,-1,-34,77,13,7,4,0
1499877672430101,-2,-7,19,-58,-12,-3,-1,0
1499877672430101,-1,-1,38,-3,-2,-4,-2,-1
1499877672431084,1,3,-87,-55,1,2,0,0
1499877672431084,-2,2,60,-9,-3,-7,-5,-3
1499877672445092,3,10,26,45,1,3,2,2
1499877672445092,3,8,-14,61,0,1,4,3
1499877672446086,2,4,-15,-3,4,-1,0,-1
1499877672446086,-1,-13,-22,-17,-18,-3,-1,-1
1499877672467114,-3,-1,46,15,10,-1,-3,-2
1499877672467114,1,-2,-7,43,1,0,-1,1
1499877672469089,-4,-5,-31,-44,-4,-3,0,-3
1499877672469089,-4,-6,-29,11,3,-4,-3,-3
1499877672490086,-1,6,-5,54,-6,-1,-3,0
1499877672490086,0,1,9,-51,-5,-1,-2,-2
1499877672491104,-3,-4,-11,-9,-5,-3,-1,-2
1499877672491104,3,3,5,-20,-11,1,1,2
1499877672505088,-2,4,19,30,13,-1,-1,-2
1499877672505088,-7,-21,-75,-12,-10,-5,-6,-3
1499877672506088,1,-3,-27,-97,-10,-2,1,-1
1499877672506088,2,4,15,82,15,3,2,3
1499877672527090,-2,-7,-44,-87,-3,-3,-1,-1
1499877672527090,4,19,55,78,12,5,2,3
1499877672529117,-7,-15,38,-6,-5,-6,-4,-2
1499877672529117,0,0,-17,24,-3,-2,-1,-1
1499877672550092,0,-3,4,30,12,5,1,2
1499877672550092,0,5,18,-5,11,2,1,0
1499877672551093,2,-1,-28,41,6,4,2,2
1499877672551093,-1,8,42,-60,-1,-1,0,-1
1499877672564146,-3,-2,21,63,-2,-6,-1,-2
1499877672564146,2,4,6,-101,-9,1,0,0
1499877672571119,-2,2,29,63,4,0,0,-2
1499877672571119,0,-5,-19,14,-7,-3,-2,0
1499877672587095,1,1,12,-34,-10,-1,2,-1
1499877672587095,-1,-6,-30,-20,-3,-2,1,0
1499877672589093,1,-4,13,-24,2,0,-1,-1
1499877672589093,-3,-2,-9,6,6,-1,-2,-3
1499877672610094,0,7,7,-53,-12,0,0,1
1499877672610094,-3,4,-3,3,-7,-6,-3,-3
1499877672611094,0,9,46,53,1,7,2,1
1499877672611094,-8,-25,-52,-82,-22,-9,-6,-6
1499877672624141,-4,-16,-29,10,3,-1,-4,-2
1499877672624141,-1,1,9,3,3,2,3,0
1499877672631145,0,-2,15,33,1,-1,-1,-1
1499877672631145,2,9,-8,-37,3,1,0,0
1499877672647135,1,1,-4,31,4,2,-1,0
1499877672647135,-3,-3,20,81,-4,-4,-3,-3
1499877672649096,-2,-5,-22,17,6,-1,-3,-1
1499877672649096,6,11,17,-36,5,9,6,5
1499877672670114,-6,-5,4,-33,-12,-11,-6,-6
1499877672670114,1,1,-24,39,6,1,0,1
1499877672671098,-2,2,40,63,-3,-1,-1,-1
1499877672671098,-5,-7,-20,-16,-8,-6,-3,-4
1499877672684144,3,7,-3,27,7,4,2,1
1499877672684144,-3,0,-8,33,0,-3,-2,-1
1499877672691101,1,5,-4,-17,0,-1,-1,0
1499877672691101,0,5,30,127,1,0,0,0
1499877672707142,-2,-12,-72,-51,-13,-5,-4,-4
1499877672707142,-4,-8,22,-22,-7,-4,-1,-4
1499877672709101,4,7,-25,-39,4,1,2,1
1499877672709101,-7,-7,36,38,-6,-6,-5,-4
1499877672730120,4,8,-3,18,3,5,4,3
1499877672730120,-3,-1,2,-32,2,3,0,-1
1499877672731103,-4,-9,-11,-23,-7,-2,-3,-2
1499877672731103,4,11,-1,-4,15,7,4,3
1499877672744102,8,14,47,127,7,5,3,5
1499877672744102,-6,-16,-24,2,-6,-9,-6,-4
1499877672751103,-2,-11,-22,10,-17,-8,-4,-4
1499877672751103,-5,-5,19,-12,-5,-5,-5,-5
1499877672767146,-2,-1,-12,48,8,1,1,-2
1499877672767146,5,9,13,-1,7,3,2,4
1499877672769104,-1,2,-19,48,-1,0,0,-1
1499877672769104,2,-3,12,36,5,0,-1,-2
1499877672790117,-3,-4,-17,-99,1,-1,-2,-2
1499877672790117,1,0,11,-76,0,1,0,1
1499877672791103,-3,2,-24,-11,8,1,1,-2
1499877672791103,-6,-10,-12,13,-18,-8,-5,-4
1499877672804105,-5,-12,12,46,-10,-4,0,-2
1499877672804105,-3,-2,11,47,-1,-2,-3,-2
1499877672811105,-3,-6,1,-2,7,1,0,0
1499877672811105,-1,-3,-24,-19,-12,-1,1,-2
1499877672827139,2,1,-21,1,-4,-1,-1,0
1499877672827139,0,-5,-23,-23,3,1,0,0
1499877672829115,-1,1,2,29,-4,-3,-3,-3
1499877672829115,-2,0,-2,-57,1,0,-2,0
1499877672849131,3,3,5,53,-2,2,2,2
1499877672849131,4,9,73,-50,-3,1,2,0
1499877672851108,-5,-17,-58,-64,-10,-10,-6,-3
1499877672851108,0,-1,-2,6,9,0,-1,0
1499877672864107,0,-2,2,-41,3,5,1,0
1499877672864107,3,13,42,43,6,2,1,1
1499877672871108,1,2,-8,49,0,5,2,2
1499877672871108,-6,-5,21,71,-2,-7,-4,-4
1499877672887110,-4,-12,-57,-99,-10,-7,-4,-2
1499877672887110,-3,0,9,79,-13,-5,-6,-3
1499877672889110,5,7,-3,-36,0,0,1,1
1499877672889110,2,-3,0,60,11,5,3,2
1499877672910112,-4,7,30,-9,1,-4,-6,-4
1499877672910112,-5,-19,-64,32,-15,-6,-6,-5
1499877672911114,0,3,12,-16,5,2,0,1
1499877672911114,2,11,29,8,14,5,1,2
1499877672923148,-7,-15,-49,14,-7,-3,-3,-3
1499877672923148,-1,-3,-11,32,5,3,1,-1
1499877672932112,-3,6,54,-19,-13,-3,-1,-2
1499877672932112,1,1,-15,1,1,-2,-2,-1
1499877672947155,-2,2,37,-117,-2,-4,-2,-3
1499877672947155,2,2,-13,24,11,5,2,3
1499877672949123,0,7,22,127,2,-1,-1,1
1499877672949123,-3,0,41,-100,1,-2,-4,-2
1499877672970136,-1,-1,-21,-4,-4,-4,-1,0
1499877672970136,-3,-4,0,-7,10,3,0,-2
1499877672971116,-7,-20,-45,-78,-17,-11,-5,-6
1499877672971116,3,9,0,32,1,5,2,3
1499877672983154,-5,-6,-26,-12,-18,-6,-4,-3
1499877672983154,1,0,-9,8,0,-5,0,1
1499877672992115,-2,-4,-4,-10,7,0,-1,-4
1499877672992115,4,6,-23,83,4,3,4,1
1499877673007117,-5,-10,1,-20,-7,-3,-3,-4
1499877673007117,-3,-5,-2,18,-8,-4,0,-3
1499877673009121,-1,5,6,-32,-1,0,-2,0
1499877673009121,-1,-2,4,10,3,1,1,-1
1499877673030141,6,13,29,-11,12,5,4,2
1499877673030141,-1,3,-21,-38,-2,2,0,-1
1499877673031123,1,-3,22,84,6,1,-1,1
1499877673031123,-2,-8,-7,-38,-9,-6,-4,-2
1499877673043160,5,7,18,91,21,10,6,3
1499877673043160,-2,5,-12,49,-5,-4,-2,-2
1499877673052121,-2,-20,5,68,-12,-9,-5,6
1499877673052121,-12,-13,-52,-84,-12,-3,-2,-14
1499877673067161,-2,-2,9,37,3,-1,-1,-11
1499877673067161,11,16,-1,-45,12,12,6,0
1499877673069156,-4,3,13,-12,5,-2,-2,4
1499877673069156,-2,-10,-26,-30,-4,-5,-2,5
1499877673090143,1,-1,2,-32,-1,1,1,1
1499877673090143,1,0,-5,89,13,1,0,-7
1499877673091132,3,9,1,-78,5,-1,-4,-4
1499877673091132,9,6,6,-37,7,8,7,20
1499877673103161,-7,-2,-8,74,-6,-7,-5,-18
1499877673103161,-2,-6,2,-76,-7,-3,-2,3
1499877673112122,-2,-3,-1,-1,-6,-5,-5,-4
1499877673112122,2,6,4,13,5,1,0,-2
1499877673127157,4,3,1,32,12,4,1,11
1499877673127157,-3,-10,6,-45,-11,-7,-7,-1
1499877673129129,-1,3,-9,-82,4,5,3,-3
1499877673129129,5,1,-14,-61,-12,-3,-1,0
1499877673150153,-1,0,30,73,2,-3,-4,0
1499877673150153,5,11,-28,-59,9,7,3,3
1499877673151124,-11,-19,36,58,-21,-16,-8,-10
1499877673151124,1,-1,-15,101,8,3,4,-3
1499877673163164,2,8,6,-24,-4,1,1,4
1499877673163164,-8,-12,1,19,-12,-9,-7,-2
1499877673172125,3,3,-27,-51,10,4,3,2
1499877673172125,-3,-3,34,24,-4,-1,-4,-4
1499877673187176,-1,-7,-31,108,-4,-4,0,-1
1499877673187176,-2,-6,-24,-96,-9,1,0,3
1499877673189160,1,8,7,0,1,3,2,0
1499877673189160,-7,-5,19,39,-9,-6,-7,-8
1499877673210132,4,4,-13,-107,9,6,0,3
1499877673210132,0,1,19,28,4,-5,0,0
1499877673211161,-2,-9,-47,18,-12,0,-2,-2
1499877673211161,1,2,22,-61,-1,-2,-2,-3
1499877673223167,3,3,10,-8,0,0,1,3
1499877673223167,-1,-8,-47,72,5,-2,-1,-2
1499877673232176,7,12,8,-51,5,6,4,1
1499877673232176,-2,-5,7,-69,-9,-1,-1,0
1499877673247176,-9,-14,-3,20,-21,-12,-9,-6
1499877673247176,-3,-5,11,-35,-10,-3,-2,1
1499877673249131,-2,0,17,42,-2,-1,1,-3
1499877673249131,-1,-2,-2,30,-4,-6,-5,-5
1499877673269165,4,15,51,3,6,4,3,3
1499877673269165,-7,-17,1,-40,-21,-4,-2,-6
1499877673271173,2,3,-16,-78,14,4,3,4
1499877673271173,-3,5,20,9,-6,-8,-4,-3
1499877673283177,0,5,-20,27,11,-1,-3,0
1499877673283177,-3,-5,17,127,-4,-4,-4,-3
1499877673292166,-2,-6,-56,-66,-6,-2,-1,-1
1499877673292166,2,3,-4,-30,9,5,3,2
1499877673307180,0,-7,17,25,-4,2,2,2
1499877673307180,-1,5,17,34,7,-1,0,-2
1499877673309135,-4,-4,17,27,-8,-2,-2,-3
1499877673309135,0,2,-57,-35,10,2,2,0
1499877673330151,-5,-17,-35,-73,-11,-7,-5,-5
1499877673330151,-3,0,-2,58,-6,-1,-2,-3
1499877673331137,0,0,27,9,1,-1,-1,0
1499877673331137,5,9,10,-35,9,5,3,4
1499877673352210,3,8,18,-5,14,8,1,1
1499877673352210,-1,2,65,52,0,-5,-4,-1
1499877673354164,-8,-14,-47,-3,-10,-9,-6,-5
1499877673354164,-4,-6,3,33,-18,-6,-5,-5
1499877673367180,6,16,34,54,19,9,8,5
1499877673367180,3,12,27,44,20,9,4,1
1499877673369137,-3,-9,-24,32,-11,-7,-4,-1
1499877673369137,-5,-4,-14,47,-5,-5,-4,-5
1499877673389207,-6,-12,-66,-22,-16,-7,-6,-4
1499877673389207,2,9,1,30,7,2,2,1
1499877673391140,4,0,1,-38,-5,3,3,1
1499877673391140,-5,-12,-34,-51,-15,-5,-5,-4
1499877673412180,-8,-9,28,47,-10,-9,-6,-8
1499877673412180,7,12,-1,-56,5,5,5,5
1499877673414140,-6,-7,30,57,4,-1,-1,-4
1499877673414140,3,7,15,27,16,5,2,3
1499877673427142,-6,-10,-5,-34,-8,-5,-5,-2
1499877673427142,-2,-7,-31,-30,-6,-1,-1,0
1499877673429141,8,16,55,42,6,3,2,2
1499877673429141,-6,-15,-48,103,-13,-1,-2,-5
1499877673449185,-4,-5,-19,-88,-5,-7,-5,-4
1499877673449185,3,11,-10,55,5,4,1,1
1499877673451143,-7,-16,18,13,-2,-6,-6,-4
1499877673451143,1,3,-33,-86,-5,-2,-2,-1
1499877673472167,-2,0,7,70,-6,-1,-1,-3
1499877673472167,3,3,-39,50,1,-1,2,1
1499877673474144,3,9,0,-87,10,10,5,4
1499877673474144,1,1,-10,67,8,5,4,2
1499877673486192,-6,-14,54,-73,-19,-10,-5,-4
1499877673486192,-7,-7,-16,-128,-9,-7,-6,-5
1499877673493185,6,10,-9,37,19,5,2,3
1499877673493185,-1,-4,-1,-51,-7,-3,-1,0
1499877673510152,5,9,-14,27,10,8,5,3
1499877673510152,-3,-2,47,50,-6,-5,-3,-4
1499877673511147,-2,-4,-39,-31,-5,-3,-1,-2
1499877673511147,1,5,20,26,21,5,1,0
1499877673532189,-1,-3,7,26,-15,-1,-1,0
1499877673532189,1,5,-9,-88,1,1,-1,2
1499877673534164,-5,-11,8,-15,-12,-5,-4,-3
1499877673534164,-1,2,6,-6,4,-3,-2,-2
1499877673546161,2,12,37,107,17,3,3,0
1499877673546161,-6,-21,-61,-116,-24,-11,-5,-6
1499877673553188,2,8,-14,93,1,4,1,2
1499877673553188,-1,-6,-12,1,-8,1,1,1
1499877673569149,-7,-12,17,28,-14,-15,-10,-7
1499877673569149,-1,2,23,89,-1,1,-1,1
1499877673571149,4,6,-27,34,18,4,2,2
1499877673571149,2,11,18,-70,-6,-1,1,1
1499877673592225,1,-3,-37,-8,14,6,2,3
1499877673592225,-3,-8,5,10,-2,0,0,-3
1499877673594150,-1,-11,-53,24,-13,-6,-3,-3
1499877673594150,3,15,44,-38,4,0,0,2
1499877673606214,-1,-4,-12,35,-2,1,0,2
1499877673606214,-3,-7,9,-100,0,-1,-2,-2
1499877673613152,-1,3,19,119,7,2,0,-1
1499877673613152,-1,-5,-1,44,-9,-5,-1,-2
1499877673637189,2,6,-23,-81,2,2,0,1
1499877673637189,-2,-9,-26,4,-1,-2,-2,-1
1499877673639155,10,15,19,40,4,4,3,13
1499877673639155,-22,-25,1,24,-27,-13,-10,-30
1499877673652226,2,-1,-36,-79,3,-2,0,-20
1499877673652226,1,0,16,57,8,0,2,21
1499877673654154,0,5,14,-84,-3,-1,1,8
1499877673654154,2,-5,-24,29,-6,-1,-1,7
1499877673666227,3,10,3,82,11,4,2,5
1499877673666227,-4,-3,21,-99,1,0,-2,-11
1499877673673194,-2,-3,2,0,-11,-5,-3,-5
1499877673673194,2,2,4,-51,5,5,4,6
1499877673689206,-1,-6,-18,56,4,1,-1,-2
1499877673689206,-1,6,35,67,2,-7,-6,-3
1499877673691158,-3,-2,13,-36,-3,-2,-3,-3
1499877673691158,1,2,-5,44,3,0,0,-3
1499877673712197,3,8,44,-41,8,4,3,8
1499877673712197,-5,-12,-81,-27,-15,-3,-2,-4
1499877673714176,0,2,8,16,-9,0,-1,-4
1499877673714176,-3,-7,-10,-3,0,-4,-4,-3
1499877673726224,2,1,7,21,-7,-2,-3,1
1499877673726224,3,5,8,-54,-2,2,0,1
1499877673733198,-2,-3,-7,3,10,2,2,-6
1499877673733198,6,8,15,-41,-3,9,5,7
1499877673749227,-3,-7,16,40,-4,-7,-3,2
1499877673749227,4,9,-18,-74,2,2,1,-3
1499877673751170,-3,-2,13,7,8,-1,-1,-2
1499877673751170,-2,-5,4,39,0,0,3,1
1499877673772225,-4,2,3,-1,7,-1,-2,-1
1499877673772225,1,4,42,55,1,3,2,-1
1499877673774161,1,-1,-58,-37,-5,-1,0,-1
1499877673774161,-3,-5,15,-10,3,-1,-3,1
1499877673786233,-3,0,-7,-117,-7,-4,-1,-1
1499877673786233,-5,-14,-5,96,-7,-5,-5,-6
1499877673793171,-3,-1,16,30,-3,0,-1,-3
1499877673793171,1,-1,6,38,5,1,0,0
1499877673809210,1,-2,-32,7,-9,0,1,2
1499877673809210,1,7,14,-49,0,0,-1,1
1499877673811164,0,3,6,-40,2,1,1,0
1499877673811164,-3,-5,0,56,-5,-5,-2,-3
1499877673832164,4,6,30,103,12,5,4,2
1499877673832164,-6,-13,-27,15,-7,-3,-2,-3
1499877673834167,-9,-8,65,82,-27,-12,-8,-7
1499877673834167,-1,3,28,3,13,0,-2,-1
1499877673846168,2,4,-15,-19,6,4,2,2
1499877673846168,0,-2,-40,-9,-4,-1,-1,-1
1499877673855166,-5,-14,-21,-34,-6,-4,-4,-3
1499877673855166,-1,4,15,-35,0,-5,-3,-3
1499877673870202,-3,-2,3,54,-6,-2,0,0
1499877673870202,0,-1,0,-22,0,-1,-1,-1
1499877673871201,2,11,20,-37,12,6,3,1
1499877673871201,1,3,-31,33,8,2,2,1
1499877673892234,-4,-11,-17,-22,-9,-2,-2,-3
1499877673892234,3,10,23,-56,3,1,1,1
1499877673894168,-9,-20,-19,51,-16,-14,-10,-7
1499877673894168,2,7,10,-13,0,-1,0,-2
1499877673906180,0,6,-10,3,-7,-1,-1,-1
1499877673906180,0,-3,35,3,-4,-2,-3,0
1499877673915174,2,1,0,-19,11,6,2,0
1499877673915174,-1,-5,-12,0,-10,-3,-2,0
1499877673930204,-1,1,6,-47,8,1,0,1
1499877673930204,-3,1,-10,82,-6,-3,-2,0
1499877673931170,4,4,-21,-37,8,6,4,2
1499877673931170,-1,-1,4,109,7,-1,0,1
1499877673952241,-1,-3,8,6,-4,-3,0,-1
1499877673952241,-2,-3,31,5,-4,-4,-1,-4
1499877673954182,5,10,-13,-3,5,5,3,2
1499877673954182,0,7,19,-75,-6,0,0,1
1499877673966187,-5,-16,-43,35,-12,-4,-4,-5
1499877673966187,-2,-5,-23,58,6,-1,0,-1
1499877673975173,-1,5,59,-17,-3,-3,-2,-1
1499877673975173,-3,-8,-25,3,0,-2,-2,0
1499877673989238,-5,-6,-16,-23,1,-1,-3,-2
1499877673989238,-1,-3,-9,-69,-5,0,0,-2
1499877673991175,0,-4,-33,-22,3,1,2,-1
1499877673991175,0,1,-20,16,-1,1,1,0
1499877674012228,-4,-4,13,18,-5,-4,-1,-2
1499877674012228,-4,-8,-58,48,0,-2,-3,-2
1499877674014176,2,7,7,-47,-5,-3,-1,0
1499877674014176,-1,-5,7,-25,-2,0,2,-2
1499877674026187,2,7,1,-10,0,3,2,3
1499877674026187,0,4,56,54,8,-3,-2,-1
1499877674035177,-8,-23,-62,-74,-28,-9,-7,-5
1499877674035177,-2,2,-26,-19,-5,-2,-2,-1
1499877674049242,-1,-7,4,-29,12,1,0,-1
1499877674049242,3,10,49,56,7,2,1,1
1499877674051179,-2,-2,-17,-42,-5,-3,-3,-1
1499877674051179,0,-5,-31,-31,3,1,1,0
1499877674072248,0,6,-11,-61,-9,0,0,0
1499877674072248,1,5,-8,8,15,8,4,2
1499877674074178,-6,-7,38,-15,-6,-6,-5,-5
1499877674074178,-5,-7,15,19,-13,-8,-5,-4
1499877674086198,2,5,-11,-8,0,-2,0,1
1499877674086198,-2,-8,-31,11,-5,-3,0,-3
1499877674095181,4,7,32,77,11,7,4,3
1499877674095181,0,8,18,-18,6,2,-1,-1
1499877674110194,-7,-16,-8,-50,-10,-5,-4,-5
1499877674110194,-1,-4,-5,-3,-4,-1,-1,1
1499877674111184,1,2,-17,-25,1,3,0,2
1499877674111184,-1,-1,-10,1,-3,-3,-4,-1
1499877674132251,0,-1,29,19,5,1,1,1
1499877674132251,-1,1,-4,63,-6,0,-3,-1
1499877674134183,-2,0,-30,68,-2,-3,-1,-1
1499877674134183,-2,-3,-1,-55,-2,-4,-2,0
1499877674146186,-1,3,6,4,3,1,0,0
1499877674146186,-1,-4,5,10,3,-1,-2,-2
1499877674155186,1,12,72,27,12,4,1,1
1499877674155186,2,1,-21,19,-3,2,0,1
1499877674170203,-10,-21,-42,-15,-23,-10,-7,-9
1499877674170203,1,-1,-6,9,7,1,0,0
1499877674171183,-1,-1,-7,-58,7,0,-1,-4
1499877674171183,-4,-7,0,-25,-2,-3,-3,-4
1499877674192194,5,11,20,-4,10,6,0,4
1499877674192194,3,7,-52,-51,7,8,4,4
1499877674193189,-9,-15,-9,24,-20,-14,-8,-6
1499877674193189,-2,-1,49,82,4,-2,-4,-3
1499877674206196,5,7,-2,62,14,6,4,2
1499877674206196,-5,-13,-50,-94,-24,-11,-7,-5
1499877674215189,0,4,11,20,3,-1,-2,0
1499877674215189,-2,1,-14,-14,-4,-2,-1,-1
1499877674229229,0,-9,15,14,-1,0,1,-1
1499877674229229,-3,2,24,-6,-5,0,-2,-4
1499877674231200,2,0,-38,-24,-4,2,1,0
1499877674231200,-2,0,12,17,-3,-1,-2,-2
1499877674252189,4,6,-2,29,4,4,3,2
1499877674252189,-5,-3,4,-62,4,-5,-3,-2
1499877674254189,3,5,-15,-37,5,2,2,3
1499877674254189,-4,-5,7,74,-2,-5,-3,-3
1499877674266209,1,7,2,-27,3,1,1,1
1499877674266209,-3,-2,10,2,-4,-1,-2,-3
1499877674275191,3,6,17,19,4,5,3,2
1499877674275191,-1,-6,-60,7,-7,1,1,1
1499877674289234,-3,-1,15,87,-1,-5,-4,-3
1499877674289234,-3,-8,2,-49,3,-4,-2,-2
1499877674291193,-1,-3,-11,95,2,2,2,1
1499877674291193,0,0,4,-60,-1,-2,0,0
1499877674312236,1,8,18,21,-6,-1,1,1
1499877674312236,1,4,-6,-9,2,3,2,-1
1499877674314193,2,-2,-31,28,8,4,2,2
1499877674314193,-3,4,46,-60,-1,-2,-4,-3
1499877674334240,0,-5,-8,-74,-7,-5,-1,-2
1499877674334240,1,2,19,6,5,-1,0,0
1499877674336193,-1,-5,-11,-6,-4,-4,-4,-3
1499877674336193,5,10,27,85,7,6,2,3
1499877674349262,-3,-4,-1,-15,-8,-6,-5,-4
1499877674349262,-1,0,6,-2,-7,-3,-1,-2
1499877674351215,1,4,35,30,4,-1,1,-1
1499877674351215,-1,-7,-14,0,-7,-4,-2,-2
1499877674372238,2,4,-18,-11,-1,2,0,0
1499877674372238,1,-3,-13,2,-10,0,-1,0
1499877674374207,-1,2,24,-4,-8,-3,1,1
1499877674374207,0,2,-11,36,2,-1,-2,-1
1499877674394198,-3,-6,33,8,7,-4,-5,-2
1499877674394198,-5,-10,-23,24,-4,-4,-4,-4
1499877674396197,-7,-9,-16,-46,-10,-7,-5,-4
1499877674396197,2,1,-10,-4,-1,1,3,1
1499877674409197,1,8,0,70,19,12,7,2
1499877674409197,-8,-14,0,-27,-22,-10,-7,-4
1499877674416215,-1,-1,4,71,10,-2,0,-1
1499877674416215,0,-5,8,-2,-10,-1,-1,0
1499877674432242,-1,-9,-65,-18,-6,-4,-4,-4
1499877674432242,3,9,16,5,11,7,2,2
1499877674433200,0,-4,-18,-13,-1,-1,0,-2
1499877674433200,0,6,49,-26,5,1,0,0
1499877674454209,0,-1,-14,-65,-16,-6,-1,0
1499877674454209,1,12,66,93,7,-2,-2,-1
1499877674456213,-1,-2,-22,-1,-3,-3,-3,-2
1499877674456213,-1,-5,-23,23,3,0,-3,-1
1499877674469215,-2,5,23,-24,-6,0,-1,-1
1499877674469215,1,-1,-13,1,7,0,1,0
1499877674476222,-1,6,19,5,-4,0,-2,-2
1499877674476222,-3,-8,-23,49,-5,0,1,-3
1499877674492235,0,1,19,25,2,1,-2,0
1499877674492235,0,-8,-50,-34,-3,1,0,1
1499877674494203,-7,-10,-30,-18,-12,-10,-7,-5
1499877674494203,1,0,-15,-41,3,0,1,1
1499877674514268,-1,-3,-18,-28,-2,-2,-2,-1
1499877674514268,1,-1,-18,50,4,3,2,0
1499877674516203,1,14,34,-52,-2,1,1,0
1499877674516203,-5,-18,-6,59,-6,-6,-3,-4
1499877674529231,2,2,-7,-50,-4,-2,0,-1
1499877674529231,-1,-1,27,15,7,0,1,1
1499877674536205,-1,-3,-29,17,12,5,1,-1
1499877674536205,1,13,38,5,-10,2,3,2
1499877674552252,-6,-20,-53,32,-11,-3,-3,-2
1499877674552252,1,8,7,-48,0,-1,-1,-1
1499877674553206,-6,-26,-40,85,-14,-8,-5,-4
1499877674553206,-1,1,8,-49,0,-2,-1,-2
1499877674574283,0,-1,-4,45,8,1,1,0
1499877674574283,0,6,11,-19,-2,-1,0,2
1499877674576215,-1,-6,10,-38,-4,0,-1,0
1499877674576215,5,14,-16,-4,14,6,5,3
1499877674589261,-7,-15,23,-10,-5,-7,-5,-5
1499877674589261,-1,-2,-5,38,-5,-5,-2,-3
1499877674596209,4,9,31,-78,-1,0,1,1
1499877674596209,-5,-8,-41,-36,-7,-6,-4,-3
1499877674612243,-1,-3,-24,-26,-3,1,0,-1
1499877674612243,-2,-4,23,50,3,-3,-2,-3
1499877674614218,3,5,-2,-4,6,6,1,3
1499877674614218,-1,0,10,11,1,1,0,-3
1499877674634278,-4,0,4,-87,-4,-7,-6,-3
1499877674634278,-1,-2,-2,47,-7,-1,1,-1
1499877674636211,-2,-5,-11,47,6,-1,1,-2
1499877674636211,2,2,17,-64,-6,0,-2,1
1499877674649249,-3,-7,-40,36,-5,-5,-3,-3
1499877674649249,0,-1,4,-60,-1,2,-1,0
1499877674656229,0,2,11,3,3,2,3,0
1499877674656229,-2,-4,-13,-4,6,1,0,0
1499877674672252,6,15,24,127,14,8,5,4
1499877674672252,-8,-16,-14,-108,-27,-8,-7,-5
1499877674673213,0,7,2,60,0,-1,-1,-1
1499877674673213,-1,-9,7,-12,4,-2,-1,-1
1499877674694216,-5,-8,5,38,-12,-3,-2,-3
1499877674694216,4,5,-10,-19,6,5,5,4
1499877674696215,-1,1,0,-3,-6,-1,-1,-4
1499877674696215,-2,0,22,39,-6,-6,-5,-5
1499877674709226,2,9,13,57,14,2,0,1
1499877674709226,-2,-5,-22,-10,-1,-2,-1,0
1499877674717240,-2,-9,-9,-2,-6,-3,0,-2
1499877674717240,-1,1,-5,24,11,2,1,2
1499877674739260,-2,3,8,-58,-12,-2,0,-2
1499877674739260,-1,3,-12,37,-2,1,0,-1
1499877674741218,2,0,22,-12,11,4,0,1
1499877674741218,0,6,4,1,-10,-4,-2,0
1499877674754229,-1,-6,13,-33,2,-1,-1,-2
1499877674754229,1,6,11,68,13,1,1,1
1499877674756218,3,7,-20,-27,-1,1,-1,-1
1499877674756218,-4,-4,13,80,2,-1,-3,-5
1499877674769253,-1,-1,25,-57,-8,-1,0,-1
1499877674769253,1,-1,-11,-71,-4,-2,-1,-1
1499877674776242,-1,0,9,23,6,-2,2,0
1499877674776242,1,2,-7,-27,3,-3,-4,0
1499877674792260,-4,-8,-12,27,-10,-4,-2,-2
1499877674792260,-4,-4,7,90,4,-1,-2,-4
1499877674794220,-1,1,17,43,0,1,-1,1
1499877674794220,-1,-1,-35,53,-11,-3,-2,-2
1499877674814220,0,-5,-6,-49,1,-3,-1,0
1499877674814220,3,4,20,-6,5,0,0,1
1499877674815223,-6,-12,2,14,-8,-3,-4,-2
1499877674815223,0,1,-2,-50,-2,-2,1,1
1499877674837263,2,4,-5,27,9,1,0,0
1499877674837263,0,4,15,14,1,1,0,-1
1499877674838233,-1,-2,-9,-12,5,1,0,-2
1499877674838233,-1,-5,-5,23,-7,-1,-1,1
1499877674851223,-1,2,12,-94,-3,-2,-2,-1
1499877674851223,-1,-3,-11,4,-10,-3,-1,0
1499877674852223,0,5,4,-33,1,0,-1,-1
1499877674852223,-5,-11,-16,-36,-6,-2,-1,-3
1499877674874255,-2,0,-5,28,0,-3,-1,-1
1499877674874255,1,2,11,25,0,0,0,-2
1499877674874255,1,10,13,19,-9,-4,-1,0
1499877674874255,-3,-6,5,63,7,0,-3,-4
1499877674897265,0,0,-8,6,-9,-2,-2,-1
1499877674897265,0,-2,-6,-48,2,-2,0,0
1499877674898234,-5,-6,9,31,-1,-2,-2,-3
1499877674898234,5,4,-16,-45,10,1,1,4
1499877674911237,3,3,15,-33,-5,4,0,2
1499877674911237,-3,-3,-22,-7,-1,-2,-4,-1
1499877674912262,-2,1,0,-28,2,-1,1,0
1499877674912262,0,1,-10,64,2,2,1,-1
1499877674942278,-7,-11,23,-72,-5,-7,-3,-8
1499877674942278,5,8,19,62,-2,3,1,2
1499877674943236,-5,-11,-45,7,0,-2,-1,-3
1499877674943236,-2,1,5,-85,-2,-2,-2,-1
1499877674956299,1,2,1,82,6,0,1,1
1499877674956299,-3,-5,-4,-16,-1,-3,-4,-2
1499877674957229,1,2,3,0,-4,-2,-4,0
1499877674957229,0,2,5,38,6,4,-1,0
1499877674971241,-1,2,-34,-44,-14,-2,-1,0
1499877674971241,-3,-4,21,-18,4,3,1,-3
1499877674972231,0,-6,-43,4,1,1,0,0
1499877674972231,1,7,32,-23,4,2,1,-1
1499877674994242,-5,-14,-49,-21,-10,-4,-3,-1
1499877674994242,-3,-9,-17,19,4,-5,-1,-3
1499877674994242,3,3,12,2,4,1,-2,0
1499877674994242,2,2,7,-15,1,0,1,0
1499877675016281,-1,5,46,116,9,4,0,1
1499877675016281,-6,-17,-64,-32,-8,-4,-3,-3
1499877675017233,-2,6,18,-14,0,1,0,-1
1499877675017233,-1,-3,-14,-10,-7,-3,-2,-2
1499877675031269,0,6,28,24,5,0,2,-1
1499877675031269,-1,-1,3,-4,-4,3,1,0
1499877675032237,3,1,7,3,4,0,0,1
1499877675032237,3,10,-25,-13,11,7,3,4
1499877675054249,-4,-9,-21,75,-5,-6,-6,-3
1499877675054249,-7,-15,-13,-72,-25,-12,-6,-5
1499877675054249,-2,-4,-9,-38,0,1,1,-1
1499877675054249,-1,2,23,29,-1,-1,1,1
1499877675076280,1,-3,-68,-21,5,3,2,0
1499877675076280,4,12,12,21,11,4,3,4
1499877675077247,-5,-5,17,74,-10,-8,-4,-5
1499877675077247,-5,-8,7,-1,-13,-8,-6,-6
1499877675099282,4,11,18,34,7,5,3,2
1499877675099282,2,6,10,51,-3,1,0,3
1499877675100260,1,3,-18,-128,-5,3,0,1
1499877675100260,-5,-12,-39,26,-6,-5,-3,0
1499877675114273,-5,-9,16,-41,-5,-7,-6,-5
1499877675114273,2,9,4,9,9,1,1,-2
1499877675114273,3,1,20,9,-1,1,1,1
1499877675114273,-4,-11,-25,-11,-4,-3,-3,-2
1499877675136251,3,1,0,-15,-4,1,0,2
1499877675136251,-2,-3,-13,-66,3,4,1,-1
1499877675137255,-6,-6,32,101,-7,-10,-7,-5
1499877675137255,2,0,25,-88,-1,1,-1,-1
1499877675151313,-2,4,-31,-23,4,-1,0,-1
1499877675151313,0,4,12,-3,5,-1,1,-1
1499877675152242,-1,-5,-12,-8,-7,1,-1,-2
1499877675152242,1,5,0,35,2,1,2,1
