timestamp,x,y,z
1499894423084833,0.17627,-0.96582,0.15918
1499894423106834,0.17041,-0.964844,0.162109
1499894423127835,0.181641,-0.972168,0.172852
1499894423144837,0.17041,-0.989746,0.186035
1499894423166837,0.168945,-0.970215,0.193848
1499894423189842,0.169434,-0.955566,0.162109
1499894423204841,0.177246,-0.972168,0.155762
1499894423226841,0.184082,-0.979004,0.171387
1499894423249843,0.164063,-0.986816,0.18457
1499894423264845,0.169922,-0.963379,0.187988
1499894423287852,0.167969,-0.95459,0.170898
1499894423309846,0.172852,-0.969238,0.179688
1499894423323847,0.172852,-0.979004,0.174316
1499894423346851,0.165527,-0.979004,0.17334
1499894423369853,0.167969,-0.970703,0.163086
1499894423383851,0.168945,-0.986816,0.172852
1499894423408857,0.163574,-0.98291,0.183105
1499894423429857,0.15918,-0.97168,0.179688
1499894423434854,0.16748,-0.975098,0.166504
1499894423452855,0.164063,-0.986816,0.181152
1499894423472857,0.162109,-0.976563,0.174805
1499894423494875,0.166504,-0.963379,0.178223
1499894423513860,0.172852,-0.962402,0.178223
1499894423532886,0.166504,-0.97168,0.172363
1499894423554881,0.166992,-0.976074,0.178223
1499894423571862,0.169922,-0.969238,0.180176
1499894423592872,0.164063,-0.966309,0.17627
1499894423614868,0.164063,-0.976074,0.174805
1499894423638866,0.164551,-0.982422,0.175781
1499894423652866,0.168457,-0.983398,0.174316
1499894423674871,0.163574,-0.973145,0.166504
1499894423691871,0.161621,-0.972168,0.17041
1499894423712870,0.15918,-0.977539,0.172363
1499894423734878,0.164551,-0.979004,0.173828
1499894423751893,0.163574,-0.973633,0.170898
1499894423772875,0.163086,-0.969238,0.17334
1499894423794875,0.169922,-0.976563,0.173828
1499894423811880,0.169434,-0.978516,0.172852
1499894423832895,0.17041,-0.973633,0.175781
1499894423854879,0.177246,-0.973633,0.180176
1499894423871879,0.170898,-0.977539,0.176758
1499894423899897,0.168945,-0.975098,0.17334
1499894423914882,0.174805,-0.97168,0.175293
1499894423931883,0.174316,-0.978516,0.178223
1499894423952884,0.169922,-0.975098,0.178711
1499894423974886,0.169922,-0.977539,0.170898
1499894423991888,0.171387,-0.977051,0.176758
1499894424012889,0.166992,-0.976074,0.177734
1499894424034905,0.172852,-0.969727,0.171875
1499894424052890,0.172852,-0.978027,0.169922
1499894424072892,0.168945,-0.978516,0.174805
1499894424094908,0.164551,-0.973145,0.173828
1499894424113893,0.16748,-0.973145,0.176758
1499894424132897,0.170898,-0.980469,0.177246
1499894424154900,0.172852,-0.976074,0.175293
1499894424172896,0.167969,-0.976074,0.166016
1499894424192897,0.169434,-0.979492,0.172363
1499894424214901,0.170898,-0.982422,0.176758
1499894424232900,0.172363,-0.977051,0.174316
1499894424252902,0.169434,-0.974121,0.166504
1499894424274905,0.171875,-0.974609,0.174316
1499894424300925,0.168457,-0.975098,0.176758
1499894424312905,0.171387,-0.970703,0.171387
1499894424334929,0.171875,-0.973633,0.175293
1499894424352909,0.171387,-0.978027,0.174805
1499894424372908,0.171875,-0.972656,0.172852
1499894424394950,0.17041,-0.979004,0.175781
1499894424417943,0.169434,-0.984375,0.169434
1499894424432939,0.170898,-0.972656,0.174316
1499894424455913,0.169434,-0.972656,0.177734
1499894424477934,0.163574,-0.977539,0.175781
1499894424492982,0.162598,-0.975098,0.17334
1499894424514937,0.165039,-0.977051,0.16748
1499894424540917,0.166016,-0.974121,0.171875
1499894424552929,0.166016,-0.980469,0.174805
1499894424574937,0.167969,-0.97168,0.168457
1499894424597935,0.16748,-0.973633,0.168457
1499894424612922,0.167969,-0.978027,0.165527
1499894424634924,0.169922,-0.980469,0.168457
1499894424657926,0.170898,-0.979492,0.169922
1499894424672929,0.168457,-0.968262,0.175781
1499894424694970,0.164063,-0.978516,0.169434
1499894424717989,0.166504,-0.987305,0.166992
1499894424733965,0.164063,-0.982422,0.169922
1499894424754931,0.166992,-0.972656,0.171387
1499894424777934,0.161621,-0.967285,0.177246
1499894424793936,0.167969,-0.974121,0.17627
1499894424814937,0.170898,-0.977539,0.166504
1499894424837939,0.16748,-0.975586,0.160156
1499894424853936,0.167969,-0.976074,0.175781
1499894424874941,0.163574,-0.979004,0.179199
1499894424898944,0.167969,-0.973633,0.175293
1499894424919946,0.166992,-0.974121,0.174805
1499894424934944,0.168457,-0.976074,0.16748
1499894424957963,0.17041,-0.978516,0.170898
1499894424973944,0.172363,-0.977539,0.168945
1499894424995006,0.166016,-0.975098,0.175293
1499894425017998,0.166992,-0.974121,0.175293
1499894425033950,0.17334,-0.978516,0.166016
1499894425054948,0.167969,-0.983887,0.167969
1499894425077966,0.170898,-0.974609,0.167969
1499894425095951,0.170898,-0.975098,0.164551
1499894425114971,0.166992,-0.974609,0.168945
1499894425137952,0.165527,-0.978027,0.175293
1499894425155953,0.17334,-0.975098,0.171387
1499894425177975,0.173828,-0.976074,0.176758
1499894425197981,0.173828,-0.972656,0.167969
1499894425215956,0.174805,-0.979492,0.171387
1499894425234958,0.17627,-0.975098,0.165527
1499894425257962,0.173828,-0.978027,0.170898
1499894425275959,0.171875,-0.973633,0.165039
1499894425295024,0.172852,-0.96875,0.165527
1499894425317988,0.170898,-0.981934,0.166504
1499894425334971,0.165039,-0.979492,0.17334
1499894425354978,0.171387,-0.975586,0.172852
1499894425377969,0.174316,-0.974609,0.17334
1499894425395971,0.168945,-0.978516,0.168945
1499894425414972,0.172363,-0.978516,0.166504
1499894425437970,0.166504,-0.979492,0.174805
1499894425455971,0.164551,-0.972656,0.171387
1499894425474972,0.169434,-0.973145,0.169922
1499894425497983,0.17041,-0.973145,0.176758
1499894425515979,0.171875,-0.974609,0.172852
1499894425534999,0.17334,-0.97168,0.166016
1499894425557983,0.169922,-0.973145,0.168457
1499894425574998,0.166992,-0.974609,0.167969
1499894425594994,0.168945,-0.979492,0.171875
1499894425617980,0.17041,-0.972656,0.16748
1499894425634991,0.164551,-0.977051,0.16748
1499894425655987,0.166992,-0.975586,0.166016
1499894425678005,0.16748,-0.976074,0.166016
1499894425702984,0.168457,-0.972656,0.168457
1499894425715988,0.168945,-0.981934,0.166504
1499894425737988,0.169922,-0.980469,0.178223
1499894425755989,0.170898,-0.974609,0.174805
1499894425775993,0.17334,-0.976563,0.166992
1499894425797993,0.173828,-0.986816,0.17334
1499894425815012,0.172363,-0.976074,0.175293
1499894425837993,0.17334,-0.967285,0.166504
1499894425859001,0.177734,-0.977539,0.169434
1499894425875016,0.172852,-0.97998,0.168945
1499894425896036,0.172852,-0.974121,0.169922
1499894425918042,0.17041,-0.975098,0.172852
1499894425935009,0.172852,-0.975586,0.169434
1499894425957006,0.174805,-0.976074,0.166016
1499894425978002,0.171387,-0.978027,0.17041
1499894425996009,0.171875,-0.974609,0.166992
1499894426018004,0.172363,-0.970215,0.171875
1499894426038017,0.17041,-0.976074,0.169922
1499894426055006,0.164551,-0.978027,0.174316
1499894426078021,0.165039,-0.975586,0.174805
1499894426098016,0.169922,-0.978027,0.173828
1499894426115013,0.17627,-0.978027,0.171387
1499894426138010,0.17041,-0.973145,0.17334
1499894426158019,0.17627,-0.970703,0.169922
1499894426175031,0.178223,-0.976563,0.169434
1499894426198045,0.177246,-0.974609,0.169434
1499894426218027,0.17041,-0.968262,0.168945
1499894426236016,0.169922,-0.967773,0.175781
1499894426258017,0.170898,-0.97998,0.169922
1499894426286022,0.168945,-0.979492,0.176758
1499894426295021,0.169922,-0.98291,0.174316
1499894426318022,0.169434,-0.975098,0.172363
1499894426338043,0.170898,-0.969727,0.172852
1499894426355023,0.164551,-0.973633,0.168945
1499894426385036,0.166992,-0.976563,0.17041
1499894426397062,0.169434,-0.976563,0.173828
1499894426415047,0.169922,-0.970215,0.177246
1499894426438027,0.16748,-0.968262,0.172363
1499894426457089,0.168457,-0.977051,0.166992
1499894426475029,0.17041,-0.98291,0.162598
1499894426498031,0.16748,-0.975098,0.169434
1499894426519035,0.171387,-0.974121,0.173828
1499894426535036,0.168457,-0.974121,0.169922
1499894426558047,0.169922,-0.976074,0.172363
1499894426585037,0.166992,-0.981445,0.169434
1499894426595057,0.169434,-0.977051,0.168457
1499894426618039,0.172363,-0.973633,0.172363
1499894426640039,0.16748,-0.973633,0.169434
1499894426655041,0.170898,-0.979492,0.169922
1499894426678042,0.178711,-0.979492,0.169922
1499894426699042,0.175781,-0.973145,0.171387
1499894426715044,0.175781,-0.976563,0.168457
1499894426738045,0.181152,-0.976074,0.165039
1499894426759047,0.175781,-0.975098,0.171875
1499894426775068,0.174316,-0.97168,0.172363
1499894426798052,0.178711,-0.972168,0.181641
1499894426819061,0.177246,-0.97168,0.180664
1499894426843083,0.171387,-0.978027,0.171875
1499894426858055,0.170898,-0.972168,0.171875
1499894426879055,0.166992,-0.979004,0.166992
1499894426895056,0.171387,-0.973633,0.181641
1499894426918056,0.172363,-0.974609,0.17334
1499894426939056,0.170898,-0.974609,0.177734
1499894426955060,0.17334,-0.972168,0.170898
1499894426978079,0.172852,-0.972656,0.171875
1499894427000079,0.169922,-0.980469,0.165039
1499894427015061,0.169922,-0.975098,0.17334
1499894427038072,0.175781,-0.972656,0.17334
1499894427060064,0.177246,-0.96875,0.174805
1499894427075079,0.172363,-0.974121,0.168945
1499894427097069,0.174316,-0.975586,0.17627
1499894427120070,0.17041,-0.972168,0.17627
1499894427141072,0.174316,-0.969727,0.172363
1499894427157086,0.17334,-0.972656,0.169434
1499894427180071,0.170898,-0.969238,0.173828
1499894427201073,0.166504,-0.979004,0.166016
1499894427217073,0.173828,-0.979492,0.165527
1499894427240075,0.173828,-0.97998,0.16748
1499894427261094,0.17041,-0.976563,0.179688
1499894427277075,0.168457,-0.96582,0.172363
1499894427300091,0.164063,-0.972168,0.168945
1499894427321078,0.17041,-0.977051,0.174316
1499894427337083,0.169922,-0.97168,0.173828
1499894427360088,0.171387,-0.974609,0.169434
1499894427380104,0.168945,-0.984863,0.175293
1499894427397087,0.167969,-0.980957,0.17041
1499894427420083,0.166016,-0.970215,0.168457
1499894427441118,0.168457,-0.970215,0.16748
1499894427457092,0.168457,-0.980469,0.169922
1499894427480088,0.175293,-0.983398,0.166504
1499894427502089,0.168945,-0.966797,0.167969
1499894427517092,0.166016,-0.969727,0.16748
1499894427540091,0.169922,-0.978516,0.169922
1499894427561102,0.172363,-0.975098,0.174316
1499894427577093,0.167969,-0.973145,0.172363
1499894427600095,0.174805,-0.975586,0.171387
1499894427621099,0.168945,-0.974609,0.173828
1499894427637098,0.176758,-0.975098,0.17334
1499894427660098,0.182129,-0.979004,0.174805
1499894427681100,0.178711,-0.978027,0.173828
1499894427697104,0.177246,-0.972656,0.172363
1499894427720102,0.178711,-0.975098,0.168945
1499894427741124,0.175293,-0.984863,0.170898
1499894427757108,0.180176,-0.974121,0.180176
1499894427779104,0.173828,-0.966309,0.175293
1499894427801107,0.173828,-0.969727,0.178223
1499894427817107,0.174316,-0.984863,0.166016
1499894427840109,0.170898,-0.979004,0.175781
1499894427861121,0.17627,-0.970215,0.171875
1499894427885127,0.178223,-0.975098,0.175781
1499894427899115,0.171387,-0.974609,0.173828
