timestamp,x,y,z
1499894362288784,0.15332,-1.01563,0.149902
1499894362305775,0.162598,-0.969727,0.124512
1499894362327776,0.131836,-1.01074,0.12207
1499894362348778,0.150391,-0.986816,0.138184
1499894362365780,0.123535,-0.987305,0.154297
1499894362388780,0.14502,-0.978027,0.148926
1499894362408782,0.124512,-1.00732,0.132813
1499894362425782,0.147949,-1.00781,0.123535
1499894362447784,0.137695,-1.00439,0.150391
1499894362468791,0.132324,-0.991211,0.178711
1499894362485785,0.126465,-0.942383,0.156738
1499894362507787,0.12793,-0.944824,0.136719
1499894362531789,0.152344,-0.997559,0.146973
1499894362545790,0.131348,-0.997559,0.17627
1499894362567790,0.127441,-0.95459,0.175293
1499894362590792,0.133301,-0.955078,0.181152
1499894362604794,0.133789,-0.961914,0.169434
1499894362627794,0.129395,-0.986328,0.159668
1499894362649826,0.136719,-0.993164,0.159668
1499894362664796,0.133789,-0.986328,0.169922
1499894362687801,0.131836,-0.974609,0.171875
1499894362711800,0.141113,-0.980469,0.165039
1499894362724800,0.140137,-0.992188,0.161621
1499894362747807,0.137207,-0.99707,0.151367
1499894362770802,0.137207,-0.986816,0.151367
1499894362784810,0.131348,-0.975098,0.152832
1499894362807805,0.13916,-0.993164,0.157715
1499894362829808,0.135742,-0.987793,0.160156
1499894362844806,0.138184,-0.985352,0.160645
1499894362867807,0.135742,-0.979492,0.150879
1499894362890809,0.142578,-0.98877,0.152344
1499894362904811,0.137695,-0.987793,0.170898
1499894362927812,0.132813,-0.976563,0.165527
1499894362950814,0.138184,-0.982422,0.159668
1499894362964813,0.14209,-0.984863,0.163574
1499894362987815,0.140625,-0.980957,0.157227
1499894363010815,0.13916,-0.981934,0.165527
1499894363024835,0.140625,-0.993164,0.166504
1499894363047821,0.135742,-0.986816,0.161133
1499894363069840,0.136719,-0.979004,0.154785
1499894363091826,0.134766,-0.981445,0.161621
1499894363107835,0.132324,-0.975586,0.15332
1499894363130823,0.139648,-0.985352,0.161621
1499894363151826,0.138672,-0.987793,0.15918
1499894363167825,0.141602,-0.980957,0.15332
1499894363189831,0.143555,-0.986328,0.153809
1499894363211828,0.142578,-0.989746,0.168945
1499894363227848,0.140137,-0.990234,0.162109
1499894363250832,0.146973,-0.981934,0.160645
1499894363270851,0.145508,-0.982422,0.158691
1499894363287832,0.140625,-0.991699,0.155273
1499894363310839,0.143066,-0.986328,0.155273
1499894363331868,0.141602,-0.978516,0.160645
1499894363347849,0.14502,-0.977051,0.157715
1499894363369836,0.152344,-0.990234,0.162109
1499894363391850,0.141602,-0.987305,0.166992
1499894363407839,0.147949,-0.986816,0.162598
1499894363429860,0.142578,-0.98291,0.15625
1499894363450841,0.14502,-0.985352,0.158203
1499894363467846,0.140137,-0.98291,0.159668
1499894363489884,0.137695,-0.986328,0.15918
1499894363512845,0.141113,-0.983398,0.154297
1499894363527846,0.138672,-0.980957,0.158203
1499894363549887,0.146484,-0.979004,0.149902
1499894363572848,0.147461,-0.989746,0.160156
1499894363587849,0.141113,-0.990234,0.162109
1499894363610857,0.139648,-0.983887,0.155762
1499894363632854,0.143066,-0.986328,0.161133
1499894363646857,0.14502,-0.98291,0.153809
1499894363675870,0.14502,-0.979004,0.154297
1499894363692859,0.149902,-0.982422,0.150391
1499894363706867,0.148438,-0.977539,0.157715
1499894363729861,0.150879,-0.97998,0.15625
1499894363752859,0.147461,-0.97998,0.15332
1499894363766863,0.144043,-0.983887,0.152832
1499894363789882,0.145508,-0.977539,0.157227
1499894363812862,0.141602,-0.97998,0.155762
1499894363826863,0.144531,-0.987793,0.163086
1499894363850871,0.143555,-0.987793,0.158203
1499894363872866,0.143066,-0.978027,0.154297
1499894363886867,0.147949,-0.988281,0.151367
1499894363910869,0.149902,-0.990234,0.148926
1499894363932873,0.147461,-0.978027,0.15332
1499894363946892,0.142578,-0.981934,0.158691
1499894363969872,0.145996,-0.977051,0.161621
1499894363992873,0.144531,-0.984375,0.150879
1499894364013873,0.150879,-0.983398,0.157715
1499894364030879,0.144043,-0.982422,0.152344
1499894364059918,0.145996,-0.973145,0.157227
1499894364073897,0.145996,-0.980957,0.158203
1499894364089900,0.144531,-0.984863,0.157227
1499894364112880,0.145508,-0.989258,0.148438
1499894364133886,0.144531,-0.984375,0.150391
1499894364150882,0.150391,-0.984375,0.149902
1499894364172902,0.145996,-0.983887,0.155762
1499894364193944,0.146973,-0.982422,0.158691
1499894364210886,0.148926,-0.980469,0.151367
1499894364232894,0.152832,-0.988281,0.157715
1499894364253927,0.155273,-0.98291,0.154297
1499894364269888,0.155762,-0.985352,0.158203
1499894364292896,0.149414,-0.98584,0.15918
1499894364313891,0.155273,-0.978516,0.159668
1499894364329931,0.153809,-0.989258,0.156738
1499894364352912,0.148438,-0.987305,0.154297
1499894364373916,0.151855,-0.976563,0.145508
1499894364389927,0.151855,-0.983887,0.152344
1499894364412897,0.150391,-0.988281,0.15332
1499894364433898,0.149902,-0.987305,0.155762
1499894364449910,0.152832,-0.979492,0.151855
1499894364472900,0.151855,-0.987793,0.154297
1499894364494904,0.14502,-0.987793,0.15918
1499894364510920,0.146973,-0.98291,0.152832
1499894364533908,0.146973,-0.977051,0.148438
1499894364554969,0.151855,-0.983398,0.150879
1499894364569909,0.146973,-0.996094,0.146484
1499894364592908,0.15625,-0.982422,0.163574
1499894364614911,0.149902,-0.982422,0.15332
1499894364637911,0.149902,-0.978516,0.159668
1499894364652916,0.150879,-0.98584,0.162598
1499894364682913,0.150879,-0.987793,0.151367
1499894364689914,0.149414,-0.980957,0.155762
1499894364712914,0.15332,-0.975098,0.16748
1499894364735921,0.149414,-0.98291,0.151855
1499894364749923,0.150879,-0.984863,0.151855
1499894364772938,0.150879,-0.97998,0.15625
1499894364794929,0.150879,-0.974121,0.157227
1499894364810925,0.151855,-0.98291,0.15625
1499894364832923,0.148926,-0.983398,0.151367
1499894364854928,0.143555,-0.987793,0.151855
1499894364869944,0.146484,-0.986816,0.147949
1499894364893927,0.152832,-0.978027,0.152344
1499894364914928,0.152832,-0.981934,0.157715
1499894364929928,0.149902,-0.983398,0.161621
1499894364952936,0.148438,-0.984375,0.158203
1499894364974929,0.149902,-0.98291,0.154785
1499894364995972,0.15332,-0.979004,0.161133
1499894365012932,0.155762,-0.977051,0.161621
1499894365034935,0.149414,-0.981934,0.164063
1499894365056000,0.146973,-0.986816,0.14502
1499894365072937,0.149414,-0.987305,0.149414
1499894365094940,0.153809,-0.974121,0.15332
1499894365116950,0.147949,-0.973633,0.159668
1499894365133004,0.149414,-0.98291,0.155762
1499894365154945,0.150391,-0.989746,0.152832
1499894365175940,0.145508,-0.984863,0.157715
1499894365192942,0.148438,-0.979004,0.15918
1499894365214944,0.148438,-0.97998,0.160645
1499894365237945,0.151855,-0.98584,0.157715
1499894365252952,0.153809,-0.990723,0.151367
1499894365274946,0.164063,-0.984863,0.151367
1499894365296002,0.159668,-0.977051,0.156738
1499894365312949,0.161133,-0.98877,0.157715
1499894365335955,0.157227,-0.98291,0.154297
1499894365355954,0.160156,-0.987305,0.155762
1499894365372953,0.155273,-0.979004,0.158203
1499894365394959,0.153809,-0.975098,0.15918
1499894365417975,0.155762,-0.976563,0.155762
1499894365431956,0.155273,-0.984863,0.154297
1499894365454958,0.15625,-0.988281,0.155273
1499894365477979,0.157227,-0.979004,0.154785
1499894365492960,0.156738,-0.981934,0.152832
1499894365514960,0.15332,-0.98584,0.163086
1499894365537963,0.153809,-0.984863,0.150879
1499894365551963,0.155762,-0.980469,0.155762
1499894365574966,0.155273,-0.980469,0.150879
1499894365597966,0.157227,-0.98291,0.158691
1499894365611969,0.15918,-0.978027,0.158203
1499894365634968,0.152832,-0.978027,0.161621
1499894365657974,0.153809,-0.986328,0.15918
1499894365671972,0.157227,-0.98291,0.155762
1499894365694976,0.157227,-0.979004,0.161133
1499894365717975,0.162598,-0.980469,0.162109
1499894365731973,0.163086,-0.977051,0.150879
1499894365754975,0.159668,-0.978027,0.15625
1499894365777978,0.160645,-0.983887,0.154785
1499894365791983,0.160156,-0.981934,0.151367
1499894365814979,0.154785,-0.975098,0.154297
1499894365837980,0.150391,-0.97998,0.163574
1499894365859045,0.151855,-0.98877,0.154785
1499894365874984,0.15332,-0.987305,0.154297
1499894365897984,0.154297,-0.980469,0.150879
1499894365918990,0.157227,-0.974121,0.158691
1499894365935984,0.156738,-0.980469,0.15918
1499894365957992,0.154785,-0.982422,0.151367
1499894365978988,0.155762,-0.982422,0.163086
1499894365995004,0.152832,-0.979492,0.166992
1499894366017990,0.157715,-0.977539,0.155762
1499894366038992,0.154785,-0.980957,0.163574
1499894366055013,0.158691,-0.984375,0.155762
1499894366077999,0.15625,-0.986328,0.160645
1499894366098996,0.155762,-0.980469,0.161621
1499894366114998,0.152344,-0.973633,0.156738
1499894366137997,0.158203,-0.98291,0.150391
1499894366159038,0.157227,-0.988281,0.163086
1499894366174999,0.148438,-0.983398,0.165527
1499894366198018,0.15332,-0.98291,0.158691
1499894366219001,0.148438,-0.977539,0.153809
1499894366235003,0.158691,-0.980957,0.154785
1499894366264005,0.15918,-0.978516,0.160645
1499894366279009,0.162598,-0.981934,0.161621
1499894366295013,0.162109,-0.985352,0.155762
1499894366318028,0.164063,-0.980469,0.161621
1499894366340008,0.163574,-0.981445,0.151367
1499894366355032,0.166016,-0.98584,0.163086
1499894366378010,0.162109,-0.980469,0.15625
1499894366400018,0.15918,-0.983887,0.160156
1499894366415014,0.162109,-0.984863,0.161621
1499894366438015,0.160645,-0.98291,0.154785
1499894366460039,0.162109,-0.97998,0.156738
1499894366475016,0.163086,-0.983398,0.157715
1499894366505020,0.158203,-0.987305,0.157227
1499894366520018,0.156738,-0.984375,0.155762
1499894366535022,0.160645,-0.96875,0.157715
1499894366558038,0.157227,-0.98291,0.163086
1499894366580024,0.158691,-0.97998,0.152344
1499894366595041,0.161133,-0.981445,0.152832
1499894366618024,0.166992,-0.979492,0.166992
1499894366640027,0.158203,-0.98291,0.157227
1499894366655027,0.153809,-0.979492,0.160156
1499894366678028,0.159668,-0.986816,0.161133
1499894366701035,0.164551,-0.98291,0.160156
1499894366722034,0.157227,-0.978516,0.158203
1499894366738031,0.161133,-0.979492,0.158203
1499894366760051,0.165527,-0.98291,0.153809
1499894366775036,0.158691,-0.978027,0.15625
1499894366798041,0.159668,-0.976563,0.152832
1499894366820037,0.163574,-0.982422,0.156738
1499894366841099,0.159668,-0.98291,0.155273
1499894366859040,0.157227,-0.978516,0.154785
1499894366880041,0.155273,-0.980957,0.15332
1499894366901046,0.163086,-0.981934,0.168945
1499894366925045,0.165039,-0.981445,0.176758
1499894366940043,0.163574,-0.970215,0.177734
1499894366961050,0.165039,-0.973145,0.147461
1499894366978045,0.164551,-0.982422,0.135742
1499894367000055,0.162109,-0.996094,0.140625
1499894367021047,0.161133,-0.989746,0.15332
1499894367038066,0.154785,-0.976563,0.157715
1499894367060064,0.15625,-0.976074,0.161621
1499894367066050,0.15332,-0.980469,0.154297
1499894367088065,0.157715,-0.98877,0.146973
1499894367103100,0.163086,-0.990234,0.150391
1499894367126056,0.168457,-0.980957,0.160645
1499894367148117,0.161621,-0.972168,0.162598
1499894367163058,0.158691,-0.975098,0.169434
1499894367186068,0.160156,-0.989258,0.161621
1499894367208107,0.163574,-0.98291,0.152832
1499894367223070,0.16748,-0.979004,0.14502
1499894367246098,0.164551,-0.979492,0.148438
1499894367268064,0.162598,-0.988281,0.157715
1499894367283066,0.158203,-0.978027,0.154297
1499894367307064,0.166016,-0.982422,0.145996
1499894367328065,0.168945,-0.98877,0.152344
1499894367343087,0.162598,-0.984375,0.161133
1499894367367078,0.164551,-0.980469,0.163574
1499894367388074,0.162109,-0.978516,0.162109
1499894367404070,0.164551,-0.981934,0.152344
1499894367426071,0.168457,-0.989258,0.149902
1499894367448087,0.164551,-0.980469,0.150879
1499894367463077,0.163574,-0.977051,0.152344
1499894367486074,0.165527,-0.977051,0.154297
1499894367508092,0.165039,-0.983398,0.150879
1499894367523078,0.161621,-0.976074,0.161133
1499894367546094,0.17041,-0.983398,0.146484
1499894367568080,0.161133,-0.981934,0.158203
