timestamp,x,y,z
1499894951640487,0.0898438,-0.986816,0.21875
1499894951656487,0.0800781,-0.984375,0.220703
1499894951677489,0.0917969,-0.970215,0.229492
1499894951694494,0.100098,-0.933105,0.224121
1499894951716492,0.103516,-0.941895,0.217773
1499894951737492,0.0541992,-1.01465,0.214844
1499894951754493,0.0537109,-1.0376,0.225586
1499894951776494,0.0712891,-0.977539,0.237793
1499894951799499,0.0742188,-0.939453,0.232422
1499894951814498,0.0708008,-0.983887,0.222168
1499894951836498,0.0859375,-1.00244,0.234375
1499894951859500,0.0551758,-0.993652,0.233398
1499894951874504,0.0708008,-0.958008,0.248535
1499894951896502,0.0737305,-0.914551,0.243652
1499894951919507,0.0742188,-0.942383,0.223145
1499894951940508,0.0913086,-0.991211,0.233887
1499894951956505,0.0766602,-0.969727,0.225586
1499894951980506,0.0541992,-0.955078,0.243652
1499894951993516,0.0708008,-0.957031,0.234863
1499894952016509,0.0800781,-0.980469,0.22168
1499894952039531,0.0678711,-0.960938,0.214355
1499894952053510,0.0615234,-0.958496,0.230957
1499894952076512,0.0693359,-0.979492,0.245117
1499894952098579,0.081543,-0.993164,0.24707
1499894952113514,0.0708008,-0.95752,0.245117
1499894952136516,0.0800781,-0.955566,0.222656
1499894952158516,0.0737305,-0.974609,0.227539
1499894952173522,0.0664063,-0.970215,0.23291
1499894952204536,0.0688477,-0.965332,0.249512
1499894952219542,0.0742188,-0.95166,0.246582
1499894952233526,0.0742188,-0.963867,0.239258
1499894952256526,0.0722656,-0.973633,0.218262
1499894952279542,0.0629883,-0.987305,0.21582
1499894952300544,0.0649414,-0.976563,0.230957
1499894952316525,0.0625,-0.959961,0.241699
1499894952339526,0.0664063,-0.952637,0.246582
1499894952359534,0.0698242,-0.971191,0.232422
1499894952376529,0.0771484,-0.977539,0.224609
1499894952399531,0.0786133,-0.968262,0.221191
1499894952420534,0.0742188,-0.969727,0.233398
1499894952436532,0.0761719,-0.962402,0.233887
1499894952459533,0.0751953,-0.968262,0.244141
1499894952480534,0.0708008,-0.973145,0.236816
1499894952496536,0.0825195,-0.973633,0.228027
1499894952519537,0.081543,-0.963379,0.228027
1499894952539539,0.0834961,-0.97168,0.23584
1499894952556540,0.0751953,-0.975098,0.234375
1499894952579541,0.0703125,-0.971191,0.23584
1499894952599580,0.0678711,-0.963379,0.234863
1499894952616563,0.0786133,-0.961426,0.22998
1499894952639544,0.0737305,-0.969238,0.239258
1499894952660593,0.0786133,-0.971191,0.223145
1499894952676547,0.0786133,-0.976074,0.226074
1499894952699548,0.0737305,-0.978027,0.243164
1499894952721549,0.0712891,-0.965332,0.235352
1499894952736550,0.0693359,-0.968262,0.238281
1499894952759551,0.065918,-0.972168,0.226074
1499894952781552,0.0771484,-0.971191,0.229004
1499894952796553,0.0766602,-0.967285,0.226074
1499894952826555,0.0766602,-0.961914,0.229492
1499894952841555,0.0776367,-0.96875,0.230957
1499894952856560,0.0830078,-0.978516,0.228516
1499894952879558,0.0756836,-0.978027,0.234375
1499894952901559,0.0668945,-0.963379,0.230469
1499894952915560,0.0693359,-0.964844,0.223145
1499894952939566,0.074707,-0.971191,0.23584
1499894952961563,0.0756836,-0.974121,0.241211
1499894952976568,0.0742188,-0.973145,0.230469
1499894952999566,0.0742188,-0.966309,0.236328
1499894953021569,0.0795898,-0.965332,0.233887
1499894953035584,0.0722656,-0.96875,0.235352
1499894953059568,0.0693359,-0.966309,0.231445
1499894953081571,0.0654297,-0.968262,0.229492
1499894953095575,0.0722656,-0.969238,0.233398
1499894953118576,0.0654297,-0.971191,0.229492
1499894953141573,0.0668945,-0.969727,0.221191
1499894953162584,0.0688477,-0.96875,0.22998
1499894953179584,0.0708008,-0.969727,0.236816
1499894953201577,0.0751953,-0.973633,0.225098
1499894953223578,0.0703125,-0.972168,0.226074
1499894953224578,0.0751953,-0.972168,0.227539
1499894953244610,0.0727539,-0.966309,0.239258
1499894953266620,0.0732422,-0.967773,0.23291
1499894953284581,0.0771484,-0.965332,0.232422
1499894953304603,0.0751953,-0.976074,0.227539
1499894953326584,0.0766602,-0.966309,0.227051
1499894953344587,0.0791016,-0.966797,0.237305
1499894953364651,0.0786133,-0.966309,0.236328
1499894953386593,0.078125,-0.971191,0.23877
1499894953409632,0.0800781,-0.983398,0.224609
1499894953424593,0.078125,-0.975098,0.233398
1499894953446664,0.0756836,-0.963867,0.23291
1499894953469593,0.0737305,-0.965332,0.239746
1499894953484614,0.0766602,-0.966309,0.233398
1499894953506641,0.0751953,-0.968262,0.23291
1499894953532596,0.0751953,-0.967285,0.228027
1499894953544629,0.0742188,-0.967285,0.227539
1499894953566639,0.081543,-0.96875,0.233398
1499894953589602,0.0791016,-0.963379,0.238281
1499894953604658,0.078125,-0.968262,0.234375
1499894953634605,0.0756836,-0.970703,0.23291
1499894953658603,0.0693359,-0.972656,0.230957
1499894953664660,0.0708008,-0.975098,0.229004
1499894953686625,0.0727539,-0.970703,0.23291
1499894953709646,0.0756836,-0.973145,0.230469
1499894953727607,0.0820313,-0.967285,0.231445
1499894953746652,0.0761719,-0.96582,0.229492
1499894953769614,0.0791016,-0.964844,0.229004
1499894953784611,0.0751953,-0.969238,0.22998
1499894953806612,0.078125,-0.965332,0.231445
1499894953829613,0.0708008,-0.969238,0.232422
1499894953844625,0.0698242,-0.973145,0.235352
1499894953866636,0.0742188,-0.974121,0.233398
1499894953889637,0.0751953,-0.972168,0.235352
1499894953904617,0.0703125,-0.963379,0.231445
1499894953926637,0.0786133,-0.965332,0.22998
1499894953949621,0.0756836,-0.968262,0.236328
1499894953964635,0.074707,-0.966797,0.23877
1499894953986623,0.0727539,-0.968262,0.235352
1499894954009669,0.0751953,-0.968262,0.234863
1499894954024624,0.0688477,-0.96875,0.228027
1499894954046680,0.0727539,-0.975098,0.225098
1499894954069631,0.074707,-0.97168,0.227051
1499894954084627,0.0722656,-0.963867,0.235352
1499894954106695,0.074707,-0.966797,0.234863
1499894954129672,0.0737305,-0.96582,0.230957
1499894954147635,0.0708008,-0.974121,0.234863
1499894954167643,0.0712891,-0.96875,0.237793
1499894954189652,0.0688477,-0.966309,0.233887
1499894954204637,0.0761719,-0.972656,0.233887
1499894954226657,0.0756836,-0.96875,0.227051
1499894954252640,0.0761719,-0.970215,0.231934
1499894954265654,0.0810547,-0.972656,0.223633
1499894954286667,0.0795898,-0.971191,0.227051
1499894954309680,0.0786133,-0.969238,0.227051
1499894954325643,0.0776367,-0.963867,0.233398
1499894954346700,0.0742188,-0.971191,0.22998
1499894954369665,0.0766602,-0.966797,0.22998
1499894954385645,0.078125,-0.974121,0.225586
1499894954406701,0.074707,-0.974121,0.232422
1499894954429648,0.0756836,-0.966309,0.23291
1499894954445650,0.0737305,-0.967773,0.230469
1499894954466670,0.0771484,-0.962891,0.240723
1499894954489651,0.0805664,-0.964355,0.236816
1499894954507653,0.0761719,-0.972656,0.230957
1499894954526653,0.0786133,-0.970703,0.235352
1499894954557669,0.0791016,-0.970215,0.230469
1499894954565654,0.078125,-0.967773,0.230469
1499894954586663,0.0805664,-0.963867,0.22998
1499894954609672,0.0708008,-0.969238,0.234863
1499894954627658,0.0751953,-0.972656,0.234863
1499894954646675,0.074707,-0.97168,0.240234
1499894954669666,0.0795898,-0.969727,0.231445
1499894954687663,0.0791016,-0.967285,0.233398
1499894954706678,0.0756836,-0.967285,0.226563
1499894954729666,0.0717773,-0.969727,0.227051
1499894954747676,0.0791016,-0.965332,0.23291
1499894954766681,0.081543,-0.96582,0.23291
1499894954789669,0.0800781,-0.963867,0.234375
1499894954807671,0.0717773,-0.972656,0.22998
1499894954826672,0.0708008,-0.970215,0.233887
1499894954850674,0.0737305,-0.977539,0.223145
1499894954867675,0.0761719,-0.967773,0.230469
1499894954886676,0.0800781,-0.965332,0.231934
1499894954909691,0.0732422,-0.964844,0.237305
1499894954927677,0.0771484,-0.970215,0.235352
1499894954946678,0.0732422,-0.969238,0.23291
1499894954969680,0.0776367,-0.968262,0.228516
1499894954987680,0.0761719,-0.966797,0.233398
1499894955006695,0.0732422,-0.962402,0.233887
1499894955029682,0.0776367,-0.970703,0.228516
1499894955047685,0.0791016,-0.967285,0.22998
1499894955066700,0.0805664,-0.971191,0.232422
1499894955089687,0.0737305,-0.967773,0.23291
1499894955107687,0.0717773,-0.972168,0.237793
1499894955126689,0.0761719,-0.967773,0.235352
1499894955149689,0.0771484,-0.969238,0.238281
1499894955167691,0.0756836,-0.974609,0.228027
1499894955186692,0.0742188,-0.971191,0.230469
1499894955209694,0.0771484,-0.963379,0.233887
1499894955227695,0.0795898,-0.965332,0.235352
1499894955248696,0.078125,-0.967285,0.233887
1499894955269701,0.0839844,-0.968262,0.237305
1499894955287696,0.0830078,-0.974121,0.23291
1499894955308700,0.081543,-0.97168,0.234863
1499894955329699,0.0834961,-0.96875,0.239258
1499894955347716,0.0791016,-0.964844,0.239258
1499894955368705,0.0786133,-0.96582,0.234375
1499894955389703,0.0805664,-0.968262,0.23291
1499894955407705,0.0771484,-0.97168,0.231934
1499894955428707,0.0742188,-0.968262,0.234863
1499894955449722,0.0771484,-0.967773,0.233398
1499894955467707,0.078125,-0.966797,0.236328
1499894955488709,0.0776367,-0.969238,0.231934
1499894955509725,0.0771484,-0.973633,0.22998
1499894955527712,0.0830078,-0.969238,0.230469
1499894955550726,0.0766602,-0.964355,0.239258
1499894955569714,0.0683594,-0.969727,0.238281
1499894955587716,0.0761719,-0.969727,0.234375
1499894955609716,0.0800781,-0.970703,0.232422
1499894955629721,0.0820313,-0.967773,0.229004
1499894955647718,0.0756836,-0.970215,0.230469
1499894955669719,0.0742188,-0.964844,0.228027
1499894955689725,0.0800781,-0.962891,0.234863
1499894955707758,0.0820313,-0.963867,0.23291
1499894955729722,0.0756836,-0.967773,0.238281
1499894955750724,0.0756836,-0.969238,0.226074
1499894955767726,0.0761719,-0.974121,0.22998
1499894955789727,0.0756836,-0.975586,0.23291
1499894955810735,0.074707,-0.969727,0.23584
1499894955827732,0.074707,-0.966309,0.236328
1499894955849731,0.0766602,-0.96875,0.23877
1499894955869732,0.0766602,-0.974121,0.23584
1499894955887753,0.0761719,-0.973145,0.233887
1499894955909733,0.074707,-0.969238,0.233398
1499894955929734,0.0795898,-0.967285,0.238281
1499894955947771,0.0791016,-0.965332,0.23877
1499894955969737,0.0732422,-0.961914,0.236328
1499894955989741,0.0830078,-0.966309,0.233398
1499894956007777,0.0800781,-0.976074,0.228027
1499894956029740,0.081543,-0.967285,0.223633
1499894956050741,0.0756836,-0.964844,0.229492
1499894956067743,0.0722656,-0.965332,0.236328
1499894956089743,0.0756836,-0.971191,0.233887
1499894956109788,0.0727539,-0.962891,0.236816
1499894956127765,0.0800781,-0.970703,0.228516
1499894956149748,0.0795898,-0.971191,0.23291
1499894956170749,0.0727539,-0.96582,0.231934
1499894956193790,0.0805664,-0.970703,0.229004
1499894956209750,0.0810547,-0.981445,0.22998
1499894956230752,0.0844727,-0.967773,0.226563
1499894956247789,0.081543,-0.967285,0.235352
1499894956269754,0.0854492,-0.970215,0.229004
1499894956298782,0.0825195,-0.979004,0.234375
1499894956311802,0.078125,-0.969238,0.232422
1499894956329758,0.0795898,-0.964355,0.23291
1499894956350759,0.0786133,-0.967285,0.239746
1499894956371770,0.081543,-0.970703,0.230469
1499894956389767,0.0820313,-0.969727,0.231934
1499894956410766,0.078125,-0.970215,0.234863
1499894956431768,0.0805664,-0.976074,0.234375
1499894956449766,0.0820313,-0.973145,0.233887
1499894956470765,0.0825195,-0.964355,0.239258
1499894956491770,0.0795898,-0.966309,0.236328
1499894956509768,0.0751953,-0.966309,0.231445
1499894956532772,0.078125,-0.973633,0.228027
1499894956559813,0.078125,-0.967285,0.233887
1499894956569771,0.0830078,-0.966309,0.230957
1499894956592805,0.0791016,-0.970215,0.229492
1499894956611792,0.074707,-0.965332,0.231934
1499894956629801,0.0776367,-0.971191,0.231445
1499894956652777,0.0820313,-0.960938,0.231445
1499894956671789,0.0820313,-0.955566,0.231445
1499894956689778,0.0766602,-0.965332,0.234375
1499894956712814,0.0849609,-0.976563,0.236328
1499894956731781,0.0786133,-0.975586,0.234863
1499894956749784,0.081543,-0.970703,0.229004
1499894956772793,0.0800781,-0.963867,0.22998
1499894956791785,0.0776367,-0.970215,0.237305
1499894956809785,0.078125,-0.964355,0.232422
1499894956832788,0.0766602,-0.969727,0.23584
1499894956851801,0.0800781,-0.97168,0.228027
1499894956869789,0.0771484,-0.967285,0.23584
1499894956891799,0.0800781,-0.964355,0.230469
1499894956912858,0.0800781,-0.962402,0.239746
1499894956928801,0.078125,-0.967285,0.230957
1499894956951794,0.0805664,-0.965332,0.233398
1499894956972818,0.0810547,-0.971191,0.227539
1499894956988795,0.0776367,-0.97168,0.232422
1499894957011816,0.0761719,-0.971191,0.227539
1499894957032799,0.0737305,-0.96875,0.230469
1499894957048818,0.0751953,-0.959473,0.23584
1499894957071827,0.0893555,-0.962891,0.233398
1499894957092838,0.081543,-0.98291,0.240723
1499894957108818,0.0849609,-0.969238,0.232422
1499894957131821,0.078125,-0.962891,0.233398
1499894957152805,0.0786133,-0.974609,0.230469
1499894957168806,0.0869141,-0.97998,0.231445
1499894957191828,0.0849609,-0.963867,0.234375
1499894957212867,0.0854492,-0.960938,0.239746
1499894957228811,0.0844727,-0.963867,0.246582
1499894957251819,0.0854492,-0.969238,0.235352
1499894957272821,0.0908203,-0.96875,0.233887
1499894957288813,0.0839844,-0.961426,0.23877
1499894957311834,0.0800781,-0.95752,0.235352
1499894957333820,0.0786133,-0.96875,0.239746
1499894957350816,0.0761719,-0.967285,0.237793
1499894957371852,0.0756836,-0.970703,0.22998
1499894957392825,0.0820313,-0.980957,0.23877
1499894957408827,0.0795898,-0.968262,0.23584
1499894957431841,0.0810547,-0.967773,0.241211
1499894957454822,0.0791016,-0.973145,0.239258
1499894957468824,0.0805664,-0.964844,0.241211
1499894957491839,0.0869141,-0.962402,0.230957
1499894957514834,0.0878906,-0.961914,0.225098
1499894957528826,0.0966797,-0.959961,0.219727
1499894957551832,0.0888672,-0.96875,0.236816
1499894957573832,0.0849609,-0.983398,0.226563
1499894957588830,0.0849609,-0.983887,0.227539
