timestamp,x,y,z
1499895338713311,-0.0385742,-0.988281,0.171387
1499895338735313,-0.0380859,-0.986816,0.181641
1499895338757315,-0.0385742,-0.996094,0.176758
1499895338773314,-0.0371094,-0.995605,0.176758
1499895338801318,-0.0351563,-0.994629,0.179199
1499895338815318,-0.034668,-0.995117,0.166016
1499895338833320,-0.0410156,-0.996582,0.157715
1499895338863322,-0.0498047,-1.00146,0.183105
1499895338877321,-0.0366211,-0.992188,0.188965
1499895338893322,-0.0561523,-0.969238,0.193848
1499895338916323,-0.0478516,-0.965332,0.183594
1499895338936324,-0.0576172,-0.978516,0.178711
1499895338953326,-0.0473633,-0.999023,0.188965
1499895338975328,-0.0629883,-0.994629,0.185547
1499895338996329,-0.0512695,-0.984863,0.182617
1499895339013328,-0.0541992,-0.966797,0.179688
1499895339035329,-0.0517578,-0.980469,0.195801
1499895339056346,-0.0488281,-0.986328,0.190918
1499895339073336,-0.059082,-0.968262,0.189941
1499895339103337,-0.0522461,-0.966797,0.187988
1499895339119335,-0.0537109,-0.974121,0.179688
1499895339133337,-0.0600586,-1,0.179199
1499895339155340,-0.0585938,-0.989746,0.180176
1499895339176364,-0.0615234,-0.986328,0.19043
1499895339205356,-0.0634766,-0.980957,0.179199
1499895339216341,-0.0537109,-0.977539,0.178711
1499895339238345,-0.0561523,-0.992188,0.181152
1499895339258343,-0.0654297,-0.996094,0.1875
1499895339275344,-0.0610352,-0.985352,0.186523
1499895339298345,-0.0517578,-0.98291,0.180176
1499895339318366,-0.0527344,-0.984863,0.181641
1499895339335348,-0.0454102,-0.969238,0.187012
1499895339358349,-0.0522461,-0.982422,0.182617
1499895339378371,-0.0473633,-0.983887,0.185059
1499895339396350,-0.0488281,-0.988281,0.183105
1499895339418352,-0.0493164,-0.98584,0.188477
1499895339438360,-0.0488281,-0.979004,0.192383
1499895339455354,-0.0522461,-0.986816,0.180664
1499895339478390,-0.0537109,-0.985352,0.19043
1499895339498358,-0.0507813,-0.981934,0.185059
1499895339515383,-0.0522461,-0.977539,0.185547
1499895339537359,-0.0493164,-0.974121,0.1875
1499895339558364,-0.0483398,-0.993164,0.19043
1499895339575360,-0.0493164,-0.981934,0.196289
1499895339597363,-0.0541992,-0.977051,0.1875
1499895339618366,-0.0493164,-0.986328,0.188965
1499895339635365,-0.0473633,-0.986816,0.18457
1499895339657369,-0.0522461,-0.984375,0.191406
1499895339678411,-0.0532227,-0.97998,0.186035
1499895339695388,-0.0522461,-0.980957,0.188965
1499895339717370,-0.0527344,-0.987793,0.177246
1499895339738387,-0.0512695,-0.97998,0.188477
1499895339755406,-0.0493164,-0.98291,0.191895
1499895339777374,-0.0537109,-0.986328,0.194336
1499895339798373,-0.0546875,-0.988281,0.187012
1499895339815378,-0.0541992,-0.980469,0.187012
1499895339837376,-0.0541992,-0.98291,0.185059
1499895339858440,-0.0493164,-0.979492,0.186035
1499895339875410,-0.050293,-0.981445,0.181152
1499895339905414,-0.0493164,-0.984375,0.187012
1499895339918401,-0.0419922,-0.98584,0.186035
1499895339935381,-0.0454102,-0.984375,0.188965
1499895339957383,-0.0488281,-0.982422,0.182129
1499895339978435,-0.0473633,-0.980469,0.181641
1499895339995389,-0.0541992,-0.980957,0.185059
1499895340017387,-0.0488281,-0.984863,0.186035
1499895340038393,-0.050293,-0.990723,0.183105
1499895340055433,-0.0541992,-0.98584,0.191406
1499895340077392,-0.0527344,-0.981445,0.186035
1499895340098393,-0.0517578,-0.987305,0.1875
1499895340115400,-0.0532227,-0.989258,0.182617
1499895340137394,-0.0517578,-0.986816,0.175781
1499895340159395,-0.0532227,-0.97998,0.182617
1499895340174400,-0.046875,-0.98291,0.191406
1499895340197397,-0.0537109,-0.97998,0.188477
1499895340220399,-0.0478516,-0.989258,0.186523
1499895340235421,-0.0493164,-0.989258,0.186523
1499895340257406,-0.0463867,-0.979492,0.188477
1499895340280406,-0.0507813,-0.981445,0.185547
1499895340295438,-0.0493164,-0.980469,0.188965
1499895340317404,-0.0556641,-0.983887,0.189453
1499895340340407,-0.0493164,-0.985352,0.189453
1499895340354406,-0.0507813,-0.990234,0.188965
1499895340377409,-0.0498047,-0.980469,0.187988
1499895340399408,-0.0507813,-0.978516,0.190918
1499895340414415,-0.0493164,-0.983398,0.189453
1499895340437411,-0.0488281,-0.983398,0.182617
1499895340460412,-0.0488281,-0.985352,0.187012
1499895340474413,-0.0561523,-0.982422,0.185547
1499895340497415,-0.0537109,-0.986816,0.186523
1499895340519452,-0.0478516,-0.980469,0.185059
1499895340534433,-0.0493164,-0.978516,0.180664
1499895340557423,-0.0478516,-0.980469,0.18457
1499895340580422,-0.0517578,-0.989258,0.184082
1499895340594421,-0.0493164,-0.986816,0.183594
1499895340617422,-0.0532227,-0.985352,0.180176
1499895340639423,-0.0507813,-0.981445,0.189453
1499895340661461,-0.0532227,-0.988281,0.189453
1499895340677426,-0.050293,-0.97998,0.188477
1499895340699426,-0.0527344,-0.983398,0.185547
1499895340721449,-0.0449219,-0.983887,0.184082
1499895340737428,-0.0429688,-0.984863,0.183594
1499895340760431,-0.0498047,-0.981934,0.186035
1499895340781431,-0.0449219,-0.984375,0.187988
1499895340797431,-0.0507813,-0.981445,0.190918
1499895340819466,-0.0498047,-0.98291,0.196289
1499895340841434,-0.046875,-0.981934,0.192383
1499895340857439,-0.0478516,-0.983398,0.188477
1499895340880458,-0.046875,-0.981445,0.183105
1499895340908499,-0.050293,-0.98291,0.187988
1499895340917438,-0.0488281,-0.987305,0.187988
1499895340939440,-0.046875,-0.984863,0.189941
1499895340961493,-0.0546875,-0.981445,0.189941
1499895340977444,-0.0546875,-0.983887,0.181152
1499895340999444,-0.0483398,-0.98877,0.179688
1499895341021444,-0.0498047,-0.98877,0.181641
1499895341037445,-0.046875,-0.980957,0.190918
1499895341059485,-0.0493164,-0.984375,0.188965
1499895341081450,-0.0454102,-0.987305,0.187988
1499895341097449,-0.0454102,-0.985352,0.19043
1499895341120472,-0.0439453,-0.979004,0.186523
1499895341142452,-0.0444336,-0.97998,0.187012
1499895341157463,-0.0483398,-0.97998,0.185059
1499895341193486,-0.050293,-0.98584,0.191406
1499895341202455,-0.0488281,-0.989258,0.196777
1499895341217456,-0.0478516,-0.979492,0.187988
1499895341240457,-0.0483398,-0.986328,0.1875
1499895341262468,-0.050293,-0.984863,0.191406
1499895341276497,-0.0512695,-0.981934,0.187012
1499895341300461,-0.050293,-0.97998,0.189941
1499895341322462,-0.0498047,-0.978516,0.183594
1499895341336485,-0.0498047,-0.980469,0.189941
1499895341360466,-0.0517578,-0.984375,0.187988
1499895341382467,-0.0512695,-0.983887,0.183105
1499895341396471,-0.0512695,-0.980469,0.188965
1499895341426491,-0.0458984,-0.983887,0.185059
1499895341442469,-0.0517578,-0.987793,0.185059
1499895341456476,-0.050293,-0.98584,0.184082
1499895341480471,-0.0512695,-0.976074,0.185547
1499895341502472,-0.0493164,-0.983887,0.185547
1499895341517474,-0.0527344,-0.986328,0.188477
1499895341539479,-0.0532227,-0.978516,0.182617
1499895341562476,-0.0498047,-0.985352,0.181152
1499895341576482,-0.0444336,-0.977539,0.19043
1499895341600479,-0.0478516,-0.979004,0.190918
1499895341622479,-0.0458984,-0.983398,0.190918
1499895341643485,-0.0449219,-0.98877,0.191895
1499895341659522,-0.0415039,-0.98584,0.187988
1499895341682483,-0.0449219,-0.978516,0.187012
1499895341703543,-0.0454102,-0.987793,0.1875
1499895341720488,-0.0463867,-0.986328,0.187012
1499895341742487,-0.0444336,-0.977539,0.185059
1499895341763490,-0.0517578,-0.980957,0.189453
1499895341780488,-0.0522461,-0.986816,0.188965
1499895341802500,-0.0512695,-0.983887,0.189453
1499895341823492,-0.0527344,-0.98291,0.186523
1499895341839492,-0.046875,-0.986816,0.191406
1499895341862495,-0.0532227,-0.977539,0.19043
1499895341883515,-0.0483398,-0.983887,0.184082
1499895341900497,-0.0444336,-0.991699,0.186035
1499895341922506,-0.0488281,-0.980957,0.188477
1499895341943498,-0.0473633,-0.97998,0.188477
1499895341959536,-0.0439453,-0.98584,0.185547
1499895341982500,-0.0454102,-0.979492,0.188477
1499895342003521,-0.0444336,-0.981445,0.187012
1499895342019551,-0.0419922,-0.983887,0.186523
1499895342042503,-0.0449219,-0.978027,0.188965
1499895342064505,-0.0429688,-0.979004,0.195801
1499895342079506,-0.0488281,-0.977539,0.183594
1499895342102508,-0.050293,-0.982422,0.187012
1499895342124508,-0.0429688,-0.983398,0.182617
1499895342139510,-0.0483398,-0.986328,0.185547
1499895342162512,-0.0517578,-0.981445,0.184082
1499895342184527,-0.0483398,-0.979492,0.187988
1499895342199513,-0.046875,-0.98877,0.1875
1499895342222420,-0.0454102,-0.990723,0.185547
1499895342244448,-0.0498047,-0.978027,0.178223
1499895342259422,-0.0527344,-0.984863,0.190918
1499895342282423,-0.0478516,-0.97998,0.182617
1499895342304464,-0.0512695,-0.985352,0.186523
1499895342319443,-0.0507813,-0.984375,0.181641
1499895342342427,-0.0478516,-0.980469,0.181641
1499895342365454,-0.0483398,-0.986328,0.178711
1499895342379440,-0.0537109,-0.98877,0.182617
1499895342402451,-0.0493164,-0.985352,0.186035
1499895342424433,-0.0507813,-0.987305,0.184082
1499895342439438,-0.050293,-0.990723,0.180664
1499895342462434,-0.0507813,-0.984863,0.181641
1499895342484435,-0.0478516,-0.977539,0.182617
1499895342499436,-0.0483398,-0.982422,0.1875
1499895342522437,-0.0478516,-0.986328,0.185547
1499895342544488,-0.0458984,-0.983887,0.181152
1499895342566503,-0.0449219,-0.990234,0.181152
1499895342582441,-0.0473633,-0.987305,0.183594
1499895342604459,-0.0498047,-0.97998,0.178223
1499895342626503,-0.046875,-0.98291,0.190918
1499895342642444,-0.0507813,-0.98584,0.1875
1499895342664487,-0.0488281,-0.98291,0.186523
1499895342685451,-0.043457,-0.97998,0.184082
1499895342708506,-0.0488281,-0.986816,0.179199
1499895342724466,-0.046875,-0.984375,0.181641
1499895342745491,-0.0419922,-0.982422,0.186523
1499895342762452,-0.050293,-0.983887,0.185059
1499895342784456,-0.0488281,-0.984375,0.194336
1499895342805515,-0.0478516,-0.985352,0.196289
1499895342822455,-0.046875,-0.987305,0.179688
1499895342845460,-0.0415039,-0.986328,0.184082
1499895342866459,-0.0439453,-0.979492,0.186035
1499895342882458,-0.0410156,-0.982422,0.187988
1499895342904468,-0.0385742,-0.982422,0.183105
1499895342926498,-0.0429688,-0.983887,0.183105
1499895342942461,-0.0424805,-0.981445,0.188477
1499895342965465,-0.046875,-0.980957,0.191406
1499895342986482,-0.0483398,-0.980957,0.182617
1499895343002465,-0.0507813,-0.987305,0.182617
1499895343024487,-0.0522461,-0.98877,0.180176
1499895343047469,-0.050293,-0.983887,0.1875
1499895343062470,-0.0512695,-0.977051,0.182617
1499895343084471,-0.0512695,-0.983398,0.184082
1499895343107472,-0.0488281,-0.985352,0.189941
1499895343122472,-0.0483398,-0.978027,0.184082
1499895343144522,-0.0498047,-0.97998,0.187012
1499895343167479,-0.0546875,-0.98291,0.190918
1499895343181478,-0.0493164,-0.986816,0.1875
1499895343204510,-0.0473633,-0.980957,0.183594
1499895343227483,-0.0478516,-0.975098,0.185059
1499895343241479,-0.0473633,-0.992676,0.182617
1499895343264535,-0.0478516,-0.989258,0.17627
1499895343287481,-0.0473633,-0.98291,0.187012
1499895343301484,-0.0522461,-0.981445,0.187988
1499895343324488,-0.0537109,-0.982422,0.192871
1499895343347486,-0.050293,-0.983887,0.195801
1499895343368497,-0.0478516,-0.984375,0.184082
1499895343384490,-0.0483398,-0.987305,0.190918
1499895343407506,-0.0498047,-0.981934,0.188477
1499895343421490,-0.0473633,-0.982422,0.18457
1499895343445491,-0.0478516,-0.990723,0.186523
1499895343467493,-0.0449219,-0.984863,0.192871
1499895343481496,-0.0449219,-0.984863,0.197266
1499895343504564,-0.0385742,-0.987793,0.189453
1499895343527497,-0.0483398,-0.984375,0.188477
1499895343548500,-0.0454102,-0.977539,0.19043
1499895343564506,-0.0410156,-0.977539,0.189941
1499895343587498,-0.0449219,-0.986816,0.194336
1499895343608521,-0.0449219,-0.987305,0.189941
1499895343624503,-0.0439453,-0.981934,0.1875
1499895343647503,-0.0493164,-0.990234,0.191406
1499895343668522,-0.0473633,-0.98291,0.199219
1499895343684509,-0.0522461,-0.978516,0.196289
1499895343707506,-0.0498047,-0.991211,0.187988
1499895343728523,-0.043457,-0.993164,0.197266
1499895343744515,-0.0449219,-0.983398,0.192383
1499895343767509,-0.0444336,-0.975586,0.1875
1499895343788512,-0.0444336,-0.983398,0.182617
1499895343804582,-0.0449219,-0.987305,0.186523
1499895343827516,-0.0410156,-0.98291,0.193848
1499895343848518,-0.0424805,-0.974609,0.194824
1499895343864520,-0.0483398,-0.979004,0.186035
1499895343887520,-0.0473633,-0.98291,0.187988
1499895343908556,-0.0478516,-0.988281,0.185547
1499895343924541,-0.0493164,-0.991211,0.184082
1499895343947520,-0.0458984,-0.975586,0.203125
1499895343969525,-0.050293,-0.980469,0.190918
1499895343984522,-0.0463867,-0.984375,0.195801
1499895344007524,-0.0454102,-0.983398,0.192383
1499895344029531,-0.0458984,-0.98584,0.185059
1499895344044527,-0.046875,-0.981445,0.186523
1499895344067527,-0.0473633,-0.978516,0.186523
1499895344095528,-0.0512695,-0.984863,0.190918
1499895344104533,-0.0493164,-0.980469,0.190918
1499895344127531,-0.0478516,-0.986328,0.186523
1499895344149543,-0.0478516,-0.983398,0.178711
1499895344164534,-0.0473633,-0.983398,0.184082
1499895344187534,-0.0517578,-0.981445,0.18457
