timestamp,x,y,z
1499893978376692,0.0166016,-1.01318,0.107422
1499893978399695,0.0175781,-1.01807,0.117676
1499893978414694,0.0273438,-1.02002,0.109375
1499893978436695,0.0209961,-0.998047,0.129395
1499893978459699,0.00488281,-1.02051,0.110352
1499893978480699,0.0410156,-1.01025,0.130859
1499893978496699,0.000488281,-0.974609,0.133789
1499893978519701,-0.0151367,-0.993652,0.112793
1499893978540702,0.0429688,-1.06836,0.121094
1499893978556711,0.012207,-1.00879,0.148438
1499893978579704,-0.00146484,-0.930176,0.133789
1499893978600705,0.0288086,-0.96582,0.135742
1499893978616706,0.0175781,-1.03369,0.149414
1499893978640708,0.019043,-1.00293,0.149902
1499893978660709,0.0151367,-0.974609,0.139648
1499893978676709,0.0078125,-0.980957,0.135742
1499893978699711,0.0131836,-0.983887,0.135254
1499893978720710,-0.00439453,-0.987305,0.154297
1499893978736713,-0.00244141,-1.0127,0.160645
1499893978759715,-0.00390625,-1.01221,0.160645
1499893978780717,0.0107422,-0.981445,0.149902
1499893978796720,0.0102539,-0.984375,0.146973
1499893978819718,0.0170898,-0.991699,0.152832
1499893978840720,0.0117188,-0.999512,0.159668
1499893978856720,0.00244141,-1.00635,0.158691
1499893978879722,0.0214844,-0.980957,0.152344
1499893978901722,0.0161133,-0.970703,0.15918
1499893978916725,0.0112305,-0.983398,0.140137
1499893978939725,0.019043,-1.02734,0.151367
1499893978961727,-0.00292969,-1.0083,0.158203
1499893978976726,0.00537109,-0.969727,0.162109
1499893978999730,0.0141602,-0.964844,0.161133
1499893979021730,0.0180664,-0.996582,0.145996
1499893979036731,0.0180664,-1.02393,0.158203
1499893979059732,0.00195313,-1.0083,0.166504
1499893979081735,0.00878906,-0.975586,0.162598
1499893979096734,0.015625,-0.973145,0.156738
1499893979119736,0.012207,-1.00732,0.144043
1499893979141737,0.0175781,-1.02344,0.14502
1499893979156737,0.00830078,-0.996582,0.143555
1499893979179739,0.0166016,-0.969238,0.15332
1499893979201741,0.0166016,-0.988281,0.158691
1499893979216740,0.0131836,-1.00439,0.150879
1499893979239743,0.0107422,-1.01172,0.13916
1499893979261744,0.00634766,-0.999512,0.141602
1499893979276744,0.00488281,-0.979492,0.159668
1499893979299745,0.0166016,-0.98291,0.157227
1499893979321747,0.0151367,-0.993164,0.158203
1499893979336747,0.0131836,-1.00098,0.137207
1499893979359754,0.019043,-1.01465,0.13916
1499893979381750,0.0180664,-0.990723,0.154785
1499893979402751,0.0126953,-0.973145,0.145508
1499893979419752,0.0180664,-0.990234,0.168457
1499893979441754,0.0234375,-1.01025,0.146973
1499893979462756,0.0166016,-1.00049,0.155273
1499893979479756,0.019043,-0.987793,0.150391
1499893979501757,0.0195313,-0.979004,0.163086
1499893979522760,0.0195313,-0.99707,0.146484
1499893979539759,0.0136719,-1.0127,0.151367
1499893979561761,0.00976563,-0.994629,0.145508
1499893979582764,0.0107422,-0.988281,0.158691
1499893979599763,0.0151367,-0.991211,0.154297
1499893979621766,0.0180664,-0.996582,0.143555
1499893979642767,0.0131836,-1.0083,0.14502
1499893979659774,0.0170898,-1.00293,0.144043
1499893979681768,0.0205078,-0.990234,0.149414
1499893979702768,0.0166016,-0.991211,0.154785
1499893979719769,0.0214844,-0.99707,0.160645
1499893979741773,0.0141602,-0.998535,0.149414
1499893979762790,0.015625,-0.991211,0.148438
1499893979779775,0.015625,-0.986816,0.157715
1499893979801774,0.015625,-0.98877,0.158691
1499893979822778,0.0161133,-0.986816,0.149414
1499893979839783,0.0175781,-0.996582,0.147949
1499893979861800,0.0214844,-1.00732,0.145508
1499893979884781,0.0175781,-1.00586,0.15918
1499893979898780,0.0180664,-0.984863,0.150391
1499893979921788,0.019043,-0.991211,0.149414
1499893979944783,0.0141602,-0.995117,0.143555
1499893979958784,0.0141602,-0.996094,0.149902
1499893979981785,0.0136719,-0.995117,0.150879
1499893980004788,0.0107422,-0.984863,0.148926
1499893980026789,0.0141602,-1.00049,0.145508
1499893980041789,0.0141602,-1.00195,0.154785
1499893980064791,0.0151367,-0.990234,0.153809
1499893980078790,0.0141602,-0.992676,0.138672
1499893980101792,0.0166016,-0.997559,0.152832
1499893980124793,0.0161133,-1,0.143066
1499893980138810,0.0131836,-0.995605,0.147461
1499893980161796,0.019043,-0.998535,0.148438
1499893980184798,0.00976563,-0.991211,0.145508
1499893980198799,0.0195313,-1.00635,0.146973
1499893980221799,0.0170898,-0.998535,0.138672
1499893980244801,0.0234375,-0.987305,0.146484
1499893980258801,0.0234375,-0.99707,0.14209
1499893980281802,0.0234375,-0.997559,0.148438
1499893980304804,0.0263672,-0.996582,0.148438
1499893980318805,0.0185547,-0.995117,0.141602
1499893980347806,0.0161133,-1.00098,0.144043
1499893980364808,0.0239258,-0.987305,0.144531
1499893980385809,0.0170898,-0.992188,0.150879
1499893980401810,0.0214844,-0.995117,0.143066
1499893980424812,0.015625,-0.994629,0.149414
1499893980445812,0.015625,-0.994629,0.140137
1499893980461812,0.0219727,-0.99707,0.146484
1499893980484813,0.0170898,-1.00049,0.148438
1499893980505827,0.0170898,-0.996094,0.142578
1499893980521816,0.0146484,-0.999512,0.139648
1499893980544818,0.0224609,-1.00195,0.13623
1499893980565820,0.0253906,-0.994141,0.144043
1499893980581819,0.0273438,-0.998047,0.143066
1499893980604822,0.0239258,-0.998047,0.146973
1499893980625825,0.0219727,-0.985352,0.149902
1499893980641823,0.0263672,-0.994629,0.148438
1499893980664825,0.0209961,-0.994629,0.141602
1499893980685826,0.0180664,-0.991699,0.150879
1499893980701828,0.0141602,-0.994629,0.146484
1499893980731828,0.0205078,-0.990723,0.143555
1499893980745829,0.0175781,-0.990234,0.146484
1499893980761832,0.0219727,-0.996582,0.146973
1499893980784833,0.019043,-0.99707,0.150391
1499893980806832,0.0219727,-1.00195,0.143066
1499893980821835,0.0224609,-0.99707,0.152344
1499893980844847,0.0131836,-0.990723,0.13916
1499893980866836,0.0117188,-0.991699,0.138672
1499893980881837,0.0161133,-0.995605,0.14209
1499893980904838,0.019043,-1.00146,0.14502
1499893980926840,0.0229492,-0.991211,0.141113
1499893980940840,0.0244141,-0.990234,0.144531
1499893980964842,0.0195313,-0.998535,0.144531
1499893980986843,0.0200195,-0.999023,0.139648
1499893981009844,0.0224609,-0.99707,0.143066
1499893981024846,0.0234375,-1,0.139648
1499893981046851,0.0224609,-0.993652,0.140625
1499893981060852,0.0214844,-0.994141,0.143066
1499893981084849,0.0244141,-0.991699,0.148438
1499893981106850,0.0268555,-0.994629,0.148438
1499893981120851,0.0288086,-0.998535,0.142578
1499893981144852,0.0234375,-0.999512,0.135742
1499893981166855,0.0292969,-0.995117,0.142578
1499893981180856,0.0249023,-0.998047,0.145508
1499893981204856,0.0234375,-0.989746,0.149902
1499893981226864,0.0258789,-0.999512,0.157715
1499893981240859,0.0219727,-1.00684,0.150391
1499893981263859,0.0244141,-0.991211,0.14209
1499893981286860,0.0249023,-0.987305,0.148926
1499893981307865,0.0244141,-0.995605,0.143066
1499893981324865,0.0234375,-0.989746,0.147461
1499893981346864,0.0224609,-0.993652,0.148438
1499893981367865,0.0302734,-0.996094,0.156738
1499893981391867,0.0209961,-1.00244,0.149902
1499893981406872,0.0224609,-1.00146,0.150879
1499893981427869,0.0234375,-0.996094,0.147461
1499893981444870,0.0239258,-1.00049,0.145996
1499893981466872,0.0234375,-0.996582,0.14502
1499893981487873,0.0253906,-0.992676,0.149902
1499893981504875,0.0283203,-0.996094,0.150391
1499893981526875,0.0273438,-0.99707,0.152832
1499893981547876,0.0336914,-1.00293,0.149414
1499893981564877,0.03125,-0.990723,0.152344
1499893981586878,0.0239258,-0.984375,0.145508
1499893981607881,0.0214844,-0.996582,0.146484
1499893981624880,0.0195313,-0.995117,0.146973
1499893981646881,0.0214844,-0.995117,0.148926
1499893981667883,0.0209961,-0.999023,0.149902
1499893981691885,0.0302734,-0.999512,0.157227
1499893981706886,0.0219727,-0.995117,0.155273
1499893981736887,0.0268555,-0.996094,0.150879
1499893981744889,0.0239258,-0.99707,0.149902
1499893981766889,0.0224609,-0.995605,0.14209
1499893981789890,0.0195313,-0.993652,0.14209
1499893981804892,0.0234375,-0.99707,0.154297
1499893981834892,0.0224609,-0.993652,0.154785
1499893981848894,0.0258789,-0.989258,0.141113
1499893981863894,0.0205078,-1,0.142578
1499893981886896,0.0195313,-0.999512,0.148438
1499893981909897,0.0239258,-0.994141,0.151855
1499893981923897,0.0249023,-0.989746,0.147461
1499893981946900,0.0224609,-0.99707,0.147461
1499893981969900,0.0249023,-1.00195,0.151367
1499893981983902,0.027832,-1,0.138184
1499893982006902,0.0283203,-1,0.146973
1499893982028904,0.0253906,-0.994141,0.149902
1499893982043906,0.0253906,-0.999023,0.148926
1499893982066906,0.0263672,-0.998047,0.147949
1499893982088907,0.0244141,-0.995605,0.151367
1499893982103908,0.0244141,-0.99707,0.146484
1499893982126909,0.03125,-0.996582,0.146973
1499893982148910,0.0249023,-0.99707,0.150879
1499893982163913,0.0249023,-0.986328,0.149902
1499893982186912,0.0234375,-0.990723,0.15332
1499893982208914,0.0214844,-0.991699,0.15332
1499893982229915,0.0263672,-0.993652,0.144043
1499893982246916,0.0273438,-1.00049,0.142578
1499893982268918,0.0214844,-0.997559,0.145996
1499893982290919,0.0239258,-0.985352,0.14502
1499893982306920,0.0205078,-0.991211,0.148438
1499893982328922,0.019043,-0.999512,0.158691
1499893982349921,0.0234375,-0.986328,0.145508
1499893982366922,0.027832,-0.986816,0.141602
1499893982388926,0.0327148,-0.998535,0.143066
1499893982410925,0.0317383,-1.00195,0.144043
1499893982426929,0.0283203,-0.98877,0.143555
1499893982448928,0.0273438,-0.988281,0.15625
1499893982469928,0.0336914,-0.996582,0.152832
1499893982486930,0.0322266,-0.999023,0.147949
1499893982509937,0.0302734,-0.994141,0.150879
1499893982529933,0.0234375,-0.993652,0.148438
1499893982546934,0.0244141,-0.995605,0.148926
1499893982568935,0.0249023,-0.996582,0.148926
1499893982590936,0.0234375,-0.999512,0.15332
1499893982606939,0.027832,-0.994141,0.155762
1499893982628940,0.0268555,-0.993164,0.148438
1499893982649939,0.0253906,-0.997559,0.154297
1499893982666941,0.0224609,-0.996094,0.148438
1499893982703942,0.0292969,-0.992676,0.146973
1499893982711945,0.0253906,-0.999023,0.145996
1499893982725944,0.0268555,-0.998047,0.149902
1499893982748945,0.0229492,-0.994629,0.154785
1499893982771954,0.0283203,-0.993164,0.147949
1499893982786948,0.0302734,-0.994629,0.144531
1499893982809949,0.027832,-1.00244,0.150391
1499893982831950,0.0249023,-0.991699,0.158203
1499893982845950,0.027832,-0.992188,0.155273
1499893982868952,0.0268555,-0.990234,0.144043
1499893982891955,0.0288086,-1.00195,0.153809
1499893982905958,0.0253906,-0.992676,0.143066
1499893982928960,0.0302734,-0.991699,0.141113
1499893982951957,0.0268555,-0.994629,0.141602
1499893982966964,0.027832,-0.998047,0.149902
1499893982988989,0.0273438,-0.996094,0.149414
1499893983011961,0.0263672,-0.987305,0.153809
1499893983025961,0.0317383,-0.993652,0.156738
1499893983048962,0.0322266,-0.991211,0.151367
1499893983071967,0.0307617,-0.994141,0.158691
1499893983085967,0.0302734,-0.997559,0.152832
1499893983109969,0.0302734,-0.993164,0.156738
1499893983131975,0.03125,-0.989258,0.15332
1499893983145969,0.0234375,-0.995117,0.149902
1499893983168970,0.0263672,-0.98877,0.143066
1499893983191971,0.0302734,-1.00488,0.149414
1499893983212973,0.0273438,-0.997559,0.149902
1499893983228986,0.0268555,-0.991699,0.155273
1499893983251974,0.0239258,-0.998047,0.15625
1499893983272975,0.0302734,-0.996582,0.155762
1499893983288982,0.0288086,-1.00195,0.147949
1499893983312978,0.0263672,-0.999512,0.149902
1499893983332979,0.0317383,-0.990234,0.15625
1499893983348979,0.0375977,-0.991211,0.152832
1499893983371983,0.0322266,-0.993652,0.151367
1499893983392985,0.0351563,-0.998047,0.15918
1499893983408983,0.0336914,-0.992676,0.149902
1499893983431987,0.0302734,-0.990234,0.155273
1499893983452986,0.027832,-0.987793,0.151855
1499893983468988,0.0258789,-0.992676,0.151367
1499893983491989,0.0244141,-0.996582,0.157227
1499893983512990,0.0263672,-0.994141,0.157227
1499893983528990,0.0258789,-0.986816,0.152832
1499893983551991,0.0302734,-0.998535,0.156738
1499893983572992,0.0351563,-1.00293,0.149414
1499893983588994,0.0336914,-0.997559,0.141113
1499893983612009,0.0288086,-0.993652,0.152344
1499893983634996,0.0268555,-0.992188,0.15918
1499893983648998,0.0195313,-0.990234,0.149902
