timestamp,emg1,emg2,emg3,emg4,emg5,emg6,emg7,emg8
1499895361391528,-2,-3,-1,-3,-2,-2,0,0
1499895361391528,-2,-1,-4,-2,-2,-2,-2,-2
1499895361392531,0,-1,-1,-15,-7,-3,-2,-2
1499895361392531,1,0,-2,2,1,0,-1,0
1499895361414530,-2,-2,-3,-4,0,0,0,-2
1499895361414530,-1,-2,-3,-7,1,-4,0,0
1499895361414530,0,1,4,28,-1,-4,-4,0
1499895361414530,0,1,-1,-11,-5,0,0,-2
1499895361428531,-2,0,-3,4,6,1,-2,0
1499895361428531,0,-1,0,13,-3,-2,-2,0
1499895361429535,-2,-4,-1,-25,0,-1,-1,0
1499895361429535,-1,-2,-6,-4,-2,-1,0,1
1499895361451535,-1,-2,3,0,-8,-4,0,1
1499895361451535,0,-1,3,1,3,2,0,-1
1499895361452539,-2,-1,-5,1,4,2,0,0
1499895361452539,-1,-2,-1,-3,0,-3,-2,-1
1499895361473535,-1,-2,1,-10,-5,2,0,-2
1499895361473535,1,-3,-2,19,7,-3,-2,0
1499895361474534,-2,-2,1,-1,-6,-2,-2,-1
1499895361474534,-2,-1,-1,-6,-3,0,-1,-1
1499895361488536,-3,0,-2,-4,3,-1,-1,-1
1499895361488536,-1,1,0,0,-2,-2,1,0
1499895361488536,0,0,0,-2,1,-2,0,-1
1499895361488536,0,0,0,-2,-1,-2,-1,-2
1499895361511538,-1,-3,-9,1,-4,-1,0,-1
1499895361511538,-1,-2,-1,0,-2,0,-2,-1
1499895361512545,1,1,-3,-1,3,-1,-1,1
1499895361512545,-2,1,-3,-13,0,-1,-1,-1
1499895361533538,-2,-2,9,12,2,-1,0,0
1499895361533538,0,-4,-3,15,-5,-3,-2,-1
1499895361534537,-1,-2,-7,-9,0,-3,-1,-1
1499895361534537,-1,-2,-4,-12,0,2,0,-8
1499895361548549,-2,-1,-1,18,-3,1,-2,-2
1499895361548549,-1,0,-3,-23,1,6,1,0
1499895361549545,-1,-1,4,-10,2,-2,-1,-2
1499895361549545,-1,-3,2,10,-2,-4,-2,6
1499895361571541,-1,0,-4,3,-2,-1,0,-2
1499895361571541,-3,-3,-4,-1,-4,-2,-1,-1
1499895361571541,1,0,0,4,2,3,1,1
1499895361571541,1,0,-4,5,0,-2,0,2
1499895361593542,-5,-4,8,0,-2,-1,-2,0
1499895361593542,2,0,-5,-11,-1,-1,0,5
1499895361595546,0,1,13,46,2,-1,-1,-4
1499895361595546,0,0,-18,-61,-2,-1,-2,-2
1499895361607555,1,0,0,7,-5,-3,1,-1
1499895361607555,-5,-8,-13,-6,-7,-5,-6,-5
1499895361615545,5,-3,6,35,1,-2,3,3
1499895361615545,-16,1,7,-14,-1,-2,-2,-13
1499895361631547,2,2,-7,-13,6,3,4,-2
1499895361631547,0,2,0,-36,-1,5,2,-2
1499895361632544,-6,-3,-4,1,-9,-3,-4,-4
1499895361632544,-7,1,-6,24,2,2,8,3
1499895361653544,11,2,7,11,1,-1,-8,0
1499895361653544,0,0,8,40,6,-1,-1,3
1499895361654544,-6,-10,-8,-62,-13,-3,-2,-6
1499895361654544,4,-2,9,9,-5,-2,-4,11
1499895361667547,-2,-1,-7,-34,2,-1,2,26
1499895361667547,2,4,3,18,1,0,-4,-24
1499895361675546,-6,-1,-19,37,-1,-3,2,-4
1499895361675546,9,-1,-8,-78,-5,-1,1,28
1499895361691547,19,1,19,56,-1,-1,-2,1
1499895361691547,-21,-7,-5,48,0,-4,-3,0
1499895361692552,5,3,-9,-68,2,4,1,-5
1499895361692552,-2,-3,5,60,-6,-10,-11,-2
1499895361714559,-7,0,-7,5,7,8,1,-8
1499895361714559,8,-2,-9,-13,-4,-2,5,19
1499895361714559,-10,0,16,52,6,0,-3,-13
1499895361714559,15,1,-7,-69,-2,1,0,-9
1499895361728560,-3,1,4,-15,0,-1,-2,-1
1499895361728560,-3,1,2,4,4,-2,0,-6
1499895361735550,-5,-6,-18,24,-5,1,-4,17
1499895361735550,-2,0,-9,-39,2,1,0,-11
1499895361751552,-4,-3,1,38,-8,-8,-5,17
1499895361751552,-3,0,8,-30,3,2,3,0
1499895361752551,27,6,-9,-4,5,1,5,11
1499895361752551,-22,-10,13,79,-1,-2,-1,-28
1499895361773552,-5,-6,-30,-50,-4,-2,0,2
1499895361773552,5,1,12,46,-6,-3,-1,2
1499895361774551,-13,1,7,-84,-3,0,-7,-1
1499895361774551,1,1,-4,33,-3,0,11,-18
1499895361787553,-7,-2,0,22,-1,-1,-7,-14
1499895361787553,-6,1,-1,-52,6,0,-1,8
1499895361795582,6,-3,0,51,-7,-3,-4,-12
1499895361795582,15,4,9,-11,4,2,-1,10
1499895361811555,-37,1,2,-16,-2,1,4,-11
1499895361811555,6,-10,-2,15,-1,-7,-3,9
1499895361812554,13,8,26,32,3,-2,-3,6
1499895361812554,-8,-3,-17,32,0,-1,-2,-2
1499895361833555,-4,-10,-31,-110,-11,-4,-3,-8
1499895361833555,3,2,10,77,3,0,-4,5
1499895361834554,-11,-3,0,-101,-4,-1,5,6
1499895361834554,-4,0,9,41,5,1,-3,-17
1499895361847556,-9,3,5,12,-1,-4,0,-11
1499895361847556,2,-2,-27,-50,-8,2,2,-4
1499895361855569,1,-1,15,-25,2,0,-2,-22
1499895361855569,5,5,1,55,-1,2,-1,-1
1499895361871571,-25,-19,-4,101,-1,-5,-5,-8
1499895361871571,8,-6,-8,-102,-19,-5,-3,-6
1499895361872559,31,14,-10,81,15,3,3,23
1499895361872559,-23,-10,-4,-55,-2,-5,-7,0
1499895361894564,34,-3,-7,-41,-8,-3,-1,2
1499895361894564,-6,-2,9,22,-9,-4,4,-1
1499895361894564,-31,-4,-2,10,-1,-3,-4,46
1499895361894564,-20,-3,11,-21,1,-2,-3,-46
1499895361916564,4,9,-13,49,4,0,-2,1
1499895361916564,-22,2,13,-28,12,4,11,-35
1499895361917559,-11,-10,-28,-24,-10,-3,-3,-23
1499895361917559,21,8,12,22,6,2,-2,24
1499895361929574,4,-4,19,47,6,1,3,17
1499895361929574,-20,4,5,-32,-2,3,-5,2
1499895361938561,14,-7,-14,-53,-10,-7,-5,-1
1499895361938561,14,2,-10,71,10,3,2,14
1499895361953578,-22,2,18,-10,-1,-3,-2,-5
1499895361953578,15,4,0,51,3,0,-9,-62
1499895361955566,-18,-2,4,-5,4,2,13,-16
1499895361955566,14,1,-8,-64,-5,-4,-2,21
1499895361976565,15,-1,0,-47,-6,-2,-4,28
1499895361976565,-5,-3,-4,38,4,-3,-2,-11
1499895361978570,-1,0,7,20,-8,-2,1,-24
1499895361978570,1,0,12,0,0,1,1,-2
1499895361989563,-1,0,-2,59,6,-1,4,1
1499895361989563,-13,-3,-5,-35,4,1,-1,21
1499895361998564,-17,-1,-4,-69,-5,-2,-6,-10
1499895361998564,16,0,1,46,-1,1,5,4
1499895362014576,0,2,18,-11,7,2,-5,14
1499895362014576,-4,0,-2,29,-10,-6,1,-8
1499895362015570,14,0,-20,-39,6,4,2,-1
1499895362015570,-31,-3,0,-7,-8,0,-2,-23
1499895362036566,6,-2,10,37,-8,-5,-8,-21
1499895362036566,2,1,2,13,10,2,-4,23
1499895362037568,16,2,10,21,4,1,5,8
1499895362037568,-13,-9,-30,-11,-7,-4,-7,49
1499895362049568,-6,2,-1,-2,-1,3,7,9
1499895362049568,21,-2,-10,-80,-12,-2,-3,5
1499895362058568,-28,-1,24,117,-3,-7,-5,-3
1499895362058568,13,-3,7,0,9,-1,1,72
1499895362073571,0,0,-4,1,2,4,2,-43
1499895362073571,-11,-5,-12,-57,-6,-4,0,31
1499895362075572,-19,-7,-26,-8,-1,0,-3,0
1499895362075572,11,-2,1,-40,-17,-7,-7,-9
1499895362103585,8,7,14,-4,9,3,2,16
1499895362103585,1,-3,-16,4,0,3,-3,-5
1499895362105571,-2,0,24,55,4,-1,0,-33
1499895362105571,-13,-1,-3,0,1,-1,-2,-31
1499895362109585,0,-3,-6,-40,-11,-4,-1,3
1499895362109585,7,-2,-25,-78,-4,-1,1,3
1499895362118573,5,1,20,40,5,0,-3,2
1499895362118573,2,2,20,78,-2,0,1,37
1499895362135574,2,-1,-17,-40,-10,-7,-4,-16
1499895362135574,11,0,12,44,5,0,0,32
1499895362136572,2,-6,-25,21,-2,2,-4,12
1499895362136572,-3,-1,4,-41,1,1,0,-30
1499895362156588,11,-2,-10,17,3,0,-1,9
1499895362156588,-14,-1,14,57,5,-2,-4,-9
1499895362157572,24,0,-3,-12,-10,-6,-4,-8
1499895362157572,1,-5,-9,2,-5,-5,-4,-35
1499895362170578,-4,1,0,-75,2,1,2,15
1499895362170578,1,-2,-3,-13,8,0,2,43
1499895362178579,15,5,14,40,-3,-4,-4,0
1499895362178579,-20,-6,-13,0,0,0,4,7
1499895362193590,0,-1,-1,-5,-1,-4,-15,-90
1499895362193590,-7,0,13,76,1,1,8,4
1499895362195575,3,11,30,-58,3,5,3,8
1499895362195575,8,-17,-53,-13,-10,-6,-7,-9
1499895362216577,16,2,10,30,5,4,6,41
1499895362216577,13,-2,11,52,-8,-6,-8,-23
1499895362218577,-35,-1,-7,5,0,-2,-2,-43
1499895362218577,29,11,15,-30,3,2,1,1
1499895362230577,13,-7,-19,-21,-6,-2,0,32
1499895362230577,-18,-2,-6,36,3,0,-2,-51
1499895362237578,9,0,-1,-39,-2,0,-1,46
1499895362237578,-10,6,37,32,-1,-1,-5,-51
1499895362253593,4,-18,-54,-65,-16,-5,-1,33
1499895362253593,13,8,14,-5,4,0,-4,-25
1499895362255581,-23,-5,5,35,-1,-4,-4,-12
1499895362255581,-23,0,-3,-11,2,4,1,0
1499895362276581,-4,3,12,58,5,1,2,-17
1499895362276581,-4,0,-4,8,-2,-4,-1,-65
1499895362278588,3,-12,-41,-79,-9,-4,-3,-6
1499895362278588,-2,4,17,35,2,0,2,1
1499895362290582,-21,4,17,5,2,1,0,-19
1499895362290582,-3,5,3,-54,-4,3,7,-5
1499895362297582,4,-8,-16,57,2,-5,-11,-7
1499895362297582,0,-11,-11,-27,-10,-5,-1,-26
1499895362314603,-6,8,3,59,7,1,3,-14
1499895362314603,-12,-13,-19,-73,-11,-4,-5,-8
1499895362315589,9,4,13,-4,2,1,-1,7
1499895362315589,0,7,8,16,16,8,8,17
1499895362336584,0,-10,-8,6,-12,-8,-6,43
1499895362336584,19,12,30,-24,-3,2,0,35
1499895362337586,27,-8,-32,-8,-5,-2,-1,58
1499895362337586,-22,2,3,16,7,-1,1,-30
1499895362350586,2,-2,9,3,11,5,-3,-10
1499895362350586,-9,-4,-13,34,-16,-3,-1,11
1499895362357598,-16,4,27,42,4,0,2,-3
1499895362357598,5,8,7,-52,2,5,0,1
1499895362373587,-19,2,-3,17,-12,-9,-5,-63
1499895362373587,-14,-14,-12,-2,7,-1,2,15
1499895362375586,-16,1,4,64,-1,3,2,16
1499895362375586,14,-4,-22,-20,-10,-6,-5,-17
1499895362396587,0,3,1,-78,2,1,1,16
1499895362396587,19,7,23,96,5,-1,-3,22
1499895362397588,-8,-5,-18,-24,-1,1,6,6
1499895362397588,4,4,24,-6,1,-4,-4,20
1499895362409603,13,-7,-11,-53,-7,-1,1,34
1499895362409603,11,0,-6,-1,-1,0,-2,11
1499895362418593,7,-4,-24,-28,-7,-5,-3,15
1499895362418593,-1,3,17,8,-1,1,-6,1
1499895362433590,8,-7,-9,-7,-5,-5,-2,88
1499895362433590,-14,-4,-3,-29,-1,-4,-6,-61
1499895362435589,19,11,16,14,7,4,3,-30
1499895362435589,25,-6,-18,81,-4,-1,5,35
1499895362456605,-31,-1,4,-69,-1,-4,-1,-15
1499895362456605,6,2,-10,-30,-2,2,3,6
1499895362457592,-14,-6,9,0,-1,-4,-2,-39
1499895362457592,-1,-2,3,37,6,2,6,22
1499895362469605,13,4,0,66,4,4,1,-26
1499895362469605,-16,2,8,-63,-1,-1,-5,20
1499895362479592,8,-1,-14,49,5,7,8,50
1499895362479592,-34,-13,-19,-108,-35,-14,-7,24
1499895362493600,10,8,12,74,9,5,7,-20
1499895362493600,-4,-12,-27,-8,-10,-8,-12,-11
1499895362495602,12,7,35,29,4,-1,-2,26
1499895362495602,-17,-4,-10,63,12,4,5,10
1499895362516609,-8,-12,-16,-121,-16,-9,-6,-79
1499895362516609,-1,11,19,5,9,4,4,-15
1499895362518594,24,4,-10,-75,-9,1,5,76
1499895362518594,5,-4,13,30,0,-6,-7,-26
1499895362529596,-16,7,12,0,8,3,1,-20
1499895362529596,8,-11,-16,116,4,-1,-1,17
1499895362538595,-32,2,7,-128,-8,-4,-1,-31
1499895362538595,10,0,19,47,6,0,-5,-12
1499895362553610,36,-6,-28,-12,-7,-1,1,38
1499895362553610,-10,4,20,69,6,2,4,-12
1499895362555597,-1,-1,-12,-42,-1,0,2,32
1499895362555597,-1,-9,-46,-117,-9,-4,4,-5
1499895362576614,-14,-3,27,105,-4,-5,-8,-8
1499895362576614,0,2,7,-13,5,1,1,18
1499895362577597,30,-2,-11,-5,-3,0,-1,6
1499895362577597,-5,-3,-2,-16,0,0,2,2
1499895362589599,13,7,15,11,4,0,-1,48
1499895362589599,-14,-7,-21,-64,-4,-4,-6,-54
1499895362604613,-3,-1,6,80,8,3,-5,-23
1499895362604613,-8,-2,-8,-78,-9,-1,-4,-4
1499895362613602,-19,-6,-8,90,0,-5,-2,-21
1499895362613602,32,4,16,-62,-6,0,5,51
1499895362615601,-16,-2,-8,50,7,1,1,-18
1499895362615601,-7,10,17,-4,0,1,0,-14
1499895362636601,-3,-14,-31,9,2,-4,-4,-10
1499895362636601,2,-1,4,-68,-13,-2,4,90
1499895362637603,-22,-3,6,-21,-3,-2,-1,-50
1499895362637603,8,7,-20,-31,4,3,1,-28
1499895362649603,-1,4,34,12,0,3,-1,-10
1499895362649603,8,-8,-47,62,1,-5,-1,33
1499895362658603,-3,-4,-14,-51,-13,-4,-2,-32
1499895362658603,0,4,24,78,7,1,-2,4
1499895362673606,1,1,-5,-95,-3,-1,8,6
1499895362673606,-10,-2,12,42,3,1,-7,-44
1499895362675606,11,6,8,-49,2,1,0,-15
1499895362675606,-1,-7,4,127,3,-7,-6,17
1499895362696605,6,6,1,-61,-9,-4,-5,-85
1499895362696605,-15,-9,-34,-17,-2,0,2,-48
1499895362697604,1,1,13,-8,-3,0,0,5
1499895362697604,28,-5,-20,-68,5,1,-1,41
1499895362709619,-13,-1,12,85,-4,1,3,78
1499895362709619,6,12,11,3,1,-2,-6,-59
1499895362718621,4,-9,-18,-28,-2,-3,-1,21
1499895362718621,-1,-2,13,51,4,4,6,13
1499895362733606,-4,2,-12,-71,6,2,-2,19
1499895362733606,0,0,23,54,-1,-3,-4,8
1499895362735607,-3,-3,-5,2,-5,-3,-4,-8
1499895362735607,-10,-6,-24,-16,-9,-6,-1,-12
1499895362756624,-1,3,-8,6,5,3,2,19
1499895362756624,-6,-2,-6,-70,-6,-2,-1,3
1499895362757610,1,2,9,17,2,1,1,-41
1499895362757610,29,6,17,53,0,-2,6,13
1499895362769624,-4,-4,-1,-27,-3,-1,-7,-10
1499895362769624,0,-1,-8,21,9,2,1,-3
1499895362778616,20,-4,3,33,-4,-2,2,81
1499895362778616,-9,6,2,-60,-9,-3,-12,-54
1499895362793610,-11,-10,-21,41,-4,-2,-1,-2
1499895362793610,4,-1,7,-39,-2,0,4,4
1499895362795612,-1,1,-8,49,4,0,-2,-25
1499895362795612,-19,2,10,42,12,2,-4,-36
1499895362816627,0,-1,-15,-80,-8,-4,-3,-7
1499895362816627,-6,-3,19,31,-8,-6,-4,16
1499895362818613,-11,-1,-3,6,7,2,2,-26
1499895362818613,1,-4,-10,-36,-8,1,-1,9
1499895362838619,0,-6,-2,26,-11,-5,0,6
1499895362838619,7,4,7,-5,5,4,4,10
1499895362840617,-1,5,9,19,2,-2,0,42
1499895362840617,16,-3,-18,50,5,-2,-10,4
1499895362853677,5,1,-9,-105,-8,4,-1,6
1499895362853677,0,-8,5,53,-6,-5,-4,-18
1499895362855622,-33,-6,-9,31,0,-4,0,-81
1499895362855622,-7,5,18,-24,1,4,5,24
1499895362876668,-4,6,25,68,11,0,0,-21
1499895362876668,-12,-3,6,48,-8,-4,-4,-10
1499895362877615,-1,-1,-7,-64,-11,0,-4,-47
1499895362877615,-9,-7,-12,-3,-1,-4,-4,-24
1499895362898628,-8,4,-3,-53,-6,2,5,44
1499895362898628,3,-2,-25,-40,1,-2,0,22
1499895362900617,-5,-3,15,31,-2,-8,-5,24
1499895362900617,14,-2,-6,4,-1,1,3,4
1499895362913620,14,6,29,70,13,4,4,51
1499895362913620,3,6,-18,-43,-7,4,5,-1
1499895362915621,3,1,19,15,3,0,-4,-11
1499895362915621,-26,-6,-22,-72,-8,-4,-5,-22
1499895362936618,0,-3,-4,63,3,-1,-3,-17
1499895362936618,-1,3,23,25,8,3,1,24
1499895362937618,-1,-5,-48,-79,-9,0,-1,13
1499895362937618,-8,-6,6,55,3,-4,1,22
1499895362958682,9,1,7,-14,-1,0,-1,-29
1499895362958682,0,4,9,-13,0,0,-3,19
1499895362960621,-3,-4,6,-26,-2,-3,-6,-20
1499895362960621,-3,3,7,45,-3,-1,-1,1
1499895362973624,8,-3,-4,-13,0,0,3,54
1499895362973624,-10,-7,-8,35,-6,-7,-11,-30
1499895362975621,-17,5,36,-26,2,1,4,13
1499895362975621,-3,-15,-60,-69,-16,-7,-4,-20
1499895362996641,3,7,20,72,10,4,0,-11
1499895362996641,28,-1,-9,27,1,2,3,24
1499895362997626,-19,-4,-10,-8,-6,-2,8,-19
1499895362997626,-2,2,19,1,4,1,-5,-15
1499895363018630,12,-2,-5,-10,-1,1,0,13
1499895363018630,-11,-6,3,38,1,-3,-3,-69
1499895363020628,14,-1,4,-17,-4,-3,-5,47
1499895363020628,5,6,21,-8,-1,0,5,31
1499895363033624,2,-9,-37,24,3,-4,-2,-21
1499895363033624,-1,-1,1,-31,-3,-1,-1,-7
1499895363035628,13,2,1,55,5,4,1,65
1499895363035628,-12,-3,9,-4,-7,-1,1,3
1499895363056687,-13,-3,-12,-116,-10,-7,-11,-49
1499895363056687,3,-3,-18,20,1,0,2,6
1499895363057625,4,4,27,63,7,-1,1,18
1499895363057625,15,4,3,4,0,2,-2,17
1499895363078705,-15,-7,-11,-29,-5,-2,1,-22
1499895363078705,-5,5,8,-14,2,0,2,45
1499895363080631,1,-4,-11,-7,1,5,-2,-18
1499895363080631,8,3,14,-6,-7,-4,-2,5
1499895363093645,-57,-12,-9,20,-3,-4,-3,-34
1499895363093645,-12,1,1,-37,-1,-3,-5,-22
1499895363099631,8,-4,-11,26,2,1,-2,-24
1499895363099631,-1,2,11,-32,4,2,0,15
1499895363116669,16,8,10,54,7,1,2,12
1499895363116669,-10,-10,-20,-94,-15,-7,-5,-9
1499895363118629,-4,-4,-4,-18,-5,-4,-3,50
1499895363118629,-12,-3,-4,3,0,-3,-3,-39
1499895363138629,22,1,9,3,-4,-2,2,21
1499895363138629,9,2,8,-22,10,3,1,3
1499895363140632,13,0,-15,69,-2,0,-3,-9
1499895363140632,-24,0,1,-29,4,2,3,38
1499895363153637,3,-4,-8,0,-11,-3,-1,-1
1499895363153637,-13,-7,-17,-9,-5,-3,-1,-19
1499895363159669,9,3,11,-11,-1,-1,-3,31
1499895363159669,8,3,10,10,-4,2,2,-1
1499895363176695,-7,-5,-23,-52,-3,-1,0,-2
1499895363176695,2,5,17,21,-2,-4,1,4
1499895363177633,-7,-3,-17,18,2,0,-2,-14
1499895363177633,4,-11,-1,71,-4,-2,-5,-24
1499895363198651,13,6,12,-42,-3,1,-1,-14
1499895363198651,2,-1,-4,12,3,0,0,11
1499895363200634,-4,3,17,18,-3,-5,-3,-85
1499895363200634,-3,-5,-24,-38,3,-1,0,-8
1499895363213635,-33,-2,9,19,-2,-3,-7,-70
1499895363213635,17,9,6,-31,-2,1,4,23
1499895363219635,-15,-4,-10,-18,2,2,1,-14
1499895363219635,14,-5,11,29,-3,-5,-4,-4
1499895363235638,3,-2,7,37,3,-2,-1,19
1499895363235638,-2,2,11,27,4,0,0,-3
1499895363244640,-3,1,0,-49,-3,-2,-3,-28
1499895363244640,-8,-4,-25,-54,-9,1,1,23
1499895363258637,3,-1,3,27,4,-1,-1,-3
1499895363258637,-2,-4,-7,92,6,3,1,0
1499895363260637,-6,-3,5,-70,-10,-7,-5,24
1499895363260637,-3,4,10,-18,0,-2,3,1
1499895363273642,3,4,6,33,7,3,3,15
1499895363273642,0,-8,1,-50,-4,-2,-2,28
1499895363279639,-6,-6,-8,25,1,-3,-3,-61
1499895363279639,-19,2,4,-10,-1,1,0,-8
1499895363296640,16,-2,-14,-41,-2,-3,-2,4
1499895363296640,-39,0,8,34,-2,0,-1,9
1499895363297639,21,2,1,3,0,1,4,52
1499895363297639,10,5,15,-9,5,-1,-2,7
1499895363318677,5,-2,-6,60,2,1,1,58
1499895363318677,-12,-3,-13,-63,-5,-1,0,-15
1499895363320642,7,5,17,58,-2,-4,-3,-23
1499895363320642,0,0,-7,26,0,0,-1,12
1499895363333643,-5,-15,-20,-51,-10,-6,-4,-67
1499895363333643,10,3,3,3,3,2,1,1
1499895363339662,-16,-3,-4,-12,-4,-2,0,-18
1499895363339662,10,2,2,33,11,2,1,-11
1499895363356707,17,4,-7,19,2,3,3,67
1499895363356707,-4,-6,6,-58,-19,-10,-3,38
1499895363357683,-8,-6,-33,-63,1,3,0,-4
1499895363357683,-6,-1,16,24,-3,-5,-1,5
1499895363378716,-10,5,33,110,9,1,-2,-16
1499895363378716,9,-4,-35,-50,-5,0,0,-8
1499895363380645,8,1,-3,-25,0,-1,-2,26
1499895363380645,-5,2,10,24,4,1,-3,-53
1499895363392665,0,-6,1,-32,-8,-5,-4,17
1499895363392665,16,6,1,26,1,1,0,19
1499895363401647,-28,0,13,-15,-2,-2,-1,0
1499895363401647,11,-2,-2,1,2,-1,-1,13
1499895363416682,-1,2,6,25,-2,-3,-2,-28
1499895363416682,-4,-6,-22,-37,-9,-1,-3,-39
1499895363418646,11,3,14,33,4,4,7,78
1499895363418646,-6,1,-11,15,2,-3,-2,-82
1499895363438647,3,3,2,-29,-8,-4,-5,21
1499895363438647,4,-5,-14,-2,0,2,0,17
1499895363440649,-1,-5,-7,-19,-3,-3,0,1
1499895363440649,-1,-4,-4,36,-1,-1,-1,55
1499895363452682,3,3,-4,-9,4,0,1,-41
1499895363452682,4,7,42,27,6,0,0,-10
1499895363462656,10,-12,-29,-26,-15,-5,-5,-10
1499895363462656,1,2,4,-29,-1,-1,3,16
1499895363476712,-8,0,-15,-17,-2,-3,-3,-32
1499895363476712,-1,4,8,28,4,-3,-2,3
1499895363477653,-5,2,5,32,7,7,4,-28
1499895363477653,4,1,1,-70,-6,-2,-2,22
1499895363499652,-7,-4,8,33,-5,-2,1,28
1499895363499652,2,-4,-16,1,6,-1,-3,4
1499895363500655,-32,1,-1,48,3,-2,-6,-60
1499895363500655,16,-4,-12,-62,-2,-1,1,33
1499895363512731,-4,0,4,-66,-4,1,1,3
1499895363512731,-2,1,1,81,2,-3,0,-9
1499895363521660,-2,-2,6,-17,-4,-5,-3,6
1499895363521660,9,-4,-11,33,-1,0,2,17
1499895363536667,-8,0,12,35,7,2,-2,-6
1499895363536667,-13,-1,-12,-80,-4,1,-1,31
1499895363537653,27,5,12,-36,-11,-3,-2,-7
1499895363537653,-31,-14,-23,-8,1,-5,-5,-22
1499895363558723,7,0,7,49,1,-1,0,17
1499895363558723,10,3,22,3,5,-1,2,-5
1499895363560656,-2,1,-26,-30,2,3,3,14
1499895363560656,9,1,0,-8,-3,0,-2,38
1499895363572656,-5,-7,-10,-10,-4,-7,-4,-42
1499895363572656,-4,-5,2,31,4,6,0,-6
1499895363581656,9,-3,-9,-36,0,-2,-1,10
1499895363581656,5,3,13,-45,-11,-1,-2,-29
1499895363596661,0,-7,-23,18,2,-1,0,69
1499895363596661,10,5,10,15,0,2,2,-32
1499895363597661,-2,-5,0,37,2,-1,0,-3
1499895363597661,-5,-2,-2,42,0,-1,0,-13
1499895363618660,-22,1,13,-72,-4,-1,0,-2
1499895363618660,24,-4,-1,52,-11,-7,-3,58
1499895363620659,-22,-6,-10,-30,-3,0,1,43
1499895363620659,7,3,-11,-60,-3,-1,-4,-80
1499895363632680,6,4,24,-2,2,0,-1,-20
1499895363632680,-2,-3,-8,24,4,0,3,11
1499895363641659,-40,-3,6,-13,0,-4,-5,-53
1499895363641659,17,-3,-13,39,-5,-4,-2,29
1499895363656661,2,2,-12,-28,4,1,1,-15
1499895363656661,-13,-6,14,29,-9,-3,-6,-43
1499895363657662,9,-1,9,82,6,-1,0,-7
1499895363657662,-3,4,5,-84,5,5,2,19
1499895363678674,-3,-2,4,37,-6,-1,0,-30
1499895363678674,3,6,4,-17,8,1,5,-5
1499895363680666,17,-11,-28,43,-7,-5,-7,-40
1499895363680666,-7,2,22,25,4,2,0,8
1499895363692664,10,-2,-17,-26,0,2,4,17
1499895363692664,-8,3,19,-14,-3,1,0,-5
1499895363701663,10,4,-15,-66,-2,0,1,-6
1499895363701663,-8,-9,-5,55,0,-4,-4,-30
1499895363716664,-28,-2,17,41,-5,-1,-1,-10
1499895363716664,4,-2,-15,-49,-4,-1,-3,-11
1499895363718675,6,9,29,49,7,3,2,0
1499895363718675,-1,-9,-29,-4,-7,-2,0,24
1499895363738665,1,2,-7,-76,-2,0,0,4
1499895363738665,-12,-4,-4,16,1,-2,-4,-53
1499895363740686,9,1,7,42,6,1,1,39
1499895363740686,-7,0,7,-73,-3,1,1,-20
1499895363752699,6,-8,-11,17,-9,-6,-6,-51
1499895363752699,-8,-1,-9,-21,1,-1,-2,21
1499895363761669,-4,2,6,-1,-3,-4,-5,-13
1499895363761669,7,0,6,45,-3,-4,-1,3
1499895363776700,12,-5,-14,-64,-5,2,-2,23
1499895363776700,-10,-4,-12,-9,-2,-3,-3,-11
1499895363777670,-4,-5,-9,-16,-4,-1,-2,-44
1499895363777670,-8,-3,11,95,-2,-4,-1,26
1499895363798687,12,7,7,-39,-3,0,0,18
1499895363798687,1,-5,-22,-8,2,1,3,-2
1499895363800669,-4,1,-11,-36,-1,0,0,23
1499895363800669,-2,-1,15,12,-2,-2,1,-2
1499895363820713,-11,-4,3,71,2,-3,-6,-42
1499895363820713,-3,0,-10,-18,-1,-3,-4,-54
1499895363828749,0,1,9,-16,-3,-1,3,10
1499895363828749,10,-3,-16,-29,6,3,1,-14
1499895363836670,-5,-1,-4,-46,-9,0,0,12
1499895363836670,10,-3,-1,36,-1,-3,-1,49
1499895363837692,-1,-9,-10,-18,-4,-7,-10,14
1499895363837692,-4,2,11,8,2,0,1,8
1499895363858684,3,1,3,0,7,2,2,24
1499895363858684,-7,9,35,41,4,1,2,5
1499895363864701,-8,-17,-41,8,-7,-1,-4,-30
1499895363864701,-5,-3,-3,-11,-6,-3,-5,0
1499895363881674,-9,3,18,6,5,-1,0,-8
1499895363881674,-3,-12,-45,-85,-10,1,-2,-8
1499895363882678,-7,3,45,116,6,-1,1,10
1499895363882678,1,-1,-17,-48,-1,-3,-3,2
1499895363894675,-11,0,-4,-13,3,2,1,-2
1499895363894675,22,0,-7,7,0,1,-2,-30
1499895363903675,-5,4,16,-11,1,0,2,3
1499895363903675,-4,-2,1,-6,1,3,0,-6
1499895363918692,-10,4,6,38,3,0,1,-43
1499895363918692,-9,-6,-3,-36,-5,-2,0,6
1499895363920676,19,-5,-16,-30,-4,-4,-5,16
1499895363920676,-6,4,9,50,2,-3,-2,7
1499895363941678,-13,-4,2,-8,-1,-2,-1,8
1499895363941678,4,-5,4,60,1,2,0,1
1499895363942678,4,3,16,-12,-2,2,1,27
1499895363942678,-3,-4,-29,-22,-1,-3,-2,-3
1499895363956742,16,-1,-13,-12,-4,-2,-1,28
1499895363956742,-18,-5,-2,-18,-5,-5,-3,-6
1499895363957678,-1,4,13,-6,2,1,3,2
1499895363957678,1,0,5,9,5,4,0,1
1499895363978692,-1,-3,-28,32,-3,0,-2,-2
1499895363978692,5,-1,6,8,-4,-4,-3,4
1499895363980679,-15,-5,-2,-2,1,0,2,-11
1499895363980679,20,2,1,-35,-1,1,2,-2
1499895364001719,15,-1,-7,19,1,-3,-3,31
1499895364001719,-3,5,19,2,2,1,2,18
1499895364002681,-2,-5,-14,-11,-1,0,0,-12
1499895364002681,-2,-1,-9,16,-9,0,2,51
1499895364014681,17,-4,4,-18,-4,-2,-2,-45
1499895364014681,3,3,-6,-32,5,3,1,15
1499895364023687,11,1,21,34,-7,-8,-4,13
1499895364023687,-1,1,-4,25,2,1,-1,-23
1499895364038686,1,-2,-1,-7,1,0,-2,6
1499895364038686,-21,1,23,16,5,1,1,1
1499895364040683,9,-3,-28,-81,-11,0,0,-33
1499895364040683,-13,-3,-6,-15,-7,-6,-4,-27
1499895364061689,-3,4,15,18,4,-1,-1,15
1499895364061689,-12,-6,-8,0,-3,-2,-5,-24
1499895364062684,-2,13,44,83,12,6,4,2
1499895364062684,16,-14,-36,-92,-9,-5,-5,66
1499895364075722,10,0,2,47,7,-3,1,34
1499895364075722,-3,2,4,-62,-9,1,2,14
1499895364082702,-9,-4,2,18,-4,-3,-2,-20
1499895364082702,-4,0,1,-15,5,-2,-1,-19
1499895364098686,-2,-3,-3,31,-2,-2,-2,-27
1499895364098686,8,-1,-4,1,-1,-4,-3,14
1499895364100686,-1,6,-2,-65,-2,2,1,11
1499895364100686,-10,5,26,14,5,2,1,-18
1499895364121695,-9,-11,-38,-60,-8,-2,1,17
1499895364121695,4,3,7,43,1,-3,-3,-24
1499895364122687,0,-1,-14,14,0,0,0,14
1499895364122687,3,5,21,59,7,2,2,0
1499895364135708,-2,0,1,-60,-17,-4,-5,2
1499895364135708,14,0,3,40,3,-2,0,21
1499895364142688,2,-8,-25,-16,1,0,1,-6
1499895364142688,6,-6,-22,55,-4,-3,-4,10
1499895364158693,-30,4,12,-6,4,2,1,-8
1499895364158693,11,-1,-7,10,-4,-5,-11,-33
1499895364160690,0,-8,-2,-14,-8,-8,-2,-5
1499895364160690,1,1,5,-46,-7,-2,1,-10
1499895364181691,-2,0,7,15,4,3,0,-10
1499895364181691,-5,-1,-2,1,-1,1,1,27
1499895364182691,-1,2,-1,7,3,-1,-1,36
1499895364182691,2,2,-3,73,-2,0,-1,-24
1499895364195724,-1,-9,2,-89,-8,-7,-2,-6
1499895364195724,-8,-8,-6,7,2,-1,1,-2
1499895364202727,3,4,-7,-30,1,0,-2,-9
1499895364202727,-11,-1,10,4,-4,-3,-1,-1
1499895364226749,15,3,-10,36,10,3,1,6
1499895364226749,8,-2,-5,11,-6,-2,-1,3
1499895364227694,-14,-7,-9,-39,-10,-2,-3,6
1499895364227694,-7,6,26,-9,4,2,0,-15
1499895364241697,-2,2,14,54,7,5,8,-11
1499895364241697,-6,-8,-21,-59,0,-4,-3,10
1499895364242694,3,-4,-23,55,2,-1,0,3
1499895364242694,-17,-4,-11,-5,-8,-5,-8,-83
1499895364255730,1,2,3,-28,3,1,0,3
1499895364255730,-6,1,8,3,-9,-2,2,5
1499895364262695,4,3,9,27,1,-1,0,-3
1499895364262695,3,-5,-3,-26,-1,3,0,22
1499895364278745,-8,0,10,38,0,-3,-3,-2
1499895364278745,-12,2,5,-27,-6,-3,-3,-23
1499895364280717,6,1,-4,-15,4,5,1,7
1499895364280717,4,-6,3,7,-2,-2,1,1
1499895364301718,13,0,-8,41,6,0,1,20
1499895364301718,31,7,20,-32,1,-2,0,-25
1499895364302719,-5,-5,-6,19,-5,-3,-1,7
1499895364302719,1,-1,-40,-44,0,-1,0,38
1499895364315722,-8,-7,-7,32,-7,-2,-3,0
1499895364315722,-6,1,-11,-68,0,1,1,3
1499895364322699,-2,2,11,32,7,2,-2,-27
1499895364322699,4,1,12,-26,-5,-1,-1,19
1499895364338699,-7,-5,6,-11,-2,-2,-3,-6
1499895364338699,-3,-2,-11,56,4,0,-1,-8
1499895364340703,1,-1,-6,-40,-10,-4,-2,12
1499895364340703,-39,-6,-5,-12,0,-1,2,-10
1499895364361707,12,3,14,-44,-2,-1,-1,2
1499895364361707,-9,0,-1,43,3,1,1,-11
1499895364362701,-7,-1,17,7,-6,-5,-3,4
1499895364362701,32,4,19,9,5,4,2,-5
1499895364374706,-22,-5,-9,-12,-7,-6,-4,-1
1499895364374706,4,-4,-8,15,1,2,1,20
1499895364383702,-2,-3,-5,21,2,-1,-2,-5
1499895364383702,3,2,6,-97,-6,-2,0,-7
1499895364398705,5,7,-2,64,4,3,1,-4
1499895364398705,4,2,28,9,-2,-1,0,5
1499895364400704,-10,-3,-18,-13,1,1,2,13
1499895364400704,10,-1,4,25,-1,-4,-2,15
1499895364421725,0,0,36,-17,-1,-2,-1,-20
1499895364421725,-5,-6,-26,26,-3,-3,-2,29
1499895364422725,25,4,0,-37,6,2,1,45
1499895364422725,-13,1,1,33,-2,-2,-1,19
1499895364434722,5,-2,-11,-33,-2,2,2,51
1499895364434722,-12,7,14,3,7,2,1,-30
1499895364443705,1,5,12,4,-3,-5,0,-23
1499895364443705,19,-9,-20,22,-1,0,-2,73
1499895364458745,-14,-1,8,-8,-3,-4,-2,-11
1499895364458745,6,-2,5,5,2,2,0,19
1499895364460712,-16,5,9,-19,3,5,1,-11
1499895364460712,-4,-10,-21,29,-8,-7,-5,-5
1499895364481729,2,-1,-20,31,-3,-3,-1,-4
1499895364481729,-4,-5,6,-41,-11,-5,-3,-3
1499895364482708,0,0,-11,-3,3,0,-1,-25
1499895364482708,-7,3,-1,-22,4,4,2,-16
1499895364503780,14,-6,4,64,-2,-1,0,53
1499895364503780,-9,2,-21,-22,-1,-3,0,-57
1499895364505710,10,1,25,29,5,2,2,4
1499895364505710,-10,2,3,9,0,-2,-2,-16
1499895364518710,-5,-3,-26,-128,-8,-2,-4,-5
1499895364518710,5,-3,0,76,4,2,1,12
1499895364520710,1,1,18,0,-7,-7,-4,-10
1499895364520710,-8,-3,-17,26,5,3,2,-21
1499895364541715,-1,-3,3,6,-4,-3,-5,-68
1499895364541715,-10,0,-10,-28,-3,-1,1,0
1499895364542711,-9,-9,-12,-17,-4,-3,-5,-6
1499895364542711,-3,-1,-3,9,-3,-2,-2,-20
1499895364563713,1,7,5,-11,0,-2,0,30
1499895364563713,-1,-4,-6,-45,-10,2,0,-2
1499895364565717,8,-8,-6,4,1,-1,1,-3
1499895364565717,-20,2,-9,-23,2,-1,-2,-18
1499895364578780,-4,-9,-15,60,-4,-4,-3,-4
1499895364578780,7,6,15,1,6,3,0,-13
1499895364580717,5,-3,-4,10,-6,-2,1,8
1499895364580717,2,2,13,7,1,-1,-2,10
1499895364601718,-16,-12,-32,-26,-8,-7,-4,-34
1499895364601718,8,-2,-8,21,8,-1,-2,-2
1499895364602716,-10,2,-1,5,-14,-5,-4,25
1499895364602716,5,5,7,-25,-4,1,-1,2
1499895364614716,7,-9,-14,-2,4,3,0,7
1499895364614716,18,0,10,-15,-4,-2,-2,47
1499895364623738,-12,-3,-16,-11,3,1,1,56
1499895364623738,9,-6,-1,54,-7,-5,-3,-6
1499895364638720,6,7,23,-48,-1,-2,-2,2
1499895364638720,0,-3,-11,38,6,-1,1,5
1499895364640722,1,5,20,-74,-4,3,1,8
1499895364640722,-4,1,11,11,3,-1,1,-3
1499895364661742,11,1,-8,-8,-1,3,1,8
1499895364661742,-21,2,22,56,6,0,-3,-14
1499895364662718,8,-3,-44,-14,-3,-3,0,-35
1499895364662718,-7,2,4,-51,-4,-1,-3,-60
1499895364674723,-8,-2,-2,13,1,-1,-2,-48
1499895364674723,3,4,1,9,-3,0,0,13
1499895364683721,-3,6,28,73,7,3,-1,-33
1499895364683721,4,-9,-34,-72,6,2,-1,35
1499895364698721,-1,-3,-3,59,-13,-5,-2,-19
1499895364698721,-2,-1,-2,5,-3,-4,-3,-34
1499895364700721,-4,-2,-12,-23,3,0,-2,-10
1499895364700721,-2,4,14,19,2,-1,1,3
1499895364720786,5,1,-2,-9,5,3,1,11
1499895364720786,10,-3,-3,-4,-2,-2,-1,27
1499895364727728,-14,-2,-5,-41,-6,0,-1,-42
1499895364727728,14,4,25,94,5,-2,0,26
1499895364734743,-1,-2,-23,-54,-8,0,0,-5
1499895364734743,-1,-2,4,27,-1,0,0,-16
1499895364743723,8,7,41,-2,7,1,2,-19
1499895364743723,13,-13,-44,24,-5,-1,0,41
1499895364758787,-39,4,7,-14,3,0,-1,-35
1499895364758787,10,2,6,-19,1,0,0,2
1499895364760725,6,1,0,46,-2,-1,-1,18
1499895364760725,-17,-6,5,-34,-3,0,-3,-19
1499895364781730,7,3,11,-9,3,-2,-1,2
1499895364781730,-6,0,-13,20,-13,-3,-1,10
1499895364782744,-2,-9,-10,-26,-2,-2,-7,-33
1499895364782744,0,3,11,24,-3,-2,-1,22
1499895364803767,-13,-4,-4,27,2,-2,-3,-22
1499895364803767,0,-1,3,-10,0,-2,-1,-10
1499895364805729,3,-1,9,9,-2,0,-1,38
1499895364805729,-9,-8,-20,2,2,-2,-1,-15
1499895364818748,7,4,16,23,-6,0,0,20
1499895364818748,-4,-6,-18,-31,-3,-3,-4,-11
1499895364820748,-16,-4,-6,-15,-3,-4,-3,-8
1499895364820748,-1,5,16,6,1,0,-1,0
1499895364841729,4,5,18,37,11,1,1,12
1499895364841729,-11,-10,-24,-32,-7,1,-2,1
1499895364842729,5,2,-4,-9,4,3,1,14
1499895364842729,-3,-2,4,4,-4,0,-2,-16
1499895364863730,18,1,5,17,-2,-1,0,-15
1499895364863730,-13,-6,-1,-27,-5,-3,-2,1
1499895364865758,5,-1,3,8,5,1,0,-1
1499895364865758,14,1,-12,-48,-11,-3,-1,3
1499895364878779,-2,-4,7,34,1,-3,-1,22
1499895364878779,-3,1,5,-11,3,2,0,2
1499895364880744,-5,-10,-36,19,-4,-3,-2,-33
1499895364880744,2,4,20,-10,2,-1,-2,6
1499895364900732,-11,-3,-21,45,4,-1,-5,-53
1499895364900732,-3,2,5,-76,-2,3,1,19
1499895364907801,11,-11,-6,63,-6,-5,-3,19
1499895364907801,-2,7,10,-12,-6,-1,0,-25
1499895364923733,9,1,3,-22,1,-1,0,-2
1499895364923733,15,0,11,21,6,2,-2,13
1499895364925755,-19,3,-9,-5,3,1,1,-9
1499895364925755,-12,-9,7,-3,-5,-6,-3,-11
1499895364937740,2,4,11,9,0,0,2,26
1499895364937740,-2,-1,-5,33,1,0,1,1
1499895364944735,-1,4,14,-7,-1,-3,-4,16
1499895364944735,-6,-3,-13,-11,-7,-2,2,-16
1499895364961772,-3,-4,-10,-100,-8,-2,-2,20
1499895364961772,2,2,7,5,2,-2,-1,5
1499895364962735,0,-5,-21,-11,-1,1,-1,-1
1499895364962735,-1,2,4,52,4,0,-1,29
1499895364983736,-2,-2,-11,-11,0,1,1,-8
1499895364983736,-2,-1,-1,-12,-4,-3,-3,-16
1499895364985758,-3,0,18,22,-1,-2,-1,1
1499895364985758,4,-3,-16,-47,1,0,-6,-3
1499895364997741,20,-1,3,74,2,-1,2,47
1499895364997741,-5,-1,-9,-66,0,-3,0,-6
1499895365004791,8,3,16,51,3,3,0,-13
1499895365004791,3,-8,-35,-58,-6,0,0,-4
1499895365021746,-9,-1,9,8,4,0,0,6
1499895365021746,12,-4,-12,13,0,-2,-2,-4
1499895365022739,7,4,-5,-16,-3,-2,0,8
1499895365022739,-7,0,4,-26,3,0,0,-8
1499895365043743,0,-1,-14,32,-4,0,-2,2
1499895365043743,-15,-1,1,7,4,0,-2,10
1499895365045754,7,-2,-1,-7,-11,-4,-2,14
1499895365045754,7,2,9,52,0,-2,-2,25
1499895365058752,-1,-2,-10,-72,-4,0,0,-5
1499895365058752,5,0,3,47,-2,0,-1,1
1499895365064745,10,3,17,-17,2,1,0,18
1499895365064745,-14,-8,-20,0,-5,-3,-4,-61
1499895365081746,1,-4,-2,-3,-5,-2,-2,15
1499895365081746,-10,0,0,-21,-6,0,-2,-6
1499895365082743,9,2,-6,41,8,4,6,10
1499895365082743,-4,-3,6,-76,-5,-5,-2,-13
1499895365103806,-4,0,0,4,0,5,2,-8
1499895365103806,6,0,-9,17,0,-1,0,-6
1499895365105748,-13,-7,-13,-47,-10,-5,-3,-9
1499895365105748,5,5,19,63,9,2,0,-11
1499895365117765,9,-6,-24,-6,-1,0,-1,4
1499895365117765,0,-1,0,-51,-1,-2,2,4
1499895365124780,-20,3,5,63,5,1,1,-23
1499895365124780,9,-9,-10,-40,-8,-2,-1,-3
1499895365141767,8,2,9,-100,-2,-2,-1,2
1499895365141767,-7,-2,-13,50,-3,-2,0,-6
1499895365142748,-3,3,-3,-37,2,2,-1,4
1499895365142748,-14,-4,-8,65,2,-1,-3,-6
1499895365163748,-11,0,-8,9,5,1,0,-14
1499895365163748,10,-3,15,-41,-12,-6,-3,3
1499895365165754,8,7,7,-2,-2,-1,1,44
1499895365165754,13,-2,-11,-18,2,-3,-1,-25
1499895365177769,-9,3,-2,25,2,2,0,-8
1499895365177769,-5,-5,2,15,-1,-3,-4,-6
1499895365186752,-4,-10,-13,20,-2,-3,-4,-15
1499895365186752,7,7,3,-42,3,6,4,36
1499895365201754,-3,-7,9,9,-11,-6,-2,-4
1499895365201754,-1,2,7,23,3,0,1,-11
1499895365202749,-10,-6,-16,-50,-10,-3,-3,8
1499895365202749,3,5,31,69,11,1,1,-3
1499895365223755,14,-1,-14,-87,-14,-4,-4,7
1499895365223755,-1,-1,-5,42,0,0,-1,20
1499895365225751,-1,-3,-5,-1,-2,-3,-4,-49
1499895365225751,-11,3,-6,-25,2,2,4,6
1499895365237751,-7,1,11,30,0,-3,-2,17
1499895365237751,1,-1,-11,-3,-3,-2,-2,1
1499895365245776,3,-3,8,17,4,1,-1,15
1499895365245776,-15,0,-2,7,-3,-3,-4,14
1499895365261756,-9,0,19,-14,2,1,-1,-21
1499895365261756,8,-2,-17,-57,-5,-1,0,-4
1499895365262754,-21,-4,0,24,3,-2,-3,-8
1499895365262754,8,4,13,30,-2,1,0,21
1499895365283758,-10,-8,-32,-41,-2,-2,-1,0
1499895365283758,-15,-2,20,70,2,-1,-1,-9
1499895365285775,6,1,-1,-40,-5,2,3,-6
1499895365285775,-6,-3,-13,-4,-5,-1,1,2
1499895365297777,-15,7,26,88,14,3,2,2
1499895365297777,12,-9,-22,-120,-21,-4,-5,2
1499895365306757,-22,-3,0,47,4,-2,-5,-47
1499895365306757,4,-3,6,-24,-4,0,2,1
1499895365321758,2,2,2,96,4,-2,-6,3
1499895365321758,-10,1,-2,-51,1,3,2,-7
1499895365322760,6,-3,1,-14,-2,-3,-5,25
1499895365322760,-14,-3,-12,35,3,1,-3,-30
1499895365343759,10,-1,-12,-44,-2,-2,3,8
1499895365343759,-8,4,-3,24,6,1,-2,-13
1499895365345762,-5,2,12,-20,-9,-2,0,5
1499895365345762,-5,-6,-16,-1,3,1,2,38
1499895365357830,19,1,35,45,-2,-1,-4,-5
1499895365357830,-9,-1,-24,18,-3,-3,-3,18
1499895365366763,-1,-10,-22,-80,-10,-5,-3,-15
1499895365366763,5,2,14,49,1,1,-2,7
1499895365381777,-4,1,-1,-37,0,2,3,-7
1499895365381777,1,-2,5,27,4,1,0,-16
1499895365382761,4,4,11,-22,-2,1,1,17
1499895365382761,3,-4,0,3,-2,-3,-3,11
1499895365403801,-19,-3,-1,-3,-3,-2,-1,-7
1499895365403801,13,0,-3,3,1,0,-1,-4
1499895365405763,7,3,5,48,-1,-1,0,21
1499895365405763,-23,-5,2,1,0,-2,-2,-48
1499895365417766,-2,-2,-6,-10,-1,-2,-2,-16
1499895365417766,1,-2,1,-30,1,-1,1,9
1499895365426764,-6,3,7,75,8,5,1,-9
1499895365426764,16,-6,-37,-91,-12,-5,-2,11
1499895365441764,-13,1,7,43,1,-1,-2,-7
1499895365441764,4,-4,4,-65,-3,0,2,29
1499895365442764,7,0,-26,-48,0,-1,-2,13
1499895365442764,2,8,36,104,13,4,2,-2
1499895365463767,-19,-4,-15,-21,-2,-3,-3,2
1499895365463767,14,-3,-2,-21,-6,-4,-1,-9
1499895365465772,1,-1,-12,3,-1,-2,1,3
1499895365465772,-4,-11,-26,-29,-10,-3,-3,-1
1499895365477776,6,7,9,-4,1,1,0,11
1499895365477776,-14,-6,-1,54,1,1,-1,-8
1499895365486770,20,0,11,-54,-3,-1,0,9
1499895365486770,-8,3,6,23,-1,-4,-2,-7
1499895365501767,-9,-7,-4,-23,-2,1,-1,1
1499895365501767,6,1,-10,89,6,2,-1,-15
1499895365502768,15,4,-8,-73,-3,-1,2,14
1499895365502768,3,2,21,35,-1,-2,-3,0
1499895365523785,1,-2,-7,-19,-9,-3,0,-8
1499895365523785,1,-2,8,37,1,-6,-2,5
1499895365525772,-17,-3,-5,21,3,-2,-1,-19
1499895365525772,3,4,6,-22,3,4,4,-13
1499895365537789,7,-1,0,-21,0,-1,-2,3
1499895365537789,-6,1,26,-40,-1,0,1,-8
1499895365546780,-4,-9,-34,31,-5,-2,-1,9
1499895365546780,-4,2,8,17,4,1,1,-6
1499895365561778,9,-2,-13,-6,-3,1,-2,15
1499895365561778,-24,-3,11,21,-4,-2,-3,-29
1499895365562771,-9,4,22,39,4,-1,-3,18
1499895365562771,12,-13,-44,-115,-12,-3,-2,7
1499895365583774,-3,3,13,47,5,2,2,9
1499895365583774,-19,-1,-13,1,-1,-2,-1,12
1499895365585789,5,-3,7,34,-3,-5,-4,-6
1499895365585789,-6,-1,2,3,0,2,1,-11
1499895365597773,8,-3,-6,6,-4,-2,-4,3
1499895365597773,-7,1,-18,-6,2,-1,-2,8
1499895365606773,-8,4,17,-27,1,3,3,-25
1499895365606773,7,-1,-4,-5,2,-5,-3,12
1499895365621794,10,-1,6,-17,-1,-1,2,-4
1499895365621794,1,3,9,32,0,-1,-1,-9
1499895365622773,0,-6,11,8,-2,-1,-1,-17
1499895365622773,2,1,-8,3,-3,-1,-1,-12
1499895365643776,1,3,13,-19,1,3,2,-11
1499895365643776,-20,-8,-7,28,-2,-4,-5,-9
1499895365645779,18,-5,-14,-25,-11,-7,-4,0
1499895365645779,-1,2,6,36,5,1,-2,-34
1499895365657812,-1,0,-5,-59,-4,-2,1,0
1499895365657812,10,3,21,5,2,2,1,5
1499895365666778,-17,-1,-19,-19,-2,1,1,-17
1499895365666778,-7,-7,3,9,-4,0,-3,27
1499895365681799,6,-3,-18,0,1,-3,-2,6
1499895365681799,20,3,12,-9,-3,-1,-1,3
1499895365683778,-7,-2,-7,18,2,3,1,-14
1499895365683778,19,3,4,-31,-2,-2,1,29
1499895365703820,-5,-3,-6,61,2,-2,-1,-3
1499895365703820,2,-1,3,-26,-6,0,0,25
1499895365705783,-6,-3,-13,-8,1,-4,-2,7
1499895365705783,6,5,10,-27,-4,-3,-1,7
1499895365717800,-9,-1,-8,26,0,-1,-2,-23
1499895365717800,23,-6,-10,-10,-3,3,0,-6
1499895365726780,-5,5,21,-5,5,0,1,16
1499895365726780,-14,-3,-2,17,-2,1,0,-27
1499895365741782,15,3,12,-11,2,-2,-2,28
1499895365741782,-1,1,-13,-14,-7,-3,-1,-2
1499895365742782,2,-7,-5,15,-1,0,-1,-18
1499895365742782,4,2,18,-13,-2,-4,-1,59
1499895365763787,-5,-1,4,74,3,-1,-1,-16
1499895365763787,-2,2,-6,-55,-1,1,-1,-17
1499895365765789,-3,3,2,-38,0,0,-1,3
1499895365765789,-33,-5,-4,22,-5,-2,-1,-11
1499895365786804,6,-4,-15,-37,-6,-3,0,-7
1499895365786804,-7,-5,5,10,2,-2,-3,0
1499895365787784,7,1,-7,55,-1,-2,-1,8
1499895365787784,-4,-4,-18,9,-1,-1,-2,-18
1499895365799784,-10,3,5,-22,-2,1,-1,7
1499895365799784,6,-1,-13,11,3,2,0,8
1499895365808785,-8,-1,10,-1,1,0,0,-11
1499895365808785,1,0,-6,27,0,0,-2,0
1499895365823807,-1,-4,1,-7,-4,-2,-3,3
1499895365823807,-6,3,3,-23,-5,-4,-2,-3
1499895365825790,5,-2,7,6,-1,-4,1,32
1499895365825790,-11,-3,-6,15,0,0,-6,-32
1499895365846793,16,-1,-5,-61,-4,-1,0,12
1499895365846793,-10,-7,-10,12,0,-1,-2,-6
1499895365847793,-2,3,13,-21,0,0,-1,7
1499895365847793,-6,-2,0,14,2,-2,-2,-6
1499895365861797,-2,0,-3,-7,-3,0,-3,1
1499895365861797,-4,5,12,17,7,2,1,-1
1499895365862788,-3,-7,-6,36,-4,-3,-3,-15
1499895365862788,2,-1,-8,-65,-3,-2,0,-13
1499895365883789,-1,-1,0,25,0,1,0,-11
1499895365883789,7,-6,-23,-33,-10,-5,-3,20
1499895365885789,-1,3,6,14,4,2,-1,-9
1499895365885789,4,3,22,-10,-1,2,1,6
1499895365906798,-7,-4,-10,-17,1,-4,-3,-42
1499895365906798,-9,2,12,44,2,-1,-1,-17
1499895365907790,-2,1,-10,-21,0,5,1,-4
1499895365907790,11,-6,-8,14,-7,-4,-3,-8
1499895365920794,7,2,14,13,2,2,2,3
1499895365920794,0,-2,-18,-2,1,-2,-1,5
1499895365927793,0,1,-2,3,-3,-2,-3,-10
1499895365927793,-10,-8,-5,1,-3,-4,-1,7
1499895365943793,-4,-4,1,14,-1,0,-1,13
1499895365943793,-4,1,7,-12,-1,2,1,-7
1499895365945795,-6,-8,-20,-24,0,-2,-1,2
1499895365945795,21,8,9,6,4,2,0,31
1499895365966849,-29,-5,-15,-11,-8,-6,-5,-61
1499895365966849,7,5,27,34,5,2,2,12
1499895365967794,-8,-9,-24,-8,-5,-1,0,-30
1499895365967794,12,4,6,-12,0,0,-3,34
1499895365980797,-10,-6,-8,-18,-10,-7,-1,5
1499895365980797,1,3,8,-19,3,1,0,-1
1499895365987813,-6,1,11,-7,-2,-7,-4,-14
1499895365987813,-4,-2,-8,-6,1,6,2,-17
1499895366003850,7,0,5,23,4,1,-1,19
1499895366003850,-8,-3,-23,-60,-6,-2,-2,1
1499895366005800,11,1,19,70,1,-2,-2,13
1499895366005800,-11,-2,-12,-79,-6,-4,0,-14
1499895366025817,1,-1,19,2,0,-2,0,12
1499895366025817,2,-5,-16,19,0,-2,1,7
1499895366027799,6,-1,-12,14,5,4,-1,4
1499895366027799,-3,2,23,-43,-11,-4,-2,-2
1499895366040802,-2,3,-1,-12,4,4,2,0
1499895366040802,-4,-9,-3,24,-2,-2,-1,-2
1499895366047821,6,5,8,-7,0,-2,1,3
1499895366047821,-4,2,-6,16,3,0,1,9
1499895366063812,2,-2,2,-15,-4,-2,-2,-1
1499895366063812,-2,-7,-19,51,0,-3,-5,-26
1499895366065812,4,-6,2,13,-3,-2,-3,16
1499895366065812,2,0,9,1,2,-2,-2,-5
1499895366086807,-2,4,-1,-53,-4,0,-1,1
1499895366086807,2,0,-9,4,-3,-7,-1,1
1499895366087800,-5,-1,-2,-33,3,6,1,5
1499895366087800,-4,1,8,48,8,0,1,-12
1499895366100802,3,-4,-15,-12,-2,1,0,29
1499895366100802,-15,1,27,19,2,-2,0,-15
1499895366107870,16,-1,-13,-34,-8,-4,0,14
1499895366107870,-13,1,0,9,4,1,-1,-34
1499895366123823,8,-4,1,41,1,1,5,21
1499895366123823,-2,2,1,26,3,-1,-2,-2
1499895366125822,-7,-2,18,-55,-4,-3,-2,-5
1499895366125822,-6,-5,-15,-21,0,-1,0,-13
1499895366146805,4,3,-10,3,0,-2,-2,-6
1499895366146805,-3,1,11,-37,-2,-2,0,0
1499895366147807,-2,1,-11,3,3,6,1,0
1499895366147807,4,-1,21,24,-6,-4,-4,-14
1499895366168870,-10,-1,-10,50,5,-1,-1,-16
1499895366168870,7,0,-6,-59,-6,0,-1,11
1499895366170807,-6,-4,-20,-6,0,-2,0,-9
1499895366170807,8,1,12,-7,-1,0,0,20
1499895366183807,7,-3,-21,-10,-9,-1,-2,5
1499895366183807,4,1,8,10,0,-6,-3,-7
1499895366185824,-3,2,3,-33,2,3,-1,0
1499895366185824,-6,-4,-2,71,1,-2,-1,11
1499895366206855,24,0,2,-42,0,-1,0,14
1499895366206855,-2,-6,-19,12,-4,-2,-4,-24
1499895366207808,-4,3,24,-28,-5,-6,-3,-1
1499895366207808,3,1,3,30,4,1,0,-3
1499895366219841,13,-4,9,30,5,0,2,-1
1499895366219841,-5,-2,-9,-58,-13,1,-3,7
1499895366228830,0,3,13,37,0,1,1,-37
1499895366228830,2,-2,-44,-17,-4,-1,-2,14
1499895366243816,-14,-1,4,9,1,-3,-3,-1
1499895366243816,3,-1,3,18,5,1,2,8
1499895366245833,-8,-1,16,13,-2,-1,-1,4
1499895366245833,0,-1,-20,-17,-5,-2,1,-3
1499895366266848,-12,1,-8,-30,-1,-1,-1,-3
1499895366266848,-5,0,9,49,1,-4,-2,9
1499895366267812,20,-5,-5,34,-3,-3,1,75
1499895366267812,7,-2,12,-5,5,-3,-1,-5
1499895366279816,0,0,-8,-11,-9,-1,-4,-18
1499895366279816,-3,1,5,-12,3,5,2,-23
1499895366288815,-3,-3,-8,-6,0,0,0,-2
1499895366288815,-5,0,-3,3,1,1,-2,0
1499895366303879,-13,-1,16,-1,0,-2,-1,13
1499895366303879,5,-4,-8,-11,-1,4,-2,-27
1499895366305816,-21,2,-15,46,2,-4,-1,-19
1499895366305816,2,-3,1,-51,-5,3,2,-16
1499895366326831,16,7,20,-18,2,3,2,-15
1499895366326831,-6,-4,-19,-14,-1,-2,-1,36
1499895366327816,-9,-8,-9,-5,0,-3,-2,-14
1499895366327816,5,4,2,-16,-2,-1,0,4
1499895366339819,5,-3,6,35,-2,-2,-2,-1
1499895366339819,1,0,-15,-81,-2,0,1,1
1499895366348816,1,2,18,24,-3,0,-2,-8
1499895366348816,-7,-1,2,-3,1,-1,0,8
1499895366363840,-10,-5,-19,0,-3,-2,-7,-53
1499895366363840,-4,3,17,46,5,0,1,-24
1499895366365822,-3,-9,-21,-3,-8,-7,-2,-1
1499895366365822,-11,-1,1,-34,-7,-1,-3,-19
1499895366385818,4,0,-2,-28,2,1,2,37
1499895366385818,-1,-7,2,51,0,-1,-2,14
1499895366387818,-1,2,0,-14,2,2,0,-20
1499895366387818,3,0,3,75,-2,-1,0,10
1499895366399821,-7,-2,-8,-33,-1,-2,-3,4
1499895366399821,12,1,2,-53,-6,-2,-2,12
1499895366408820,-13,3,5,-5,-2,-3,-2,-9
1499895366408820,-17,4,5,29,3,0,-1,6
1499895366423821,0,-15,-35,-46,-6,2,-2,4
1499895366423821,4,-2,4,18,-1,0,2,1
1499895366425824,4,-1,1,-30,-2,-1,-1,4
1499895366425824,-1,2,-3,15,-3,-4,-3,6
1499895366446824,-14,-1,7,37,0,-4,-2,-31
1499895366446824,1,6,-1,-5,0,-1,-2,22
1499895366447822,12,-6,-16,-15,-6,1,0,15
1499895366447822,-3,0,-3,-13,3,0,1,-4
1499895366459823,0,1,13,47,1,-2,-2,25
1499895366459823,0,-4,4,11,-1,-2,-4,-1
1499895366468841,-4,2,-1,-37,-7,-1,-2,-5
1499895366468841,3,-2,-2,-3,0,-1,0,4
1499895366483826,-5,-8,-24,-13,-8,-3,-3,6
1499895366483826,-5,4,26,30,5,1,0,-12
1499895366485828,-1,-1,-14,-17,2,0,-2,-2
1499895366485828,2,-5,-3,3,-4,-5,-3,2
1499895366506868,11,-1,-5,9,-6,2,0,43
1499895366506868,1,4,4,-13,0,0,-1,1
1499895366512835,0,-1,-1,70,6,-1,1,23
1499895366512835,-16,-8,-12,-86,-10,-2,-3,-19
1499895366519837,11,8,25,55,7,-2,-1,13
1499895366519837,-18,-6,-21,-77,-12,-3,-1,-1
1499895366528851,13,5,8,21,3,2,0,-1
1499895366528851,5,0,-7,6,0,0,0,8
1499895366543855,-14,-1,0,23,1,-7,-5,-20
1499895366543855,-1,-4,-8,-51,-3,4,0,1
1499895366545829,-2,2,17,16,1,-1,0,-9
1499895366545829,-8,-6,-18,-8,0,-1,-2,4
1499895366573833,-7,-1,2,-10,-5,-3,0,-14
1499895366573833,2,0,-9,24,2,-3,-1,1
1499895366575857,2,-5,-10,3,0,0,0,10
1499895366575857,7,-1,3,-48,-3,0,-1,-14
1499895366579830,0,5,11,-3,6,2,2,-7
1499895366579830,-5,-4,6,52,3,-5,-1,1
1499895366588829,-10,-5,-21,-24,-10,-2,-1,-10
1499895366588829,0,-4,-4,21,3,-1,-2,-26
1499895366610867,-1,0,-3,-39,-2,0,-1,5
1499895366610867,3,2,-1,16,2,1,1,-5
1499895366612831,0,0,11,67,1,-4,-3,-10
1499895366612831,5,2,6,-58,-1,0,0,4
1499895366626890,-2,1,4,-17,0,-4,1,-18
1499895366626890,7,-1,-5,37,0,1,-1,2
1499895366627833,-9,-5,-7,-74,-9,1,2,8
1499895366627833,-2,1,3,24,1,1,0,-5
1499895366639852,-1,-1,1,10,0,0,0,-4
1499895366639852,5,-1,-13,2,-4,-2,-1,18
1499895366648846,-15,-6,6,-11,-1,-3,-5,-25
1499895366648846,10,-1,1,60,0,-2,-1,6
1499895366663837,-2,-3,-6,-8,-1,-3,-2,2
1499895366663837,5,2,-1,-67,-6,2,1,-1
1499895366665834,1,4,3,-7,3,1,-2,-7
1499895366665834,0,1,2,5,-1,0,0,7
1499895366686853,-10,-4,-7,19,0,-2,-1,-15
1499895366686853,-2,0,-1,-7,1,1,0,-14
1499895366687835,3,2,6,44,7,0,1,6
1499895366687835,-4,2,5,-56,-3,0,0,22
1499895366708882,5,-4,5,53,-4,-3,-4,-5
1499895366708882,-6,2,11,-5,5,0,1,-6
1499895366710840,2,-1,0,-23,1,1,2,0
1499895366710840,-20,4,11,21,3,-1,-3,-39
1499895366722838,1,-7,-22,-42,-4,-3,-4,-44
1499895366722838,21,0,7,33,5,4,1,8
1499895366729837,-3,5,8,36,0,1,-1,-3
1499895366729837,13,1,2,-53,-10,-4,-3,39
1499895366745885,-10,-2,-20,-7,-1,0,1,11
1499895366745885,-10,-8,-5,31,0,-8,-2,-32
1499895366747839,0,-4,-29,-36,-7,1,-4,10
1499895366747839,5,1,9,53,6,1,1,4
1499895366768898,0,3,15,-35,-6,1,-1,4
1499895366768898,-5,-10,-40,-33,-6,-4,-2,11
1499895366770841,2,2,7,-19,-1,0,-1,8
1499895366770841,-4,-5,-11,24,-2,-2,-1,-6
1499895366782858,-4,2,6,9,3,1,-1,-1
1499895366782858,0,7,10,-4,1,1,1,5
1499895366791845,2,-5,0,-14,-4,-6,-3,-23
1499895366791845,1,1,20,-7,1,-1,-2,-8
1499895366805906,6,-11,-33,35,0,1,0,6
1499895366805906,-19,-3,10,-34,-9,-4,-3,1
1499895366807845,3,2,-1,25,2,-2,-2,-8
1499895366807845,0,1,7,-22,-5,0,-2,20
1499895366828893,6,4,16,-15,2,2,2,22
1499895366828893,11,-10,-31,-8,-1,-3,-2,-2
1499895366830861,8,-3,5,17,-2,-1,0,36
1499895366830861,-7,-2,-10,-31,3,5,3,-19
1499895366842846,-7,0,18,10,1,-1,-3,17
1499895366842846,-2,-5,-3,23,1,-4,-2,5
1499895366849851,3,-1,-10,-60,-1,-4,0,5
1499895366849851,-4,-4,-9,60,-1,-2,-2,5
1499895366865868,-10,1,3,-38,-5,1,0,-14
1499895366865868,3,0,6,13,1,2,0,-16
1499895366867846,-1,-3,-1,-17,-1,-2,0,-2
1499895366867846,-20,-4,8,40,-1,-5,-2,-2
1499895366888853,20,1,-6,-18,0,-2,-1,-13
1499895366888853,-1,2,11,46,-2,2,0,8
1499895366890847,1,4,16,2,-4,-2,-2,20
1499895366890847,6,-9,-42,-22,-4,-2,-2,-4
1499895366902889,-15,-3,-9,-7,-1,0,1,9
1499895366902889,-1,6,15,9,1,2,0,-10
1499895366917851,-10,-7,-8,24,0,-3,-1,22
1499895366917851,16,7,22,-39,-5,1,0,18
1499895366926865,-1,-1,-19,2,1,-1,0,-12
1499895366926865,-18,-3,2,6,-2,-9,-5,-5
1499895366927851,-6,1,0,-14,2,7,3,-15
1499895366927851,1,-3,-2,45,6,-1,-1,14
1499895366948862,0,4,3,-42,-2,2,1,-13
1499895366948862,4,0,14,38,-5,-4,-2,24
1499895366950851,-4,-5,-12,-3,3,-2,-1,-13
1499895366950851,0,-1,1,15,0,1,0,-10
1499895366962851,0,-1,1,-51,-9,-3,-2,1
1499895366962851,-2,4,9,9,2,0,0,-8
1499895366969898,-3,2,-2,-17,1,1,-1,-12
1499895366969898,-1,-9,-4,24,-5,-3,-2,4
1499895366986852,-9,2,11,35,4,-2,-2,0
1499895366986852,5,4,-7,-6,-1,1,1,17
1499895366987853,4,-6,1,10,-8,-6,-4,-15
1499895366987853,-6,0,-2,-16,-3,-2,-1,-6
1499895367008921,1,2,14,49,6,1,2,-7
1499895367008921,-4,-3,-9,-43,-5,1,2,7
1499895367010855,5,-2,-2,-2,-3,-1,-1,-9
1499895367010855,-4,0,-4,-36,-1,-1,0,-10
1499895367022858,6,-2,-3,78,1,-1,-3,26
1499895367022858,8,-3,7,-8,-1,1,-1,-8
1499895367029856,-21,5,8,-9,-3,-2,-1,-3
1499895367029856,4,-8,-22,9,-5,0,-5,-6
1499895367045888,-1,8,15,-14,1,2,2,14
1499895367045888,1,-10,-14,-10,0,-4,-3,-35
1499895367047865,2,-2,5,29,-1,-1,-3,3
1499895367047865,-1,3,9,6,3,-2,1,2
1499895367068895,-7,0,-12,-58,-3,0,-2,-6
1499895367068895,1,-2,3,46,-1,-2,-2,10
1499895367070874,5,0,3,-5,1,0,0,-2
1499895367070874,-7,0,-12,-5,0,1,0,-8
1499895367082874,-3,-5,-1,51,2,-2,2,4
1499895367082874,5,6,28,-85,-6,4,1,-11
1499895367089859,3,-5,-20,-8,5,-1,-3,-7
1499895367089859,-1,0,12,34,4,-1,2,-7
1499895367106864,-1,-1,0,-63,-1,0,0,4
1499895367106864,-9,-6,-20,25,-3,-3,-2,1
1499895367107861,-6,5,10,-1,3,0,3,7
1499895367107861,6,-5,-4,-6,-9,-4,-2,15
1499895367128862,-3,-4,2,48,1,-4,-2,-2
1499895367128862,-1,-1,-12,-46,-5,-5,-5,-5
1499895367130861,-6,3,-3,-14,4,7,0,-4
1499895367130861,-6,-3,-8,-18,-5,-4,-4,2
1499895367142863,-4,-3,-5,-16,-5,0,-1,-15
1499895367142863,3,0,4,29,8,1,1,10
1499895367149883,4,-4,-2,-31,-9,-4,-1,0
1499895367149883,4,4,-2,-19,-2,1,0,-10
1499895367165875,3,-2,12,34,2,-3,-3,-17
1499895367165875,-6,0,-4,-11,-1,1,0,5
1499895367167869,0,-2,-12,19,-1,0,0,-2
1499895367167869,2,2,10,-12,2,0,0,-9
1499895367188867,-4,-4,-9,-12,-3,1,0,18
1499895367188867,1,1,-7,6,2,1,1,8
1499895367190865,5,0,17,25,0,0,-3,-4
1499895367190865,-6,-3,-2,-9,-3,-3,-3,9
1499895367202870,12,0,-4,29,3,0,-2,22
1499895367202870,-10,-1,2,-64,0,1,-2,-23
1499895367211867,-2,3,-5,8,4,1,0,1
1499895367211867,-7,-4,3,-25,-6,-2,-2,-4
1499895367225913,10,-2,3,25,-2,-5,-3,-7
1499895367225913,-5,-1,-8,30,0,-1,0,2
1499895367227867,2,1,-2,-35,-2,-1,-3,-7
1499895367227867,6,3,7,9,2,2,0,-6
1499895367248868,-27,-3,-8,5,-6,-9,-3,-8
1499895367248868,3,-4,-8,3,-2,6,1,-3
1499895367250870,2,-1,4,34,4,-1,2,1
1499895367250870,0,0,7,-43,-2,-4,-2,7
1499895367262869,-3,-1,-15,-20,-2,2,1,0
1499895367262869,-8,-1,1,6,-5,-4,0,-11
1499895367271872,-2,-4,5,2,-7,-3,-2,0
1499895367271872,1,-1,-6,7,6,0,1,0
1499895367285871,0,-2,6,-10,-3,-2,-3,-13
1499895367285871,-2,-1,-2,6,0,-4,-1,5
1499895367287870,5,-1,-6,-5,-1,-1,-1,0
1499895367287870,4,0,-7,28,1,0,2,11
1499895367308926,0,2,11,-3,4,4,2,-16
1499895367308926,14,-2,7,30,-3,-4,-4,8
1499895367310908,-5,-5,-9,-103,-12,-4,-2,-1
1499895367310908,-1,-2,-5,37,-1,-1,1,9
1499895367322876,-5,-3,-13,-4,-2,-1,-3,-39
1499895367322876,-6,1,-7,10,4,1,-1,0
1499895367331873,-3,2,11,33,-1,-3,-1,-4
1499895367331873,1,1,-3,-25,-3,1,-1,-2
1499895367346882,7,-2,-12,-14,-3,-1,-1,21
1499895367346882,4,-3,14,3,-1,-5,-2,-8
1499895367347882,-17,-2,-15,2,-1,-6,-3,-15
1499895367347882,-6,1,1,-4,0,-2,-1,-9
1499895367368940,-2,-4,14,58,-1,3,-1,-1
1499895367368940,15,6,5,-27,3,2,1,12
1499895367370896,2,-4,-4,51,-3,0,-1,-3
1499895367370896,4,-7,-6,-62,-8,-7,-4,-11
1499895367382892,-8,1,17,-32,-2,-3,2,3
1499895367382892,-8,-1,-2,-20,0,-1,-1,-4
1499895367391877,3,4,14,65,4,3,2,-4
1499895367391877,-6,-5,-19,-26,-3,-1,-4,-3
1499895367405945,1,-1,-5,5,-1,-3,-2,-4
1499895367405945,6,2,13,11,0,0,-1,7
1499895367407878,-2,5,2,16,5,0,1,8
1499895367407878,4,-5,-6,-42,-6,0,-1,-5
1499895367428941,-2,-1,2,-16,1,-2,-2,6
1499895367428941,-8,-1,0,9,-1,1,-1,-5
1499895367429878,-4,0,3,-25,2,-1,-4,0
1499895367429878,4,-1,-1,19,0,-2,0,20
1499895367442881,1,-3,-9,-14,-1,5,1,4
1499895367442881,1,4,6,13,-1,-2,0,-4
1499895367451880,-15,-3,-20,4,-3,-2,-1,-3
1499895367451880,-4,2,16,92,7,2,1,-8
1499895367466883,2,-1,-7,-95,-4,-1,0,4
1499895367466883,-5,1,-4,5,-4,-4,-2,0
1499895367467883,8,-11,23,-9,2,6,1,4
1499895367467883,2,3,1,27,2,-1,1,15
1499895367488883,-9,-4,-10,11,2,-1,-1,-6
1499895367488883,6,-2,-6,5,-4,0,-1,1
1499895367490883,3,-11,-9,-19,-3,-5,-3,0
1499895367490883,-6,2,0,32,0,-2,-1,-7
1499895367502916,2,-19,-37,-3,-3,-1,-5,-5
1499895367502916,-8,-10,4,-13,0,0,1,-1
1499895367511885,5,0,-5,21,-2,-3,0,7
1499895367511885,-4,0,12,-61,-1,1,-1,-2
1499895367525939,-2,-7,-17,-32,-3,-5,0,-3
1499895367525939,-12,14,12,56,-3,-2,-5,-6
1499895367527885,9,-10,13,14,1,1,1,5
1499895367527885,-2,-4,-12,18,5,3,1,-1
1499895367548889,3,14,18,-39,-6,-3,-1,2
1499895367548889,-6,-13,-11,9,2,-1,0,4
1499895367550886,0,7,6,13,1,-2,-2,-16
1499895367550886,-5,0,-3,-14,-1,-3,-2,-12
1499895367562886,7,3,14,45,-6,-1,-1,5
1499895367562886,-4,-4,-16,-25,-3,-5,-2,7
1499895367571888,0,9,-7,-32,-1,0,0,-5
1499895367571888,3,-10,-19,14,2,-1,-2,-9
1499895367585907,-4,6,16,61,6,2,2,-8
1499895367585907,3,-1,-5,-16,-2,-1,-1,0
1499895367587889,-5,1,2,-34,-2,1,0,1
1499895367587889,-2,5,11,65,-1,-1,0,-9
1499895367608950,-8,-4,27,-41,0,3,1,-1
1499895367608950,9,1,-21,-4,-1,-2,-1,22
1499895367610893,1,1,-7,-22,-7,-4,-2,2
1499895367610893,5,1,-2,-3,-1,-3,-3,-27
1499895367631892,2,-2,-18,49,0,1,-1,7
1499895367631892,-11,-6,-12,-32,1,-1,-1,-18
1499895367632891,3,-4,2,11,-4,-3,-3,-1
1499895367632891,8,3,-2,9,-3,-2,-2,15
1499895367646893,-4,1,-3,5,-1,-3,-2,-21
1499895367646893,6,3,5,-9,0,0,-3,10
1499895367647892,-10,-7,-21,-21,0,0,-1,6
1499895367647892,4,1,4,26,1,-2,-2,4
1499895367668964,-10,-4,12,-21,3,-2,-1,-10
1499895367668964,-3,-1,-6,-30,-4,0,0,-5
1499895367669893,4,12,8,18,-6,-4,-4,-5
1499895367669893,-4,-8,-6,-7,1,1,0,25
1499895367691899,0,5,6,-17,5,3,-2,-27
1499895367691899,-1,-9,-16,-7,-4,1,1,-7
1499895367692895,-2,2,15,43,-2,-3,-2,0
1499895367692895,-5,7,1,24,0,1,0,-2
1499895367706899,4,-4,-8,-58,-6,1,0,8
1499895367706899,-4,3,21,-2,0,-9,-1,0
1499895367707895,1,-2,-8,10,4,2,1,-5
1499895367707895,4,0,-5,-41,-6,2,-2,7
1499895367728914,2,4,-1,12,0,-2,0,8
1499895367728914,-2,-5,3,3,3,-1,0,-12
1499895367730930,4,-8,-16,-29,-6,-7,-4,16
1499895367730930,-9,-3,0,15,7,0,0,-6
1499895367750897,17,1,-4,-19,-13,-4,-3,5
1499895367750897,-17,1,-6,2,0,1,-1,-15
1499895367752897,-6,2,-1,-34,6,3,2,0
1499895367752897,1,1,4,-39,-2,0,-2,0
1499895367766908,-14,-3,-4,27,-3,-5,-3,18
1499895367766908,16,-1,7,40,-2,-2,-2,7
1499895367767900,-3,3,12,-18,2,0,0,-7
1499895367767900,-2,-11,-30,-17,-8,-1,-2,-7
1499895367788899,-6,1,-2,-11,-1,-1,2,7
1499895367788899,-1,-2,4,-12,-3,-1,-2,2
1499895367790900,-4,-1,-3,37,-3,-1,-3,-12
1499895367790900,-2,0,9,0,0,-4,-2,-7
1499895367810965,5,0,-6,22,2,-2,-2,9
1499895367810965,-8,2,-1,-39,-2,-2,-4,-38
1499895367812901,1,-6,1,11,-4,-2,-1,8
1499895367812901,0,3,8,19,2,0,-1,13
1499895367825964,-4,-8,-25,-22,0,-1,-1,-17
1499895367825964,7,2,11,7,-4,-1,-1,9
1499895367832903,-11,2,4,-3,2,-3,-2,1
1499895367832903,-2,-6,-15,-11,0,3,0,-5
1499895367848903,9,1,-4,19,2,1,-2,0
1499895367848903,-10,-9,-4,44,-5,-9,-2,3
1499895367850904,8,2,6,-8,2,7,-2,-6
1499895367850904,1,-2,2,-42,-2,-4,0,-2
1499895367870966,-5,-1,-8,9,-3,-1,-3,1
1499895367870966,5,3,6,11,0,-2,0,1
1499895367872908,-7,0,-4,-31,-4,-2,-1,-7
1499895367872908,-2,3,-3,18,1,-1,1,4
1499895367885925,1,-2,13,-4,-3,0,-1,-12
1499895367885925,-3,-1,-7,15,-3,-3,-3,-3
1499895367892905,-2,0,5,-3,3,-2,1,12
1499895367892905,-5,-1,7,12,-3,-2,-2,8
1499895367908976,-2,3,6,-8,5,1,1,-10
1499895367908976,-10,-8,-26,32,-8,0,-2,5
1499895367909907,3,-2,-14,-13,-1,-3,-1,-4
1499895367909907,0,0,0,-40,-3,1,1,-13
1499895367930907,1,7,14,52,3,-1,-1,9
1499895367930907,-5,-4,5,-10,4,1,-1,9
1499895367932907,14,-5,-20,-36,-11,-4,-1,9
1499895367932907,-12,2,12,3,5,-1,0,-21
1499895367945912,25,-2,-1,58,-2,-2,0,45
1499895367945912,-19,3,8,-65,0,-1,-1,-6
1499895367952943,3,-5,-16,-39,-12,0,0,17
1499895367952943,-3,-3,-4,51,0,-2,-3,-29
1499895367968956,2,-2,-3,-19,-5,-1,0,12
1499895367968956,4,2,1,-8,4,2,0,-6
1499895367970911,-6,0,12,42,4,-1,-1,-4
1499895367970911,3,0,-3,-25,-4,-1,1,16
1499895367990912,-18,-6,-5,2,-4,-7,-7,-49
1499895367990912,6,0,-7,30,8,3,0,7
1499895367992911,-7,2,10,-43,-1,-1,0,-12
1499895367992911,2,-1,6,23,-2,1,0,-5
1499895368004975,-18,-5,-4,4,2,0,-3,-3
1499895368004975,11,6,-5,-53,-3,-1,0,7
1499895368013913,-3,-1,15,84,2,-7,-3,-10
1499895368013913,-2,-6,-7,-22,-2,3,-2,12
1499895368028975,-5,-4,-3,-30,-3,0,2,9
1499895368028975,-3,-5,-12,69,2,-1,-1,-12
1499895368029914,-1,-3,-13,-66,-6,-1,-2,1
1499895368029914,-3,1,11,-15,-4,-7,-3,-7
1499895368051917,0,2,7,21,3,2,1,14
1499895368051917,3,-4,-9,-33,-10,0,0,-6
1499895368052948,-1,1,8,22,2,-2,-1,-4
1499895368052948,-2,0,-3,-25,0,-1,-2,-3
1499895368065922,2,-1,-6,23,2,1,0,-16
1499895368065922,2,-4,-5,8,1,0,-1,5
1499895368072919,-6,2,18,12,2,2,0,-2
1499895368072919,2,-4,-28,-16,-3,-2,-1,5
1499895368088924,1,1,5,-1,0,-1,1,-6
1499895368088924,-5,-3,-3,20,-1,-1,-3,-9
1499895368090917,0,1,3,-12,1,-1,-3,-2
1499895368090917,9,3,15,6,0,0,0,0
1499895368110982,-1,-1,-16,-13,-5,-4,0,5
1499895368110982,5,0,2,2,0,0,1,2
1499895368112928,-8,-2,-8,-2,4,3,0,-2
1499895368112928,-3,-3,-1,41,-2,-3,-2,-5
1499895368124956,6,-1,-6,-39,-5,-1,-1,6
1499895368124956,-5,0,15,-4,2,-3,-1,-2
1499895368133921,6,1,-4,-13,1,1,-1,7
1499895368133921,0,0,9,22,-1,-2,-2,9
1499895368148921,3,-11,-30,-63,-14,-4,0,5
1499895368148921,6,6,15,10,0,0,1,9
1499895368149920,4,1,3,30,3,0,0,-2
1499895368149920,-5,-3,-8,-31,-5,-3,-1,0
1499895368170939,-2,3,23,1,2,-3,-3,-6
1499895368170939,1,-1,-2,-6,1,3,1,2
1499895368172925,-3,1,3,11,3,-1,0,-5
1499895368172925,-4,-7,-25,-36,0,3,1,5
1499895368184940,7,2,3,10,0,0,1,4
1499895368184940,-12,-2,-1,13,-2,-3,-1,17
1499895368193929,0,1,2,-18,0,0,0,-18
1499895368193929,1,3,15,26,-1,2,-2,-6
