timestamp,emg1,emg2,emg3,emg4,emg5,emg6,emg7,emg8
1499894397921618,-12,4,20,55,5,-1,-1,-8
1499894397921618,5,-4,2,-19,-5,1,3,29
1499894397923615,60,9,2,11,3,0,5,96
1499894397923615,-69,-6,-12,-39,-4,2,5,1
1499894397935629,21,11,27,36,5,5,-1,-81
1499894397935629,-4,0,12,32,2,-4,1,13
1499894397942617,3,-13,-12,39,-11,-9,-24,25
1499894397942617,9,-2,-28,-78,0,-2,-19,12
1499894397959618,80,-3,-6,30,-8,-9,19,127
1499894397959618,-51,1,13,-6,2,6,1,-52
1499894397960617,23,0,-33,-52,7,9,12,16
1499894397960617,6,5,21,76,4,-3,-24,-93
1499894397981619,-18,-12,7,-8,-10,-10,-4,1
1499894397981619,-31,2,-12,17,2,0,5,-58
1499894397983619,-12,-7,26,69,-1,-8,-4,50
1499894397983619,9,2,-9,-61,-1,3,4,44
1499894397995620,4,2,-16,-128,-8,-1,-3,-29
1499894397995620,8,-3,3,27,-7,-2,-1,-34
1499894398002623,-31,-1,6,55,13,8,4,-45
1499894398002623,-4,1,-4,-27,-14,-6,6,-24
1499894398019620,7,0,13,68,6,-3,-15,-23
1499894398019620,28,-2,-21,-38,-6,0,0,87
1499894398020620,-13,5,8,-32,1,-2,-5,-53
1499894398020620,5,-13,-7,19,-7,0,14,118
1499894398041622,-23,-8,0,-60,-18,-11,-5,-27
1499894398041622,-6,7,15,4,13,2,-9,71
1499894398043622,-14,4,10,51,-9,-5,1,11
1499894398043622,-1,-4,-6,-33,11,5,16,-57
1499894398055626,3,9,-10,-31,10,8,4,28
1499894398055626,-5,-17,-20,-61,-18,-11,-8,-57
1499894398064624,3,7,9,7,9,3,-20,-82
1499894398064624,-21,-3,2,11,-3,-3,-2,-35
1499894398086626,-3,-2,0,18,-2,-1,-11,-51
1499894398086626,35,8,-3,22,8,3,2,-39
1499894398088624,-13,-7,-13,-78,-2,2,9,-10
1499894398088624,5,7,0,30,-3,-4,-13,-6
1499894398101652,-28,-5,8,-32,9,0,-1,-45
1499894398101652,15,0,-15,43,-9,-3,3,23
1499894398103628,-28,-6,8,-19,-6,-3,-3,-7
1499894398103628,37,0,-27,-57,-2,0,4,45
1499894398116627,-16,1,10,84,10,-3,-3,17
1499894398116627,-4,-6,-14,-48,-3,0,1,-50
1499894398124628,6,1,15,26,-5,1,5,50
1499894398124628,9,5,3,51,18,12,11,11
1499894398139629,-7,5,-3,-61,-7,2,8,123
1499894398139629,-7,-8,10,96,9,-5,-6,20
1499894398140630,-10,-12,-11,-39,-13,-7,-3,31
1499894398140630,8,1,16,42,1,-1,2,-29
1499894398161643,-21,1,-34,-68,-6,4,9,45
1499894398161643,11,12,25,42,8,4,9,66
1499894398163630,-12,-8,-23,-112,-14,-1,4,-31
1499894398163630,-3,-7,-5,55,0,-4,-7,56
1499894398175631,6,4,11,32,7,3,-2,-77
1499894398175631,-23,-6,-10,6,-11,-5,-9,22
1499894398184630,-2,-4,-40,-76,-8,-5,-13,-78
1499894398184630,3,-1,0,8,5,6,17,-40
1499894398198646,31,-1,24,44,2,-1,-10,32
1499894398198646,-11,6,-4,46,6,1,-3,-46
1499894398200633,-2,-6,27,18,-16,-5,4,0
1499894398200633,-4,-2,-11,-13,-15,-8,-5,55
1499894398221632,1,-1,-4,-36,4,0,5,30
1499894398221632,-10,4,19,126,9,3,-1,-35
1499894398223636,-6,-1,-17,-97,0,0,1,18
1499894398223636,-9,-8,-11,96,-6,-3,-4,-19
1499894398235633,7,1,14,-97,-5,-2,1,22
1499894398235633,13,-6,-23,-103,-6,-2,-2,71
1499894398244637,17,3,5,18,9,2,2,-18
1499894398244637,-15,-8,-11,-17,-12,-7,-5,-9
1499894398258648,9,8,22,67,2,1,-2,-25
1499894398258648,13,3,-3,-31,7,-1,3,69
1499894398260635,-50,-18,-10,127,-5,-9,4,-50
1499894398260635,12,3,-1,-99,-1,-6,-10,-5
1499894398281637,0,-4,-16,-43,0,6,0,-28
1499894398281637,-4,3,32,29,3,3,1,-37
1499894398283637,20,9,0,-42,-3,2,4,35
1499894398283637,6,-6,-9,-27,1,-6,-3,64
1499894398295650,-21,-4,-5,46,-9,-7,-10,18
1499894398295650,-10,-12,-26,9,-15,-9,-5,-50
1499894398304641,7,-4,-10,-13,1,-5,-3,-12
1499894398304641,-30,0,7,87,9,2,-3,-63
1499894398318638,11,-3,-3,-70,-2,4,1,27
1499894398318638,14,5,10,7,2,1,-3,-2
1499894398320638,14,-4,-7,75,6,0,4,86
1499894398320638,-6,11,4,-49,0,2,0,-58
1499894398341655,7,-17,-22,7,-4,-7,2,13
1499894398341655,-22,-3,36,-10,-7,-7,1,-25
1499894398343639,-30,-1,-13,44,5,1,-3,-65
1499894398343639,-6,-4,-7,-33,-3,-1,-3,7
1499894398355640,18,-2,7,-1,2,0,2,4
1499894398355640,0,-4,-10,-27,-5,-2,-1,23
1499894398364640,-1,7,13,24,11,2,-1,-13
1499894398364640,4,0,10,93,3,-6,-1,59
1499894398378641,-13,-2,-1,-84,-15,3,-2,-57
1499894398378641,26,-8,-21,-25,-4,-4,-2,53
1499894398380640,10,7,16,65,1,-2,-6,-59
1499894398380640,15,-8,-24,-58,-13,-1,0,35
1499894398401655,-17,3,26,120,13,1,-1,8
1499894398401655,7,3,-13,-24,3,4,5,-14
1499894398403646,-11,5,10,38,0,-1,-3,-23
1499894398403646,4,0,17,-20,-6,-3,2,7
1499894398415647,-14,5,-20,38,5,6,0,-75
1499894398415647,-3,-2,0,-8,-4,-1,-1,-8
1499894398424644,14,-5,-18,-117,-5,1,0,55
1499894398424644,4,-3,5,82,1,-1,-1,28
1499894398438648,-21,0,25,7,7,-3,0,16
1499894398438648,14,7,17,-54,1,1,1,65
1499894398440646,-23,-7,-42,16,4,3,3,-33
1499894398440646,43,18,23,-8,4,7,3,1
1499894398461646,4,-20,-33,-9,-14,-13,-6,-18
1499894398461646,-12,-1,-4,-22,3,4,0,-9
1499894398463648,15,-2,16,-42,-11,-5,-3,39
1499894398463648,-17,1,8,-81,10,8,4,-81
1499894398475647,13,4,-12,48,-3,1,-5,75
1499894398475647,6,-1,3,9,0,0,-6,55
1499894398484648,3,1,-5,15,5,1,6,16
1499894398484648,-4,-8,-8,103,5,1,-3,-40
1499894398498662,19,4,14,-119,-13,-1,9,33
1499894398498662,-26,2,-16,98,1,-8,-8,-83
1499894398500649,45,-8,18,-27,-6,-6,-6,42
1499894398500649,-16,-3,-3,12,2,1,-3,21
1499894398528650,4,6,-12,8,4,2,0,-10
1499894398528650,8,2,-1,-80,1,5,2,-6
1499894398530650,-16,11,32,17,-1,-2,5,-94
1499894398530650,0,-9,5,-12,-4,0,-3,-29
1499894398543652,-32,3,0,7,1,-5,-11,-100
1499894398543652,-11,-2,-4,36,4,-1,2,-24
1499894398545651,-2,-5,-18,1,-9,-8,-10,-65
1499894398545651,5,-12,-6,-47,-11,-3,8,50
1499894398558666,2,4,0,64,5,2,3,19
1499894398558666,-3,-1,-3,-32,2,2,-3,-21
1499894398560653,-32,12,46,80,5,5,-2,-60
1499894398560653,12,-5,-59,-54,-15,-8,-7,-2
1499894398581655,-26,-12,-9,-86,-12,-7,-4,6
1499894398581655,-1,-10,3,85,-7,-9,1,38
1499894398583653,30,3,-19,-98,4,5,-4,77
1499894398583653,-13,-1,17,5,1,-3,2,16
1499894398604659,3,4,0,0,11,1,2,-39
1499894398604659,-4,-7,-16,38,-8,0,-4,-7
1499894398605654,-2,-3,2,-50,-5,2,3,55
1499894398605654,-11,5,25,10,2,-1,-3,26
1499894398618659,8,-6,-21,15,-3,-7,-5,6
1499894398618659,1,4,10,-47,5,5,6,-43
1499894398625656,-1,0,16,86,7,2,4,11
1499894398625656,-2,7,-6,-81,-6,-6,-7,-31
1499894398641671,2,-6,-15,9,-1,-5,1,48
1499894398641671,9,3,17,6,2,2,-7,-38
1499894398643659,-9,4,4,-9,7,2,-1,32
1499894398643659,12,-5,-15,-53,-17,-6,-4,22
1499894398663659,3,4,50,68,-1,0,0,65
1499894398663659,5,-4,-23,-21,-5,-4,0,-8
1499894398665658,-12,2,1,-10,5,1,0,8
1499894398665658,-20,-1,9,89,11,4,-1,-11
1499894398678658,-1,-8,-32,-61,-9,0,-4,10
1499894398678658,2,-2,7,-48,-3,-5,0,26
1499894398680658,-11,-6,1,34,-8,-6,-5,-4
1499894398680658,8,7,6,-12,3,0,1,-4
1499894398701662,3,-4,-22,-73,-15,1,-5,-23
1499894398701662,-6,-4,-11,-3,1,-5,-3,-16
1499894398703661,4,2,9,20,4,7,7,53
1499894398703661,-10,3,20,3,-3,-2,-3,-25
1499894398723663,-5,-21,-63,32,-8,-9,-5,-90
1499894398723663,-2,5,19,20,-3,-2,-2,10
1499894398730665,8,-12,-14,-24,-3,-2,-3,6
1499894398730665,1,6,15,-52,5,4,3,-1
1499894398738663,-22,2,16,96,9,6,3,-38
1499894398738663,0,-7,-23,19,-1,-3,-3,75
1499894398745677,1,-2,-10,-74,-7,-3,2,17
1499894398745677,-11,1,6,45,6,2,-1,-31
1499894398761678,31,9,26,-24,1,-3,-1,77
1499894398761678,-3,-11,-24,30,-5,0,-2,-25
1499894398763665,-1,6,7,42,3,1,0,3
1499894398763665,11,-7,-13,-74,-10,-2,0,39
1499894398783666,-29,1,0,-25,13,4,4,-11
1499894398783666,10,1,11,51,-2,-1,0,-20
1499894398785674,-7,-4,-17,-11,-5,-4,-3,-15
1499894398785674,-1,0,3,67,0,-1,-1,-14
1499894398797680,6,10,30,10,5,5,3,32
1499894398797680,-4,-8,-1,-82,-7,-5,-4,5
1499894398806670,6,0,-12,-8,-4,0,2,-16
1499894398806670,-13,-1,7,7,4,1,0,-24
1499894398821670,-3,-5,-21,44,-1,-6,-3,3
1499894398821670,-7,7,10,-25,6,8,4,-6
1499894398823667,12,0,-4,-64,-4,-1,0,-11
1499894398823667,-2,-9,-16,54,-3,-5,-5,-4
1499894398843682,13,2,10,-15,-4,-2,-1,16
1499894398843682,-4,5,6,8,4,2,1,1
1499894398845668,-10,-6,-3,-42,-7,-6,-8,-16
1499894398845668,-6,-3,-10,-54,-5,-4,-3,-21
1499894398858683,15,8,23,-51,2,6,7,41
1499894398858683,-9,-6,-29,-6,-6,-3,-3,-26
1499894398865670,2,-5,-5,67,3,1,1,30
1499894398865670,-3,-2,7,28,1,-3,-6,-43
1499894398881675,4,0,6,49,1,4,-4,-30
1499894398881675,-14,-2,1,-27,2,3,5,-9
1499894398883670,6,6,18,47,-1,-5,-1,17
1499894398883670,10,-1,4,-13,1,0,5,13
1499894398903674,0,-2,-10,11,-4,-4,-13,43
1499894398903674,13,5,17,24,-6,-3,2,-68
1499894398905674,-12,1,-14,11,5,5,1,-87
1499894398905674,8,3,23,1,-4,-2,-4,33
1499894398918673,-6,-4,-17,5,0,4,5,-18
1499894398918673,-4,1,6,33,3,-7,-4,-7
1499894398925673,-3,-9,-17,-69,-8,-4,-2,13
1499894398925673,-2,-1,-6,-34,-4,-3,-2,-6
1499894398941682,6,3,0,55,4,3,1,-10
1499894398941682,-5,-7,-4,-53,-8,-3,-3,49
1499894398943678,-3,3,16,25,7,0,1,-20
1499894398943678,8,1,-10,40,7,2,-1,33
1499894398963675,9,-9,-12,-51,-10,-8,-5,44
1499894398963675,6,5,20,-1,4,6,1,60
1499894398965676,-6,-2,-13,43,-1,-3,-12,-17
1499894398965676,-6,-6,-12,-55,-5,-3,-2,-12
1499894398978676,-12,0,0,-12,4,0,3,-21
1499894398978676,10,3,2,-31,-5,0,-1,20
1499894398985678,-6,-2,4,2,1,-4,-2,1
1499894398985678,-2,-2,-23,27,-3,0,-1,-23
1499894399001678,-2,1,9,-34,0,0,1,-1
1499894399001678,-2,-1,-8,26,2,1,0,6
1499894399003684,5,-14,-25,-43,-10,-6,-8,21
1499894399003684,-23,5,11,52,6,0,0,-45
1499894399024682,12,-6,-21,-51,-14,-4,-8,12
1499894399024682,1,-1,-3,19,4,-4,-6,-8
1499894399026681,6,2,20,5,0,-2,-5,-77
1499894399026681,-8,-1,14,4,-2,2,0,-9
1499894399037680,-8,4,-4,29,0,-4,1,3
1499894399037680,2,-6,-10,-71,-1,3,-2,-15
1499894399046683,-12,4,14,49,-2,0,2,17
1499894399046683,20,4,-10,-27,1,1,5,87
1499894399061682,-17,-2,7,-24,1,0,-1,-115
1499894399061682,-4,-6,-1,39,1,-1,-1,14
1499894399063681,1,3,3,43,2,3,5,27
1499894399063681,-6,-6,-20,-88,-12,-5,-9,-16
1499894399083683,7,0,9,20,-1,-9,2,5
1499894399083683,-3,3,24,61,9,8,2,-34
1499894399085682,-23,-9,-20,-91,-7,-3,0,-10
1499894399085682,2,1,0,7,-3,-1,-4,-17
1499894399097696,-7,0,6,-5,1,-1,-2,-9
1499894399097696,-1,-4,-15,25,0,-4,-1,-30
1499894399106687,14,7,13,-57,-1,0,-1,47
1499894399106687,5,-4,-2,71,-5,0,2,0
1499894399121684,-13,-5,-20,-49,3,-2,-3,-23
1499894399121684,4,0,-7,44,-8,0,0,5
1499894399123684,3,-1,4,27,7,3,0,-8
1499894399123684,-7,2,2,-8,1,-2,1,-14
1499894399143698,12,2,-8,-29,4,1,-6,-38
1499894399143698,-18,-3,-1,43,-6,-8,-3,-47
1499894399145688,-28,0,-19,-31,2,2,2,-33
1499894399145688,16,1,-2,60,2,-2,-1,7
1499894399157701,-8,-2,1,20,-2,4,4,31
1499894399157701,0,-1,-1,-33,1,2,-3,-53
1499894399166687,7,-4,-16,-31,-8,-4,-2,1
1499894399166687,-11,0,13,24,9,6,3,40
1499894399181688,-7,-1,-4,96,2,-2,-3,-50
1499894399181688,6,1,8,-128,-11,-6,-6,27
1499894399183691,9,4,20,45,4,4,5,31
1499894399183691,-5,-5,-35,-16,2,-2,-5,-24
1499894399203696,3,-5,8,-22,-8,2,4,90
1499894399203696,1,-6,-12,63,-2,-7,-3,26
1499894399205689,-9,3,24,68,9,-2,-2,-58
1499894399205689,-17,-6,-13,-56,-4,1,-1,-1
1499894399217716,3,1,2,21,-2,1,-3,35
1499894399217716,1,2,-3,-10,2,-3,-2,-33
1499894399226691,9,0,7,7,-3,-4,-2,24
1499894399226691,9,-4,-8,13,-1,2,1,20
1499894399241705,-2,5,20,41,7,-1,-1,-45
1499894399241705,-5,-4,-14,-90,-4,-3,1,19
1499894399243692,14,-5,-1,73,-8,-4,-3,13
1499894399243692,-10,0,7,-52,-2,2,1,-41
1499894399263693,-4,5,15,58,8,4,4,11
1499894399263693,2,3,-6,-16,4,0,0,21
1499894399265692,-19,-16,-42,-17,-9,-2,-4,48
1499894399265692,19,1,20,-3,-4,-9,-7,16
1499894399277694,-8,1,-12,13,1,3,0,7
1499894399277694,-8,0,19,61,5,-4,-1,-16
1499894399286700,11,3,2,-23,0,4,0,7
1499894399286700,1,-1,-14,-54,-2,-1,-1,19
1499894399301695,-4,-4,6,8,-2,-6,-3,41
1499894399301695,10,6,13,31,0,1,2,15
1499894399303700,28,-10,-13,-28,-13,-14,-9,-26
1499894399303700,1,-2,2,23,5,3,-2,-53
1499894399323699,13,1,-15,-53,-5,-3,-2,0
1499894399323699,-11,-3,0,34,0,0,0,-8
1499894399325696,-6,8,22,-43,5,5,3,-13
1499894399325696,-4,-2,7,39,8,2,1,2
1499894399337698,9,-12,-35,-80,-18,-11,-3,13
1499894399337698,11,1,-2,-21,-2,-5,-2,53
1499894399346699,-5,2,-4,16,5,7,3,-25
1499894399346699,11,5,15,32,9,6,5,38
1499894399360711,-20,-5,3,-18,-5,-1,-2,-12
1499894399360711,5,-5,-11,-45,-14,-3,3,-6
1499894399368699,-1,0,-14,-15,4,-1,-4,-33
1499894399368699,-7,3,15,-11,-2,-5,-1,-4
1499894399383700,3,-2,-3,82,8,5,3,-32
1499894399383700,-8,6,11,-2,3,3,-3,-51
1499894399391700,2,1,-5,-64,-2,-1,-1,40
1499894399391700,-1,-8,-21,45,-13,-6,-2,-4
1499894399397714,-9,7,4,-5,3,0,-1,-64
1499894399397714,6,-4,9,41,6,4,2,34
1499894399406705,-6,-2,-8,-37,-6,-1,-2,10
1499894399406705,-15,-3,-6,-6,3,-1,0,-15
1499894399421703,8,-1,5,-31,-4,-2,-2,-14
1499894399421703,-3,-5,-19,44,-4,-4,-2,-7
1499894399422701,-9,3,1,-60,-5,1,1,10
1499894399422701,-1,-1,-1,63,-4,-2,-3,-12
1499894399443702,0,1,17,-34,4,8,5,-23
1499894399443702,-6,-2,5,43,2,-1,-2,-1
1499894399445703,-9,-5,-10,-19,-10,-8,-2,12
1499894399445703,-2,2,2,-27,-1,-3,-1,-14
1499894399457705,0,0,8,12,-1,-1,2,13
1499894399457705,11,1,-9,-47,3,4,-1,11
1499894399466705,-5,-1,16,85,2,-4,0,-11
1499894399466705,13,1,3,-3,1,3,5,87
1499894399481707,-13,-3,-10,48,0,-4,-5,-59
1499894399481707,-15,-1,2,-88,0,0,-1,-11
1499894399483707,24,-9,-15,24,-5,-1,1,46
1499894399483707,-6,4,23,-2,0,0,6,52
1499894399504715,12,2,-19,7,6,0,-5,-11
1499894399504715,-6,-8,-16,22,-5,-3,-2,-10
1499894399505707,-15,3,-8,-72,2,1,-4,-19
1499894399505707,-6,-2,8,80,-3,-1,-3,-26
1499894399526709,-5,-3,5,-22,-7,-9,-5,26
1499894399526709,3,2,4,6,0,4,-1,-22
1499894399527707,-2,1,14,42,9,-1,-2,-42
1499894399527707,-4,1,-14,-81,-6,1,-2,-38
1499894399541708,0,-7,-10,-52,-10,-4,0,39
1499894399541708,2,6,14,1,0,-4,-3,13
1499894399542708,-3,-8,-32,5,-2,1,-1,-6
1499894399542708,4,1,8,29,5,-4,-2,-35
1499894399563710,-8,-3,12,25,-2,3,4,68
1499894399563710,9,5,-2,-23,0,2,3,1
1499894399565712,-12,4,16,65,8,2,0,-3
1499894399565712,9,-7,-22,-74,-10,-6,-4,-2
1499894399586718,2,-1,-11,73,3,1,1,37
1499894399586718,10,1,17,-40,-5,-4,-2,3
1499894399587715,2,2,8,-25,6,0,0,-19
1499894399587715,10,-3,-9,9,-5,-5,-3,69
1499894399601713,5,-6,-9,-15,-2,0,1,-9
1499894399601713,-4,-1,-7,11,3,2,1,15
1499894399603714,-5,-5,-3,14,-9,-3,-3,1
1499894399603714,-11,2,13,24,-2,-4,-4,-58
1499894399623716,1,-1,-2,-62,-8,-6,-2,26
1499894399623716,-16,0,-5,17,4,4,-2,-47
1499894399625714,16,-7,-16,-17,-5,1,0,57
1499894399625714,1,-1,6,-2,4,3,0,-11
1499894399646730,-13,-2,-3,23,1,-1,-1,-19
1499894399646730,0,-2,-3,-7,-3,-4,-3,-12
1499894399647717,-7,-2,21,9,0,0,0,-12
1499894399647717,-1,-5,-9,-55,-2,-1,0,-18
1499894399660729,6,5,10,35,4,0,-5,-26
1499894399660729,-2,-1,-8,-36,-1,-2,0,21
1499894399667729,-14,-2,0,5,-2,-1,-2,-26
1499894399667729,3,-4,-17,-11,6,4,0,23
1499894399684725,8,1,5,42,2,1,2,51
1499894399684725,-17,-2,12,-54,-20,-9,-5,-4
1499894399685718,11,3,-4,15,0,-3,-1,-13
1499894399685718,-7,0,-2,16,4,-1,-1,-9
1499894399706732,-1,7,17,5,3,3,3,-16
1499894399706732,-13,-11,-30,46,4,1,-3,-17
1499894399708718,-1,4,15,2,-10,-3,0,4
1499894399708718,3,-5,-12,-19,-6,-9,-3,14
1499894399720719,-5,-4,-16,2,1,5,-5,-73
1499894399720719,4,2,-1,29,4,1,-1,10
1499894399727719,7,7,1,-83,3,4,3,10
1499894399727719,-6,-3,10,46,0,-2,-2,52
1499894399743735,-18,-4,-1,-15,-6,-7,-5,-22
1499894399743735,11,0,5,-15,3,5,3,3
1499894399750724,-6,-2,-9,56,7,-1,-2,-2
1499894399750724,7,3,5,-22,-4,1,6,57
1499894399766721,0,3,9,36,7,5,-1,-45
1499894399766721,-3,-5,-7,-69,-8,-5,-1,-5
1499894399767722,0,5,6,29,-3,-2,-1,13
1499894399767722,-2,-5,-11,14,-1,1,-2,-56
1499894399780722,-1,-2,7,-30,-2,-6,0,10
1499894399780722,0,2,-3,90,7,5,-2,37
1499894399787724,22,-1,13,-46,-10,-5,-3,17
1499894399787724,-32,-4,-22,1,-5,-3,-5,-45
1499894399803741,8,2,18,7,2,6,-1,38
1499894399803741,-9,-8,-21,-17,-10,-6,-2,-8
1499894399805726,3,0,-3,24,4,1,0,12
1499894399805726,7,2,3,-7,3,3,-1,-33
1499894399826727,-3,-6,-7,-21,-12,-12,-2,7
1499894399826727,3,5,10,-27,1,0,1,2
1499894399827726,1,-2,-11,12,1,2,0,22
1499894399827726,4,1,2,57,5,4,3,-24
1499894399840726,-10,-1,-5,-64,-7,-3,-4,-19
1499894399840726,11,1,0,-7,1,-2,3,36
1499894399847739,-7,2,6,44,2,-1,-4,39
1499894399847739,6,-2,-1,30,-3,-2,-2,25
1499894399863729,-16,-4,-9,-37,-5,-1,-1,-85
1499894399863729,0,5,10,26,2,-3,-2,-14
1499894399865727,-2,1,3,-5,2,5,4,39
1499894399865727,-2,-3,-2,-18,-2,-3,-3,-16
1499894399886739,11,3,14,2,0,1,1,17
1499894399886739,-2,-11,-23,48,-2,-3,-2,17
1499894399887729,0,0,1,-1,-3,-7,-2,-43
1499894399887729,-1,6,20,-38,-4,6,1,-11
1499894399900735,2,-2,-17,-6,6,4,3,10
1499894399900735,-7,-1,-5,10,0,-1,-3,10
1499894399907743,26,2,6,29,0,1,4,4
1499894399907743,-4,-5,-8,-55,-8,-6,-4,3
1499894399923731,1,2,0,21,1,0,1,7
1499894399923731,-4,3,21,-9,2,2,0,-4
1499894399925733,5,-6,-14,-16,-5,-4,-1,5
1499894399925733,-15,-3,-17,17,1,3,1,-2
1499894399946747,7,3,6,32,-1,-1,2,-37
1499894399946747,1,0,3,-25,-1,-2,-8,-36
1499894399947751,-8,-10,12,-58,-9,-4,-4,-17
1499894399947751,-1,4,14,20,3,0,1,-6
1499894399960791,-3,-4,-20,-10,2,-3,-1,22
1499894399960791,13,0,-7,31,1,3,3,34
1499894399967780,-26,-5,11,-22,-3,-4,-7,-75
1499894399967780,2,0,4,19,-2,-4,-4,15
1499894399983758,-2,-2,15,37,-2,-6,-4,5
1499894399983758,10,-1,-22,-97,-7,2,0,24
1499894399985735,-19,0,-3,33,4,2,1,-15
1499894399985735,3,0,3,-42,1,1,1,30
1499894400006774,-3,-3,-9,28,-1,-3,-1,-49
1499894400006774,-4,1,2,-23,-3,-3,-2,-14
1499894400007756,-3,-1,-13,14,0,0,2,30
1499894400007756,0,-1,7,14,-2,-1,-3,-20
1499894400019756,13,-3,-15,-27,1,1,-3,94
1499894400019756,-30,-12,-5,14,-9,-7,-4,-38
1499894400028758,1,2,4,51,5,0,2,-14
1499894400028758,4,2,-9,-80,-4,-4,0,21
1499894400043775,-2,-3,9,10,-9,2,0,17
1499894400043775,2,-1,-3,43,2,-5,-1,-11
1499894400050811,3,0,16,32,2,-2,-1,11
1499894400050811,-6,-4,-9,-4,1,0,-1,-7
1499894400066740,7,4,10,-11,4,4,1,-4
1499894400066740,-4,-5,-27,-73,-7,-8,-2,-8
1499894400067751,-11,-5,0,85,-2,2,-3,-47
1499894400067751,-10,4,14,-51,-2,0,-2,-21
1499894400079740,-6,-7,-13,-27,1,1,2,32
1499894400079740,5,4,14,74,2,0,2,5
1499894400089741,6,1,-12,-76,-1,1,0,7
1499894400089741,18,1,8,10,-6,-2,4,68
1499894400103745,-8,1,0,27,0,-1,-1,14
1499894400103745,11,0,7,15,4,1,-1,69
1499894400112741,0,-1,-15,-45,-8,-4,-4,-11
1499894400112741,-5,-2,-4,52,-3,-3,-3,-22
1499894400126763,-2,-1,-4,-22,-3,-6,-3,0
1499894400126763,-4,-2,4,13,2,-1,-1,-15
1499894400127764,0,2,5,-24,2,5,0,-3
1499894400127764,0,-5,-9,25,3,-3,-1,14
1499894400139743,-16,-2,5,-36,-5,-1,-1,-51
1499894400139743,-3,9,25,30,1,2,3,-1
1499894400148802,-5,-12,-35,-37,-6,-2,-3,-15
1499894400148802,-4,5,3,-37,-2,-3,0,-25
1499894400163745,0,-2,0,-3,1,3,-2,-18
1499894400163745,5,-1,6,35,-10,-3,1,-4
1499894400165744,0,2,8,-19,-3,-4,-1,11
1499894400165744,11,0,-9,6,4,3,0,6
1499894400186751,-7,-7,-12,-9,-8,-7,-3,-17
1499894400186751,6,-3,-6,-33,0,-2,-3,-3
1499894400187747,-8,0,2,7,2,0,4,12
1499894400187747,3,2,7,48,5,4,1,-29
1499894400200764,3,2,10,-23,0,-1,-1,7
1499894400200764,-13,-9,-9,-52,-5,-4,-8,-53
1499894400209760,17,1,1,15,-2,-1,1,19
1499894400209760,-16,0,-4,-17,2,3,-3,-30
1499894400223764,-14,2,8,58,1,-3,-3,-4
1499894400223764,10,-6,-16,-8,-7,-3,0,12
1499894400225748,0,-1,14,-7,-1,-4,-5,7
1499894400225748,5,-3,12,52,1,0,-3,18
1499894400246808,-2,-3,-11,-62,-11,-5,1,-12
1499894400246808,-6,1,2,-2,2,2,0,2
1499894400247755,1,4,-1,-4,5,3,1,23
1499894400247755,2,-3,-4,-26,-8,-4,-4,12
1499894400260763,13,-7,-6,22,-1,-1,-4,35
1499894400260763,4,6,10,-2,1,0,1,14
1499894400268756,-4,-2,-6,-19,-4,-3,-1,-23
1499894400268756,-17,-2,8,13,5,0,-1,-50
1499894400283772,7,4,-4,-10,-5,-3,4,74
1499894400283772,-2,1,5,-1,4,2,1,-15
1499894400285752,0,-2,-5,11,0,0,1,18
1499894400285752,0,-2,-3,-16,-2,-3,-2,9
1499894400306798,9,-3,-4,2,0,-1,1,-12
1499894400306798,-3,2,3,18,3,3,0,7
1499894400307772,-5,-3,-2,25,3,0,0,-1
1499894400307772,6,-1,4,-37,-2,1,0,10
1499894400319771,-2,4,14,62,5,-2,-2,-40
1499894400319771,-2,-5,-26,-77,-1,4,1,6
1499894400329772,3,-5,-6,47,-3,-4,-5,6
1499894400329772,-12,-3,-17,-18,0,-2,-1,-16
1499894400343802,13,4,6,11,5,3,1,33
1499894400343802,-21,1,7,23,-6,-6,-3,-54
1499894400345755,15,-1,-4,-6,1,-1,-2,-10
1499894400345755,4,-3,0,31,-4,-3,-2,8
1499894400366757,-3,0,-7,-76,-1,2,1,1
1499894400366757,1,-2,1,77,4,-3,-5,-44
1499894400367766,-11,-2,-7,-88,-6,-2,-1,-6
1499894400367766,0,1,7,82,-3,-3,-1,-12
1499894400379761,9,-1,-12,-40,-1,-2,-2,-8
1499894400379761,1,-1,4,-2,1,2,2,22
1499894400388758,-10,2,7,24,5,-1,1,-14
1499894400388758,5,-7,-13,-12,-4,-6,-3,7
1499894400403806,13,4,7,-11,0,4,-1,19
1499894400403806,-7,-3,-14,19,2,1,2,3
1499894400405762,-3,-4,-4,42,1,-2,0,19
1499894400405762,0,-2,-11,-87,-8,-1,1,3
1499894400426763,-21,-2,9,77,3,-1,-3,-47
1499894400426763,3,2,2,-34,-4,-5,0,9
1499894400427761,3,0,1,31,0,3,-4,13
1499894400427761,1,-1,-1,-11,-2,-6,2,26
1499894400448779,-1,-5,-13,-11,-2,1,-1,-6
1499894400448779,8,2,13,7,2,4,1,-6
1499894400450761,-14,-4,-18,1,-2,-3,0,-15
1499894400450761,3,4,11,-44,0,2,0,-8
1499894400463762,-7,-9,-15,-3,-2,-6,-3,15
1499894400463762,0,3,10,-2,2,2,0,21
1499894400465763,2,-2,-12,-9,-5,-3,-1,-52
1499894400465763,8,4,26,82,9,2,0,19
1499894400486765,-13,3,-4,26,0,-2,0,-48
1499894400486765,0,-5,2,-55,-12,-8,-1,35
1499894400487763,0,-1,-2,-16,-3,4,1,12
1499894400487763,4,-2,-7,7,-1,1,-1,14
1499894400508765,-5,1,1,6,4,2,-1,-4
1499894400508765,1,-6,-9,38,-6,-5,-4,-6
1499894400511766,-11,3,18,-10,-2,-5,-5,-19
1499894400511766,-9,-6,-13,-38,-2,1,0,-15
1499894400523768,3,3,3,8,-5,0,-3,7
1499894400523768,-5,-3,-17,27,6,2,1,-5
1499894400525767,8,4,9,-23,2,-3,3,97
1499894400525767,-4,-4,-3,30,-1,-1,-4,-12
1499894400546780,0,0,-7,-53,-8,-2,-2,8
1499894400546780,-4,1,0,-15,3,3,-1,-17
1499894400547768,-6,-6,-17,-9,-4,-2,0,-5
1499894400547768,4,3,6,29,1,-2,1,1
1499894400576771,-4,-3,-3,-14,-2,-2,1,-8
1499894400576771,-8,1,-5,-4,-3,0,-3,-70
1499894400577771,-1,1,20,61,3,2,-3,-6
1499894400577771,-12,-10,-33,-62,-7,-5,-5,-6
1499894400583773,2,-2,5,89,6,-1,0,-24
1499894400583773,0,4,-5,-110,-8,0,1,16
1499894400589770,-2,3,8,53,5,3,2,-15
1499894400589770,2,3,19,-6,-2,0,1,-16
1499894400606785,6,-2,-10,-40,-2,-1,-5,-48
1499894400606785,-1,-9,-6,15,1,-4,-4,12
1499894400607775,1,7,5,-1,3,2,-1,0
1499894400607775,10,4,2,15,1,-1,3,49
1499894400628771,-8,-10,-24,11,-7,-5,-1,7
1499894400628771,-1,5,26,-20,-1,-1,-3,-2
1499894400630771,1,-3,-3,-45,-4,-1,-1,-23
1499894400630771,-14,0,-14,27,6,0,-2,6
1499894400642787,3,2,3,51,2,0,-2,27
1499894400642787,-2,-4,9,6,-9,-5,-4,-2
1499894400651773,11,-3,-5,-6,-3,0,4,46
1499894400651773,0,-3,-10,-20,-2,1,-3,-26
1499894400666776,-5,2,15,-2,2,0,0,11
1499894400666776,-3,-3,-7,43,3,2,-2,-29
1499894400667782,4,-1,-1,-16,-1,-2,-2,-1
1499894400667782,-2,2,12,-16,-5,0,2,-28
1499894400688776,5,1,-1,15,2,-2,-4,-32
1499894400688776,-12,-3,-11,-15,-1,-1,3,-14
1499894400690775,-5,-4,-7,-3,-7,-5,-5,-8
1499894400690775,-2,-6,0,-6,1,-1,-4,-8
1499894400703799,-5,1,-5,2,0,1,2,14
1499894400703799,9,6,26,34,8,4,4,11
1499894400710775,3,5,2,1,-1,1,0,-13
1499894400710775,-9,-11,-11,17,-6,-6,-5,1
1499894400726777,0,5,5,-86,-5,-4,3,17
1499894400726777,4,4,0,29,10,5,-4,2
1499894400727778,2,4,7,-15,3,2,0,-14
1499894400727778,-4,-1,2,2,2,1,2,-7
1499894400756779,3,-5,-5,21,-3,-4,0,21
1499894400756779,5,-3,-5,19,-3,-1,-1,11
1499894400757780,-9,3,11,-45,-5,-2,0,-15
1499894400757780,-5,-4,-13,-1,-1,-1,1,-3
1499894400763779,-5,-6,-7,-19,-1,-4,-6,-54
1499894400763779,0,-3,-14,63,-2,-1,-3,13
1499894400769780,13,2,7,-73,-2,1,2,72
1499894400769780,-9,2,-1,16,0,-2,2,5
1499894400786783,5,-2,-1,4,1,3,-2,32
1499894400786783,-11,1,9,-20,-4,-4,-4,48
1499894400787783,5,-6,-16,50,3,0,1,-11
1499894400787783,1,2,19,-14,-1,0,-2,-14
1499894400808796,-13,2,11,7,-7,-1,-3,-14
1499894400808796,4,-7,-4,1,-4,-9,-3,8
1499894400810782,-3,0,1,1,-2,3,-3,-1
1499894400810782,0,-4,-13,-42,-8,-3,-4,-3
1499894400823785,4,-1,-4,13,2,7,2,20
1499894400823785,-4,-3,-8,-20,-7,-4,0,-8
1499894400829783,-13,1,7,-2,4,-3,-3,-42
1499894400829783,12,-1,-2,21,-3,-2,-1,11
1499894400846784,25,5,5,15,3,-2,2,76
1499894400846784,-5,-6,-9,-34,0,2,1,-51
1499894400847784,-2,-7,-11,28,-9,-7,-1,1
1499894400847784,2,3,9,12,2,1,-5,-22
1499894400868786,-7,0,9,-4,1,-2,2,7
1499894400868786,-1,-6,-26,-10,-7,-1,-2,-7
1499894400870785,-10,-4,-7,-45,1,-3,-3,-14
1499894400870785,3,-1,-3,-8,-4,-3,-4,19
1499894400883790,4,1,7,2,1,3,0,-11
1499894400883790,-3,2,9,0,1,0,1,3
1499894400890789,8,-4,-8,30,2,-1,-2,0
1499894400890789,1,0,-6,-32,-5,0,0,18
1499894400905802,-5,0,4,-35,-4,-3,-1,2
1499894400905802,-2,-7,-12,-7,3,4,0,4
1499894400906788,2,1,-6,15,-2,-1,1,16
1499894400906788,-1,2,8,5,0,-2,0,15
1499894400928789,0,-3,-5,0,-3,-2,-1,50
1499894400928789,-2,-2,-3,-18,-6,-4,-4,-8
1499894400928789,2,3,4,8,0,0,0,30
1499894400928789,1,-7,-13,60,3,1,1,-4
1499894400951791,-14,5,18,8,1,-2,0,-29
1499894400951791,-8,2,1,-32,-8,-1,-2,-39
1499894400952797,5,-4,-2,6,2,-4,-1,-19
1499894400952797,-2,3,3,-12,1,1,2,-7
1499894400965792,-3,-4,-19,27,1,0,-2,-33
1499894400965792,1,3,9,19,6,1,1,14
1499894400966791,-3,-2,-4,-14,-1,1,0,-23
1499894400966791,1,-2,-4,-5,-7,-3,-3,8
1499894400988792,3,-2,-3,-5,-1,-3,-5,24
1499894400988792,11,2,12,25,-4,-6,-2,28
1499894400988792,-7,-1,-3,-27,2,6,-2,-19
1499894400988792,-4,-5,8,10,-4,-1,-1,-6
1499894401011796,3,1,-1,-33,-3,-4,1,42
1499894401011796,-14,-3,-4,40,6,5,1,-55
1499894401012796,3,4,10,25,-1,-4,-3,14
1499894401012796,-5,-2,-6,-38,-4,1,-2,-8
1499894401025795,-8,-12,-29,-18,-6,-2,-1,-31
1499894401025795,16,4,10,-12,-2,-8,0,105
1499894401026794,-6,-1,8,45,6,2,-1,-21
1499894401026794,7,4,-12,-58,-1,0,-2,-6
1499894401048795,-6,-4,-5,40,1,1,-1,-29
1499894401048795,-1,1,3,-29,-2,0,0,12
1499894401048795,1,-1,-4,1,-4,-1,-1,-3
1499894401048795,2,-2,10,36,5,-2,-2,11
1499894401071797,2,0,13,17,1,0,0,23
1499894401071797,-4,-1,-22,-15,4,1,0,-38
1499894401072796,-2,2,4,20,-2,0,1,4
1499894401072796,-7,-5,-24,-6,3,-2,-2,-23
1499894401085800,-4,2,3,-16,-1,2,-1,-21
1499894401085800,8,-2,0,-33,-3,-2,-2,3
1499894401086804,0,0,-4,-10,2,-2,-1,-11
1499894401086804,2,0,17,77,8,0,1,4
1499894401108813,10,0,-23,-39,-6,3,-1,14
1499894401108813,10,3,4,-44,-11,-2,-2,40
1499894401108813,-13,-8,-15,13,-4,-7,-9,-89
1499894401108813,-2,2,9,-21,2,2,1,9
1499894401131803,-3,2,18,84,5,-2,1,-8
1499894401131803,-4,-6,-19,-33,-2,0,0,-28
1499894401131803,1,2,4,-21,-5,-2,0,32
1499894401131803,-4,-3,7,21,-3,-3,-4,0
1499894401145801,-7,-1,-10,-6,2,3,0,-28
1499894401145801,3,-1,1,41,3,-2,0,7
1499894401146803,-2,4,4,-41,0,1,0,-39
1499894401146803,13,-4,-18,-31,-7,-3,1,30
1499894401168802,-6,-2,9,-20,-5,-4,0,-15
1499894401168802,8,1,3,67,7,3,-3,5
1499894401168802,0,-6,-2,-23,-1,-2,0,27
1499894401168802,7,10,23,26,2,4,2,0
1499894401191804,4,-6,-30,-16,-5,-6,-6,4
1499894401191804,-11,-5,6,-28,-1,-2,-7,-68
1499894401192804,-6,3,2,-5,4,4,4,-5
1499894401192804,1,0,-3,10,-4,1,-1,-6
1499894401205819,4,-3,4,-14,1,-4,-5,-16
1499894401205819,-7,3,16,30,4,-1,1,6
1499894401206805,3,-2,-13,21,-5,-3,0,23
1499894401206805,-8,2,-8,-33,1,0,2,-6
1499894401228808,5,-2,1,33,-4,-1,-2,13
1499894401228808,22,-3,-1,19,0,1,1,33
1499894401228808,-3,0,8,9,1,-1,0,31
1499894401228808,-3,-3,-8,-17,-5,-5,-4,9
1499894401251807,5,4,12,6,0,5,0,7
1499894401251807,-11,-2,-11,-33,-3,-5,0,-1
1499894401252809,8,-5,-1,52,-1,-1,-2,43
1499894401252809,-10,0,9,-36,0,-2,-1,-18
1499894401265843,-8,-3,-15,-9,-1,-1,1,-2
1499894401265843,4,1,12,32,-4,-3,-1,2
1499894401266812,-10,-1,-6,-30,-7,-3,-1,-19
1499894401266812,-1,2,-2,2,4,2,-1,6
1499894401288809,-5,-7,19,10,0,0,-3,-72
1499894401288809,2,0,-9,-59,-2,0,-1,46
1499894401288809,0,-4,-7,-46,-10,-10,-4,46
1499894401288809,-10,-2,9,75,1,3,-6,-59
1499894401310848,-15,-6,-4,22,4,0,0,-27
1499894401310848,-3,1,-8,8,-2,-2,-1,-8
1499894401312811,9,-3,-4,13,0,0,-1,-17
1499894401312811,2,3,0,-27,-5,-3,0,-1
1499894401325815,-2,4,8,-62,-2,-2,0,15
1499894401325815,-8,-1,-2,46,0,2,-3,-6
1499894401326811,3,1,4,-49,2,0,0,11
1499894401326811,1,-11,-28,1,-2,-3,0,4
1499894401348818,-5,-1,0,10,1,-1,-1,-1
1499894401348818,-13,-1,7,5,-2,-4,-4,-1
1499894401348818,10,4,0,-23,0,3,0,-2
1499894401348818,-2,-3,-14,61,4,1,1,11
1499894401370818,-7,-3,-4,-73,-4,-5,0,-14
1499894401370818,-4,-4,-9,-33,-7,0,1,-12
1499894401371815,-11,-4,7,74,3,-4,-2,-14
1499894401371815,-4,2,-14,-52,-8,-10,-8,-74
1499894401385815,-4,-6,9,13,1,4,-1,5
1499894401385815,2,-3,-17,8,5,4,3,4
1499894401386828,-4,-4,-5,-37,-4,-2,-2,-1
1499894401386828,3,2,1,18,2,2,3,26
1499894401408834,5,6,21,-1,1,-1,-1,15
1499894401408834,-2,0,1,85,3,-5,-2,-20
1499894401408834,-5,-4,-7,-91,-6,4,-2,-21
1499894401408834,2,2,12,2,5,1,1,-19
1499894401430838,10,5,-3,-11,0,1,-1,23
1499894401430838,3,-3,10,24,-5,-4,0,7
1499894401438818,5,-1,-7,27,1,-1,-1,-18
1499894401438818,1,-4,-3,-43,-2,0,1,11
1499894401445871,12,2,1,-6,-2,-2,-4,-3
1499894401445871,-4,3,11,55,6,3,0,-68
1499894401446823,10,4,-16,-33,-4,1,1,22
1499894401446823,-9,-9,-4,-51,-9,-2,-1,-33
1499894401468820,1,0,2,54,2,0,1,-39
1499894401468820,-4,-1,-4,-51,-2,-2,-2,8
1499894401468820,1,1,5,46,5,0,-1,0
1499894401468820,12,-2,1,-14,2,0,2,48
1499894401490823,-8,0,-6,39,-1,-6,1,20
1499894401490823,2,1,6,-86,0,5,1,15
1499894401491821,-13,-2,-3,44,0,-3,0,-22
1499894401491821,9,4,5,20,2,3,-1,26
1499894401505869,2,-5,5,-12,-1,-1,0,1
1499894401505869,1,-1,-5,-8,-1,-6,-2,0
1499894401506827,-3,-3,-3,1,-3,0,-3,-2
1499894401506827,-4,-4,-10,51,1,-1,-3,5
1499894401528830,-1,1,-5,-61,-11,-2,-3,16
1499894401528830,-14,-7,-3,-29,-7,-4,-3,-42
1499894401528830,-16,-5,0,10,-1,-4,-5,-38
1499894401528830,-7,-1,-8,18,-3,-2,-1,8
1499894401550828,-3,4,16,-18,3,0,1,-15
1499894401550828,2,-1,-17,11,-8,1,0,22
1499894401558891,-2,-5,6,51,-1,-5,-2,8
1499894401558891,1,0,14,-7,2,0,2,4
1499894401565867,0,-2,-14,48,6,2,2,8
1499894401565867,-3,-2,-13,-96,-5,-5,-1,22
1499894401566828,7,4,2,18,3,8,1,-1
1499894401566828,-3,2,6,1,1,-2,-2,4
1499894401588828,2,-3,-16,-11,-2,0,-1,22
1499894401588828,4,4,13,47,6,1,1,-10
1499894401588828,-1,-2,0,11,-4,-3,3,-10
1499894401588828,-9,-5,-7,-33,-1,-3,-3,-29
1499894401610886,7,0,3,-8,-3,-4,-4,35
1499894401610886,-5,0,-10,34,2,0,0,-29
1499894401611829,-2,2,16,2,0,1,0,-4
1499894401611829,-5,-6,-22,-52,-14,-2,0,-9
1499894401625828,-1,-2,-7,21,-1,-2,-1,-10
1499894401625828,2,-4,3,-17,0,-1,0,27
1499894401626829,9,4,0,-3,2,0,2,3
1499894401626829,4,5,12,38,6,0,-2,-23
1499894401648840,-13,-10,-35,-22,-4,1,0,-4
1499894401648840,7,-4,-2,-8,-12,-4,0,17
1499894401648840,0,1,1,-1,1,-6,-2,3
1499894401648840,8,0,-2,1,1,0,3,34
1499894401670832,-6,-3,-13,-7,5,6,0,16
1499894401670832,-10,0,17,57,2,1,1,-44
1499894401671832,-2,-5,-11,-57,-8,-4,-5,0
1499894401671832,4,3,11,47,-5,-6,-4,-2
1499894401685838,6,6,14,13,0,-1,1,4
1499894401685838,3,-2,-9,10,2,2,-2,18
1499894401686835,-1,-3,0,-65,-5,-1,0,6
1499894401686835,13,0,-4,15,1,0,-2,47
1499894401708893,-7,-2,12,27,1,-2,-1,-14
1499894401708893,9,1,3,-18,-3,-2,-1,10
1499894401708893,-2,0,-3,22,1,0,-2,10
1499894401708893,-8,3,-7,-17,4,1,0,-40
1499894401730856,0,-2,16,17,-3,-1,0,-26
1499894401730856,-2,3,3,3,3,-2,-1,8
1499894401731836,7,-5,-13,-30,-4,2,0,33
1499894401731836,-4,-2,0,-7,-8,-3,1,-27
1499894401745905,-3,3,4,18,4,0,-1,-9
1499894401745905,1,-3,-8,-18,-4,-7,-2,-4
1499894401746837,-30,-4,-6,13,0,2,-3,-34
1499894401746837,1,-2,11,26,-1,-1,-1,3
1499894401768838,3,-1,-4,-52,-4,-2,-1,6
1499894401768838,-5,0,-8,7,0,-4,-1,7
1499894401768838,4,5,16,-27,4,6,3,12
1499894401768838,-4,-6,-15,-18,-4,-3,-2,9
1499894401790842,1,0,5,2,0,-1,-1,3
1499894401790842,0,3,4,10,6,2,1,17
1499894401791838,0,-1,0,7,-1,-6,-2,-2
1499894401791838,-6,0,2,-18,-2,-3,-3,-24
1499894401805879,9,0,-4,33,2,-2,-2,12
1499894401805879,1,0,7,-22,1,0,1,-4
1499894401806845,4,-2,-7,12,-1,-2,1,17
1499894401806845,-26,0,8,39,6,3,-3,-39
1499894401828842,-17,-1,-11,-28,-11,-6,-6,-50
1499894401828842,-1,-5,3,-43,-6,3,0,4
1499894401828842,13,-1,-2,7,-2,-5,-3,20
1499894401828842,-1,-2,-5,-7,2,-2,-1,16
1499894401850843,-4,4,10,4,-1,2,-1,-36
1499894401850843,-4,0,-12,1,-1,3,0,29
1499894401851842,-4,-4,9,6,1,-2,-1,-14
1499894401851842,9,-4,-19,-18,-4,-1,1,24
1499894401865843,2,2,11,16,6,-1,3,-6
1499894401865843,0,-4,-19,-54,-12,-8,-1,3
1499894401866844,-5,-2,-12,-8,-4,5,2,-14
1499894401866844,12,4,23,24,0,-1,-4,24
1499894401888847,-3,0,-2,-42,-5,1,1,20
1499894401888847,6,-2,14,47,5,-2,-1,-12
1499894401888847,-5,-1,-9,16,-2,-4,-1,5
1499894401888847,-3,-3,4,-31,-5,-1,1,1
1499894401910884,-11,3,-1,39,5,0,-2,-22
1499894401910884,3,-10,-15,-21,-5,0,-3,-4
1499894401912846,5,5,20,5,-6,-7,-4,3
1499894401912846,-8,-12,-19,-11,0,4,-1,-17
1499894401925846,7,-2,4,-6,1,-1,0,17
1499894401925846,-7,0,5,-20,0,1,0,-4
1499894401927124,-1,1,2,68,0,-4,-2,-16
1499894401927124,-1,0,0,-14,-2,0,1,6
1499894401948670,0,-2,6,5,0,-1,1,9
1499894401948670,-2,1,1,31,6,2,-2,-13
1499894401949651,-3,-6,-6,-33,-3,1,3,-8
1499894401949651,10,5,-3,-22,-4,-3,-3,13
1499894401970615,-2,-3,-3,28,0,-2,-1,10
1499894401970615,-1,5,13,-23,-2,3,0,1
1499894401971612,-5,-10,-20,26,-1,0,-1,-4
1499894401971612,0,3,6,7,3,1,3,7
1499894401985628,1,-1,-6,-21,-4,-2,-1,1
1499894401985628,-6,-1,6,64,4,-4,-2,-12
1499894401993656,7,2,-3,-96,-8,-3,0,10
1499894401993656,10,1,11,35,4,6,3,37
1499894402008655,3,-5,-21,-60,-9,-5,-2,7
1499894402008655,2,4,5,19,5,0,-2,3
1499894402009624,-4,-7,-11,1,-1,-5,-3,2
1499894402009624,-3,-1,2,3,1,2,-2,-14
1499894402031647,4,3,6,7,2,1,1,-25
1499894402031647,0,-6,-17,-18,-3,0,0,29
1499894402031647,-26,-2,5,52,4,0,1,4
1499894402031647,11,3,7,-29,1,-5,-5,-9
1499894402045658,2,-6,-6,10,-6,-2,-2,-1
1499894402045658,-2,1,2,-15,-1,2,1,-10
1499894402053653,13,4,5,7,2,-1,0,13
1499894402053653,-13,-5,1,33,5,5,-1,5
1499894402068620,-5,-5,-6,-57,-12,-5,-2,8
1499894402068620,0,0,1,9,-2,-3,1,-35
1499894402069640,9,3,7,0,2,1,-1,13
1499894402069640,-5,0,-5,-33,-2,-6,-2,1
1499894402090640,4,-5,-6,82,2,-3,-2,24
1499894402090640,-2,1,3,-55,-7,3,1,3
1499894402091654,2,-1,1,38,6,-2,0,-13
1499894402091654,-3,-6,0,-41,-7,2,-2,-10
1499894402105680,-2,0,3,-8,4,2,3,5
1499894402105680,-11,2,4,34,3,-5,-7,6
1499894402113622,-3,1,10,-1,1,2,-3,-19
1499894402113622,-4,-6,-36,-26,-9,-7,-4,-8
1499894402128640,-3,3,18,40,6,1,-1,5
1499894402128640,0,1,-5,-39,-4,-2,0,5
1499894402129621,9,0,-9,-14,0,1,1,-2
1499894402129621,-13,1,11,-5,0,-2,-1,-6
1499894402150623,-1,-2,-17,-8,-1,5,-2,14
1499894402150623,2,-2,10,40,4,-2,1,27
1499894402151623,-6,-1,-5,-19,-6,0,-2,-26
1499894402151623,-11,-1,-4,-5,-3,-2,1,-15
1499894402165642,7,2,2,-2,2,-2,-2,3
1499894402165642,-18,-4,-10,-3,-4,-3,-4,-54
1499894402173639,5,-4,-1,-24,0,1,1,16
1499894402173639,-6,-1,9,27,-11,-5,0,84
1499894402188625,-4,-1,-11,15,1,-2,-4,-82
1499894402188625,18,4,10,-22,0,5,2,16
1499894402189625,-6,-8,-19,9,-4,-4,-3,-5
1499894402189625,0,0,6,60,3,0,-1,-14
1499894402211633,0,-1,-4,-91,-11,-7,1,26
1499894402211633,1,-3,-2,44,-3,-3,-3,1
1499894402212633,-7,3,9,25,4,1,-1,-22
1499894402212633,9,-2,-9,-27,2,-4,-1,22
1499894402225631,-3,2,4,-2,0,1,1,4
1499894402225631,2,-1,8,-3,-4,0,-2,19
1499894402233670,-6,-4,-7,7,-4,-8,-4,-16
1499894402233670,3,-1,-15,-13,4,6,-1,-23
1499894402248676,0,3,8,-15,-4,-2,0,4
1499894402248676,-8,-10,-17,-27,-4,0,0,4
1499894402249659,-4,3,11,33,8,4,2,-46
1499894402249659,11,1,5,-39,-6,-5,-2,-3
1499894402270629,10,-1,-5,20,5,1,-3,69
1499894402270629,-13,1,1,5,0,-4,-2,-18
1499894402271633,7,0,-2,-13,-1,0,-1,22
1499894402271633,-9,-3,-3,6,0,1,0,-40
1499894402285630,-2,-2,-1,-29,-2,-3,-2,-18
1499894402285630,-4,-1,-15,39,-6,-2,-1,21
1499894402293668,3,-6,-3,21,-1,-3,-2,16
1499894402293668,3,2,5,-39,0,1,3,18
1499894402308695,-8,-2,0,-5,-7,-3,-3,-27
1499894402308695,4,0,-2,17,7,8,3,-14
1499894402309636,0,4,16,-3,-1,2,-1,-27
1499894402309636,-6,-10,-35,5,-4,-6,-5,-7
1499894402330636,-7,-3,6,23,2,-1,-1,-15
1499894402330636,4,3,6,-14,4,1,0,-25
1499894402331632,-10,-4,-8,-56,-12,-5,-2,3
1499894402331632,3,7,20,44,0,-4,0,-2
1499894402354638,-1,-6,-31,7,2,4,2,-7
1499894402354638,9,-2,9,38,1,-2,0,11
1499894402354638,-4,3,-2,-75,-1,2,1,11
1499894402354638,11,2,21,33,-4,-5,-1,7
1499894402368640,-6,-5,-19,-30,-2,0,2,4
1499894402368640,2,2,7,14,-2,-4,-1,4
1499894402369653,-2,-1,-8,25,1,2,0,24
1499894402369653,-15,-2,8,-25,3,0,0,-17
1499894402390657,4,-3,7,62,-4,-3,1,24
1499894402390657,-4,-3,-5,-19,-3,-1,0,-17
1499894402391637,5,4,10,-14,4,1,-2,4
1499894402391637,-1,-3,-5,39,-3,-1,-2,-11
1499894402414648,-7,-1,0,-23,-3,-2,-1,2
1499894402414648,3,-2,-1,-7,0,-3,1,25
1499894402414648,8,-3,-4,-2,-2,-5,-3,-11
1499894402414648,-1,0,14,29,4,3,0,-6
1499894402428638,6,6,1,9,1,-3,-1,7
1499894402428638,1,-11,-19,-29,-6,-1,-3,5
1499894402429639,-16,0,-1,-13,-3,0,-1,9
1499894402429639,8,3,-3,16,6,1,-1,-4
1499894402451644,2,6,14,-53,-2,-1,-1,0
1499894402451644,-3,-7,-15,-8,-7,-9,-5,0
1499894402451644,5,0,4,23,1,4,0,-3
1499894402451644,-10,-4,-10,3,-2,-3,0,-9
1499894402473662,-1,-3,-6,-49,-6,2,0,-2
1499894402473662,-5,0,7,8,3,-4,-1,-14
1499894402474640,5,-2,-1,-8,-5,-3,0,11
1499894402474640,15,1,5,25,1,-1,1,28
1499894402488642,-13,-4,-2,-3,-9,0,1,-40
1499894402488642,6,2,-10,-15,1,-1,-2,31
1499894402489642,-3,-4,-6,-12,2,-1,0,20
1499894402489642,1,-1,1,16,1,1,1,9
1499894402510699,-4,-6,-8,4,-1,-2,-5,-25
1499894402510699,5,-2,3,-36,-5,2,0,5
1499894402512648,1,1,3,40,3,-2,0,6
1499894402512648,-1,2,4,-40,-7,-7,-4,-13
1499894402534647,0,-5,-7,16,5,6,0,20
1499894402534647,-8,1,2,37,1,-1,1,-19
1499894402535656,2,-4,-7,-31,-6,-4,-2,3
1499894402535656,-4,-2,5,7,4,3,-1,-9
1499894402548712,3,0,-9,-35,-7,-6,-2,-2
1499894402548712,8,3,-7,12,-5,-3,-2,1
1499894402549667,-4,-4,-2,-1,0,0,0,-7
1499894402549667,-13,-3,0,15,-2,-2,-2,1
1499894402570666,10,-2,7,-2,4,-3,-1,8
1499894402570666,-7,4,4,-3,5,2,1,5
1499894402571647,13,5,11,-9,0,1,1,3
1499894402571647,-28,-6,-7,2,-3,-3,-4,-8
1499894402593683,0,2,16,30,-2,-3,-3,-25
1499894402593683,-7,-4,-5,-23,-2,0,-2,-10
1499894402594651,0,-2,1,15,-3,-4,-1,-6
1499894402594651,-1,-4,-15,2,1,2,-1,-8
1499894402608712,-14,3,6,-11,5,2,0,13
1499894402608712,14,2,7,12,-8,-4,-3,-11
1499894402609649,-9,-9,-7,52,-3,-8,-5,8
1499894402609649,10,-2,-3,-71,-2,6,1,6
1499894402630655,0,-1,-2,33,-2,-6,0,10
1499894402630655,-2,-1,4,-20,1,2,0,-2
1499894402631652,-3,2,-8,-1,0,3,1,-9
1499894402631652,5,1,4,-15,0,-2,0,8
1499894402654654,-3,-8,-20,0,-5,-3,-1,9
1499894402654654,-7,5,7,-3,2,-3,-2,-31
1499894402654654,6,-2,7,0,-3,-2,-2,17
1499894402654654,-1,-4,-19,-8,-5,-1,-1,-8
1499894402668653,-5,3,15,23,5,2,0,-12
1499894402668653,-2,-2,-10,-4,-2,-1,-2,1
1499894402669674,-3,0,-7,1,-1,1,0,-6
1499894402669674,-6,-2,0,-51,-12,-3,-2,4
1499894402690657,22,0,1,8,2,-2,-3,1
1499894402690657,-9,3,6,18,6,-1,0,0
1499894402691654,-3,-1,5,-11,0,2,-1,-15
1499894402691654,4,-4,-8,16,-3,-4,-2,4
1499894402713656,-3,0,5,8,-1,2,1,2
1499894402713656,3,-3,-3,-8,-2,-6,-3,-2
1499894402714655,-3,5,-4,-21,2,3,1,0
1499894402714655,1,-5,2,67,3,1,0,-8
1499894402728674,-1,1,10,-53,-3,-1,0,-13
1499894402728674,-15,-2,-3,24,4,1,-1,-8
1499894402729655,13,1,6,-49,-6,-8,-2,15
1499894402729655,1,0,-7,2,3,0,-1,-2
1499894402750717,-4,-1,-3,7,4,1,-2,-7
1499894402750717,-6,-3,-8,-20,-2,1,0,2
1499894402751657,-6,-10,1,16,-3,-2,-1,-10
1499894402751657,2,3,5,-15,-1,0,-2,0
1499894402773660,-2,1,-4,40,4,-1,1,10
1499894402773660,2,2,7,-56,-7,0,0,5
1499894402774661,2,0,-10,11,1,-1,-1,-3
1499894402774661,7,-6,5,-23,-1,-1,-5,12
1499894402788660,-4,-7,-10,28,-2,-1,-1,2
1499894402788660,6,1,4,25,-4,-2,-3,18
1499894402789661,-4,2,-9,-17,0,-1,1,-15
1499894402789661,10,3,7,-12,0,2,7,42
1499894402810725,-11,-1,-2,20,1,1,0,-18
1499894402810725,-5,-5,-11,-9,-6,-3,-3,5
1499894402812661,1,4,4,-42,-2,4,2,9
1499894402812661,-14,2,-1,-7,2,-2,-2,-15
1499894402834667,7,1,6,8,-2,0,1,13
1499894402834667,2,-2,6,29,2,0,-2,-4
1499894402834667,-3,1,6,14,-3,-7,-2,0
1499894402834667,5,-3,-23,-12,0,1,-2,-28
1499894402848666,16,3,4,-11,1,-1,-1,49
1499894402848666,-6,1,5,2,0,1,0,-15
1499894402849669,0,-2,-7,-13,0,-2,-1,-1
1499894402849669,-3,-2,2,33,4,0,1,-3
1499894402870665,-13,-5,5,-36,-17,-7,-6,-17
1499894402870665,-5,-3,1,-10,1,-2,1,-27
1499894402871664,-1,1,-2,9,2,1,1,-5
1499894402871664,10,2,9,17,-1,1,1,17
1499894402893711,0,1,-4,-8,5,5,1,21
1499894402893711,-1,-1,6,9,-6,-4,-2,-38
1499894402894690,-9,-7,-13,34,-4,1,-5,-29
1499894402894690,-5,1,-3,-106,-5,-3,-1,-10
1499894402907709,7,2,16,38,1,-1,-1,22
1499894402907709,1,-7,-17,-13,-4,-1,-2,11
1499894402915700,1,-1,-5,34,3,0,0,11
1499894402915700,3,1,4,5,0,-3,-1,-3
1499894402931669,-4,3,4,-19,-3,-2,-3,-16
1499894402931669,3,-7,2,11,-1,-2,-1,7
1499894402932667,-5,-3,-2,-10,0,-3,-1,-3
1499894402932667,-3,3,-1,12,3,0,-3,-17
1499894402954672,-3,3,-4,-1,-3,-3,1,-15
1499894402954672,1,-1,-7,16,2,1,-3,-22
1499894402954672,4,-4,5,-60,-6,0,2,40
1499894402954672,-4,1,-7,-8,0,-6,0,-3
1499894402967739,-5,-5,-3,54,5,2,0,-20
1499894402967739,10,7,14,11,4,2,4,31
1499894402975672,-2,-5,-27,-65,-8,-1,-2,-18
1499894402975672,-8,1,14,64,2,1,-1,6
1499894402990690,2,-1,-19,-56,-4,-6,-1,2
1499894402990690,-2,3,12,4,-3,1,2,8
1499894402991671,10,2,4,50,8,4,2,-6
1499894402991671,-17,-6,1,-75,-10,-2,-1,41
1499894403013673,4,-1,9,51,5,0,-2,-1
1499894403013673,1,0,-23,-23,-3,-4,-2,0
1499894403014673,-1,5,1,16,-1,-3,-2,-5
1499894403014673,-9,-6,-8,2,-2,-1,-2,-24
1499894403036673,-6,-2,13,-6,-3,0,-1,-37
1499894403036673,-12,-6,-10,-8,-1,-2,-7,-44
1499894403037683,0,0,15,-5,-1,-1,-2,4
1499894403037683,-3,-4,-17,-19,-11,-4,-3,-2
1499894403050693,8,-1,1,-11,-1,-3,2,-2
1499894403050693,-2,-4,-4,0,0,2,-1,-3
1499894403051674,-2,-2,4,40,2,-4,-1,6
1499894403051674,1,0,-5,19,1,2,-2,-11
1499894403073696,-7,1,9,-32,3,0,1,-4
1499894403073696,-3,-7,-22,25,-3,-6,-2,20
1499894403074675,-4,-3,-2,-21,-3,0,-3,-5
1499894403074675,14,4,11,34,5,2,1,-20
1499894403087686,-10,-2,-12,-55,-9,-3,-2,4
1499894403087686,17,3,18,12,4,2,0,9
1499894403095722,-15,-3,-1,0,-5,-5,-2,2
1499894403095722,-12,3,-16,23,4,-3,-8,-93
1499894403110714,2,-4,-2,0,1,6,1,5
1499894403110714,-3,-10,-3,-12,-4,-4,-1,11
1499894403112682,1,-1,-1,12,-1,-3,0,-6
1499894403112682,6,0,13,2,3,0,2,28
1499894403133731,-12,6,-7,-1,2,0,0,-16
1499894403133731,4,0,-3,-86,-9,-4,-2,2
1499894403134693,2,0,-4,6,-1,0,0,-12
1499894403134693,5,0,2,14,1,-2,0,29
1499894403147736,5,-8,-2,1,-2,-1,-4,5
1499894403147736,-17,2,6,21,4,3,0,22
1499894403155700,9,2,-3,8,1,2,1,-7
1499894403155700,6,-6,-19,-28,-10,-6,-3,17
1499894403170684,-14,-1,-11,9,-1,-3,-4,5
1499894403170684,22,3,6,66,1,2,2,28
1499894403171681,-10,-4,-8,-68,-10,-12,-3,2
1499894403171681,-6,-2,4,8,3,7,0,-7
1499894403193745,2,-2,0,7,0,1,1,21
1499894403193745,-6,-1,-2,5,2,1,-1,-5
1499894403194685,-3,-2,10,9,0,2,1,-5
1499894403194685,7,0,1,-7,-3,-4,0,19
1499894403207726,-2,0,1,-3,1,-2,-1,-19
1499894403207726,-5,1,3,-46,-1,-4,1,-12
1499894403215684,3,2,13,24,8,1,-4,-22
1499894403215684,-9,-11,-27,15,-6,0,-1,-10
1499894403230684,-2,4,6,21,-4,1,1,6
1499894403230684,0,-11,-20,-12,-4,-3,-2,-8
1499894403231686,-3,0,-5,9,0,0,-1,15
1499894403231686,3,1,-4,-24,-1,-1,-1,-35
1499894403253717,-2,-7,1,25,-3,-4,-4,-6
1499894403253717,-5,8,10,-1,3,4,3,-32
1499894403254685,-13,-2,-12,-7,-4,-1,-4,22
1499894403254685,20,1,25,38,5,-1,0,26
1499894403276692,-8,1,-14,-37,-5,-1,-1,6
1499894403276692,4,2,3,-84,3,3,0,-22
1499894403277691,2,-3,-9,37,0,-1,0,16
1499894403277691,-7,2,1,-12,1,1,1,0
1499894403290709,7,2,0,-5,-1,-5,-1,1
1499894403290709,-2,1,16,53,-2,-3,-2,31
1499894403291688,0,-1,-6,-6,-1,2,1,-8
1499894403291688,3,-1,-2,-16,-3,-1,0,11
1499894403313691,-3,-3,4,31,4,-1,-1,-12
1499894403313691,2,-1,4,19,3,2,-1,9
1499894403314689,0,0,3,-8,-8,-5,-1,-3
1499894403314689,-8,-2,-2,14,-4,-4,-3,8
1499894403336691,9,1,-7,5,1,2,-1,8
1499894403336691,2,-2,-7,-64,-5,0,0,13
1499894403337692,5,2,10,47,5,-2,-1,20
1499894403337692,-10,-2,-9,-19,-1,-2,-1,-53
1499894403350720,-1,-1,-8,5,-1,-1,-1,4
1499894403350720,-4,2,3,19,-1,-3,0,16
1499894403351695,-14,-4,-3,2,-1,3,-4,-23
1499894403351695,1,0,5,-80,-14,-8,-3,26
