timestamp,emg1,emg2,emg3,emg4,emg5,emg6,emg7,emg8
1499876428608632,-4,-18,-63,-60,1,-2,-7,28
1499876428608632,-32,-6,-11,96,-6,-4,-21,-3
1499876428609623,61,-6,-2,-21,-3,-1,31,-21
1499876428609623,-44,-4,-4,80,1,1,-25,-87
1499876428612622,6,12,24,-89,-9,1,9,44
1499876428612622,31,-3,33,62,10,3,21,-33
1499876428613623,-17,8,-5,19,1,-6,-20,22
1499876428613623,49,-25,-49,-36,-7,5,12,62
1499876428619622,-56,-24,7,61,0,-21,-73,-91
1499876428619622,13,21,5,-62,13,20,64,-43
1499876428629625,-26,14,25,67,-3,-5,-6,-24
1499876428629625,13,-4,-34,25,3,-5,-11,94
1499876428642644,26,3,5,-39,-4,4,15,30
1499876428642644,15,10,-47,-4,6,3,-28,28
1499876428651643,-12,14,100,62,6,2,7,-15
1499876428651643,-11,0,12,-101,-16,-11,-28,20
1499876428657625,49,6,75,96,-2,4,39,-8
1499876428657625,-8,-42,4,-69,-17,-8,-12,11
1499876428680647,-24,20,-86,-35,-5,-1,32,-85
1499876428680647,-4,-3,6,57,-12,-10,-17,-12
1499876428682627,18,15,4,14,7,3,-13,3
1499876428682627,29,29,12,13,10,4,4,16
1499876428696628,-34,-37,-49,-30,-4,-2,-8,18
1499876428696628,19,16,32,103,18,7,9,-26
1499876428735630,0,-13,-37,-13,-29,-16,-21,-4
1499876428735630,-39,-6,5,13,1,-2,12,-89
1499876428736650,-8,3,-20,-69,3,-1,-14,-19
1499876428736650,2,-3,-21,-60,-8,-6,-9,9
1499876428740651,27,9,17,34,20,9,-3,-18
1499876428740651,-22,0,-25,-87,-16,-13,-1,-27
1499876428741651,45,-6,-49,29,-2,-3,-13,27
1499876428741651,10,3,39,-11,-8,-1,9,-65
1499876428746630,83,8,-9,57,16,6,-25,31
1499876428746630,-62,-14,-27,-52,-17,-2,26,17
1499876428753648,7,6,52,86,3,-8,-29,20
1499876428753648,-3,10,1,93,6,14,49,-5
1499876428769636,-16,3,-34,-20,-5,1,5,-8
1499876428769636,66,10,69,3,14,8,-10,-15
1499876428777653,-9,5,1,-33,4,6,-1,88
1499876428777653,-81,16,67,105,12,-2,-8,-50
1499876428783653,41,-14,-42,-16,-31,-12,-2,26
1499876428783653,-23,-32,-50,103,-5,-12,-17,24
1499876428807634,-14,-7,50,-64,-13,2,19,-3
1499876428807634,-19,-17,-88,40,15,6,-14,-56
1499876428809634,-44,37,104,-20,12,5,11,-60
1499876428809634,47,-8,18,16,-12,-8,-10,6
1499876428821636,3,-10,-6,-32,0,-6,-36,20
1499876428821636,24,-6,-30,-68,-12,-1,32,53
1499876428830636,-23,-9,27,4,13,1,-2,12
1499876428830636,27,19,-21,13,-3,3,0,3
1499876428845655,-14,2,19,44,4,2,6,-88
1499876428845655,31,5,25,-42,2,-5,-28,73
1499876428846636,-7,-14,-43,-8,-1,2,42,29
1499876428846636,14,-7,10,30,10,3,5,77
1499876428867658,-40,24,-3,-15,17,8,-8,-77
1499876428867658,31,-15,-28,-53,-22,-17,-22,70
1499876428869638,9,-19,6,9,-8,-10,-3,-19
1499876428869638,-11,9,-10,32,15,13,22,-29
1499876428881655,32,8,18,-7,-7,2,14,17
1499876428881655,-25,-13,6,-35,0,-9,-23,-14
1499876428890642,29,25,90,-50,6,5,15,10
1499876428890642,-21,5,-79,36,4,-2,-20,-62
1499876428905660,12,-12,-43,31,3,-1,14,12
1499876428905660,-24,-7,67,105,15,9,5,11
1499876428906642,30,-22,-33,-79,-30,-20,-24,26
1499876428906642,-16,4,-51,-71,-2,1,-12,14
1499876428927642,-21,-14,51,101,-3,-6,-3,-18
1499876428927642,47,13,-31,-84,-5,-3,-13,24
1499876428929662,-28,8,19,-43,7,8,18,-27
1499876428929662,11,2,31,68,0,-2,-12,2
1499876428941643,-18,-1,-15,3,0,2,-18,-49
1499876428941643,2,5,46,114,-6,3,35,42
1499876428950663,-7,-22,-100,-48,-8,-10,-15,-12
1499876428950663,4,-6,40,-18,-3,2,4,19
1499876428965646,37,11,69,-92,-2,-1,-4,-1
1499876428965646,-82,6,-77,-38,7,7,-8,-26
1499876428966664,-36,2,36,46,4,6,13,8
1499876428966664,116,15,1,52,6,-1,-5,94
1499876428987646,-71,-40,-55,100,-23,-15,-2,-66
1499876428987646,-16,-20,-27,-51,-15,-3,23,31
1499876428989665,11,42,99,113,29,8,-25,-15
1499876428989665,-29,-15,-9,-10,-16,-9,-6,0
1499876429001644,32,12,-93,-35,4,8,32,45
1499876429001644,19,-10,4,2,-10,-11,-20,-37
1499876429010657,-34,-6,2,38,6,3,-10,0
1499876429010657,-15,-21,-33,69,-17,-5,10,-18
1499876429025646,-27,13,49,-4,-2,3,-2,-37
1499876429025646,32,-4,-16,76,12,-2,15,-15
1499876429026647,32,-6,-78,-48,-23,-10,-22,-34
1499876429026647,-8,9,16,-45,17,12,15,6
1499876429047669,54,-16,0,72,-6,-4,-3,16
1499876429047669,-43,-7,7,-75,-8,0,6,6
1499876429049669,-12,-22,-34,87,-6,-10,-5,-59
1499876429049669,-9,12,-9,-39,-1,-2,-10,-12
1499876429070651,15,9,9,40,14,4,5,112
1499876429070651,45,1,30,-49,0,2,-8,42
1499876429071648,-15,-5,-48,70,-2,-4,-17,24
1499876429071648,-76,10,23,-128,-11,-4,-3,-43
1499876429084651,-22,-7,-31,50,2,-4,2,28
1499876429084651,28,16,38,117,5,-1,-23,-16
1499876429091673,-8,1,2,-125,-1,9,31,60
1499876429091673,-33,16,69,23,3,-4,-9,-8
1499876429107668,92,-18,-80,-19,-18,-5,18,85
1499876429107668,-102,-14,11,-18,-1,-1,-13,-79
1499876429109673,-12,1,42,28,10,3,5,42
1499876429109673,8,-4,-6,-49,-8,-3,5,-8
1499876429130652,0,11,-16,-45,9,4,-7,-28
1499876429130652,-22,-9,-23,-37,-12,-7,-22,-85
1499876429131674,9,7,19,103,11,4,-6,-61
1499876429131674,26,-4,21,127,18,6,26,47
1499876429145654,-39,0,0,-100,-20,-8,-5,-24
1499876429145654,18,14,-10,68,7,3,9,7
1499876429146678,-46,-25,-86,-118,-21,-6,-11,70
1499876429146678,24,-10,44,57,1,2,-9,-49
1499876429167656,-8,9,63,27,-2,0,3,-6
1499876429167656,19,22,-6,14,-1,-6,-4,-55
1499876429169656,-17,-17,29,3,0,2,7,-49
1499876429169656,59,12,4,-71,-12,-3,-18,46
1499876429190677,-51,-20,2,104,11,0,30,-6
1499876429190677,33,-10,-91,-124,-23,-2,3,108
1499876429191679,-18,21,47,105,8,-2,-1,8
1499876429191679,-36,-9,-16,48,-10,-11,-28,-59
1499876429204659,-4,21,88,-8,16,4,-13,-21
1499876429204659,10,-16,-14,37,17,4,14,-39
1499876429211678,31,12,11,78,6,-2,-1,32
1499876429211678,-29,-11,-51,-58,-10,-1,-9,-53
1499876429227657,38,3,-31,-37,-8,0,-6,46
1499876429227657,11,-14,31,50,7,-2,-7,19
1499876429229679,35,11,43,23,7,2,-2,22
1499876429229679,-18,-9,-8,-1,8,1,6,0
1499876429250681,-26,-3,-37,-51,-9,-2,-1,-66
1499876429250681,18,4,3,-7,4,2,-7,26
1499876429251682,-52,13,64,64,23,7,8,-36
1499876429251682,43,-10,-33,-93,-26,-2,6,29
1499876429264662,-72,-32,-77,0,-14,-15,-12,-63
1499876429264662,74,33,76,62,10,9,4,0
1499876429271682,-22,-8,-23,-107,-12,-7,-7,-97
1499876429271682,-13,7,16,24,13,5,3,22
1499876429287682,17,-10,-33,-36,-9,-1,3,29
1499876429287682,-3,5,53,-6,-3,-5,-11,30
1499876429289682,36,-3,-19,14,-7,0,12,54
1499876429289682,-3,9,-1,-11,11,2,-2,44
1499876429310683,15,8,24,-25,-12,-3,6,43
1499876429310683,-25,6,3,20,5,3,-1,-50
1499876429311663,24,-3,20,-74,-9,2,20,-50
1499876429311663,4,-3,-30,45,16,-2,-22,-26
1499876429324664,6,15,91,34,-8,-6,-10,-46
1499876429324664,-32,-37,-64,-4,-11,-6,-4,20
1499876429331664,4,-4,-29,38,0,1,13,31
1499876429331664,12,13,3,61,11,7,2,26
1499876429347667,37,-3,2,-63,-1,0,9,-52
1499876429347667,-22,7,44,-3,-2,-5,-12,-31
1499876429349667,-59,-3,-50,42,-6,-7,-17,-76
1499876429349667,5,-1,79,20,-15,-6,-2,3
1499876429370666,50,-3,-70,-13,8,3,8,108
1499876429370666,-28,5,42,24,4,3,2,-70
1499876429371666,-10,-18,-65,-3,-3,1,-5,21
1499876429371666,4,23,25,-45,9,6,4,-11
1499876429384684,-64,-24,-61,8,-7,-6,-15,-87
1499876429384684,19,-3,-10,-68,-13,-3,6,-3
1499876429391670,17,-6,-14,41,10,3,-3,62
1499876429391670,-8,-5,-44,6,-5,-4,0,-47
1499876429407668,2,9,43,71,12,5,-2,20
1499876429407668,22,-2,-21,27,11,4,-24,-28
1499876429409688,-31,0,25,-14,-11,-5,20,53
1499876429409688,-7,-9,-22,33,-9,-2,13,85
1499876429430689,15,3,41,0,6,-1,-8,-40
1499876429430689,-5,3,-50,-30,-11,0,12,-8
1499876429431690,-6,-2,42,54,1,-5,-26,-116
1499876429431690,-9,-14,-68,13,-5,-10,-2,47
1499876429444672,4,11,24,2,10,7,0,-29
1499876429444672,1,3,15,-78,-14,2,19,112
1499876429451671,17,-19,-53,-57,-17,-8,-6,-1
1499876429451671,14,-8,-31,-55,-2,-1,16,30
1499876429467674,-5,40,94,100,11,3,-20,-69
1499876429467674,-7,-16,-25,-85,0,-4,3,-26
1499876429469673,-56,-25,-65,-21,-8,-5,-11,-37
1499876429469673,55,18,103,-85,-5,3,9,9
1499876429490673,2,-1,-36,-9,5,-1,-2,24
1499876429490673,35,12,1,-24,4,-2,-2,-15
1499876429491692,-13,3,28,22,-5,-1,-12,-5
1499876429491692,-5,-5,21,107,9,0,-7,-2
1499876429504674,-32,-13,-49,-33,6,4,15,-40
1499876429504674,-36,-10,5,-8,-8,-6,-8,11
1499876429511695,78,20,-12,-63,2,5,1,105
1499876429511695,-54,-13,-23,51,-4,-7,-12,-128
1499876429527697,2,1,38,-58,-9,-7,-1,20
1499876429527697,-3,4,-51,61,7,7,5,38
1499876429529696,16,10,86,65,11,3,4,23
1499876429529696,-7,-9,-29,-121,-10,-3,-9,-8
1499876429550676,-19,-8,-30,58,-2,-3,4,82
1499876429550676,-22,-1,-7,58,11,0,-9,-68
1499876429551699,24,29,55,92,9,4,7,37
1499876429551699,8,-8,-49,-61,-7,-3,5,25
1499876429563677,6,-28,-26,37,-9,-4,1,-2
1499876429563677,-29,10,3,-23,-11,-6,-8,96
1499876429572680,15,3,3,-8,2,2,1,-98
1499876429572680,0,-4,29,10,10,6,10,10
1499876429587680,15,14,2,-11,10,6,3,67
1499876429587680,-24,-18,20,96,-6,-6,3,-37
1499876429589683,-2,13,49,-51,-4,-3,-7,-19
1499876429589683,-41,-17,-65,32,-3,-3,-1,-2
1499876429610701,11,-2,-13,-75,-6,4,4,8
1499876429610701,59,-1,48,107,16,1,-8,33
1499876429611701,-35,-17,-81,-124,-8,0,2,16
1499876429611701,-5,7,68,96,4,-1,2,36
1499876429623681,-14,0,-36,-49,2,1,1,-3
1499876429623681,48,13,12,-12,-5,-3,-2,22
1499876429632681,10,-9,10,-11,5,2,-2,31
1499876429632681,14,-13,-49,117,16,5,9,10
1499876429647703,-52,-33,6,-1,-25,-11,-7,17
1499876429647703,38,16,1,-128,-4,3,9,84
1499876429649685,-3,3,-1,23,-11,-8,-11,-44
1499876429649685,-8,20,62,42,5,3,9,-16
1499876429670687,25,12,4,36,6,1,-10,41
1499876429670687,-2,-12,-71,31,5,5,16,-33
1499876429671689,-35,-13,-24,-72,-22,-6,-5,-33
1499876429671689,15,-1,-26,35,3,-2,0,-84
1499876429692706,16,5,22,1,3,3,2,11
1499876429692706,1,1,25,12,-3,-3,-3,64
1499876429692706,-5,4,-10,4,5,1,11,110
1499876429692706,20,-1,18,-13,-4,-4,-12,16
1499876429714707,-7,2,-4,-37,4,2,5,-17
1499876429714707,-18,-5,-11,45,-4,-2,-6,-90
1499876429715707,30,-2,3,-68,-8,-5,-9,10
1499876429715707,-10,-6,12,25,1,-1,4,43
1499876429728689,-6,12,14,27,0,1,1,-10
1499876429728689,-7,-15,-4,19,-3,-2,-5,6
1499876429737687,-7,-3,37,24,2,0,0,49
1499876429737687,4,7,-36,-3,-5,-1,2,-32
1499876429752709,0,5,14,-4,-5,-4,-8,11
1499876429752709,4,-14,4,-84,-19,-6,-4,31
1499876429752709,-14,0,-24,46,9,3,3,1
1499876429752709,-6,7,-28,-6,4,5,4,41
1499876429774692,29,-5,37,74,-1,-2,-1,-21
1499876429774692,-14,7,38,-16,-2,0,0,-36
1499876429775707,25,-10,-46,103,3,-2,-1,25
1499876429775707,-30,9,13,-128,-9,2,-5,-41
1499876429788711,-1,-7,-29,31,-11,-6,11,55
1499876429788711,-35,9,21,19,1,1,0,-85
1499876429797690,1,-4,-40,78,2,3,18,-26
1499876429797690,-8,-17,49,-67,-7,-8,-22,-25
1499876429812713,26,3,-29,-7,3,0,-4,19
1499876429812713,2,-1,55,47,6,3,1,-15
1499876429812713,-13,3,3,-14,-1,-5,-4,-45
1499876429812713,15,15,21,26,-7,-3,-7,-6
1499876429834695,-34,-39,-40,-40,-11,-7,-8,-56
1499876429834695,8,21,40,34,9,2,-2,-46
1499876429835693,-4,-5,-61,-45,-1,3,6,-17
1499876429835693,16,3,80,64,3,0,5,15
1499876429848693,-5,3,-26,-8,0,1,-5,-64
1499876429848693,0,-14,-88,-74,-6,-2,-3,-52
1499876429857694,-1,1,42,-21,8,2,-5,4
1499876429857694,9,7,-39,53,10,3,5,-10
1499876429871695,-12,-1,-5,-47,-22,-12,-5,28
1499876429871695,27,-15,-28,36,-2,-3,0,90
1499876429872695,15,11,71,-67,-11,-4,4,29
1499876429872695,-25,-17,-34,35,6,-1,-15,-50
1499876429894696,3,26,34,126,18,11,7,-32
1499876429894696,6,-1,0,-104,-14,-5,-4,30
1499876429895697,-12,-4,1,8,-5,-3,-3,1
1499876429895697,21,2,2,-42,-2,1,4,35
1499876429908720,-9,4,25,40,4,-1,-4,-61
1499876429908720,-4,-5,-6,51,4,1,0,4
1499876429917697,-5,0,-15,-10,-3,-4,-12,-92
1499876429917697,-56,-20,-10,-32,-14,-10,0,-54
1499876429931721,13,9,-49,-53,3,0,-10,19
1499876429931721,0,-1,25,23,3,1,9,27
1499876429932699,0,3,-29,-41,1,1,-2,-62
1499876429932699,-26,14,67,55,6,1,-4,-31
1499876429954702,-10,0,45,-69,-7,-2,-2,-5
1499876429954702,6,11,-25,102,3,-1,2,14
1499876429955721,-12,-16,-3,-63,3,0,-14,-59
1499876429955721,13,-22,-87,-10,-19,-7,-3,1
1499876429968703,-1,-7,4,-27,1,-1,6,32
1499876429968703,-16,11,11,19,2,-2,-4,-25
1499876429977701,12,-2,8,-2,1,2,3,45
1499876429977701,15,5,25,-2,3,1,3,29
1499876429992702,4,4,17,35,7,1,-1,-25
1499876429992702,-8,-9,-46,-30,-4,0,-1,79
1499876429992702,-6,-8,0,32,1,-3,-4,-51
1499876429992702,3,14,70,65,9,3,-1,58
1499876430014706,-16,-10,-62,13,-17,-6,0,-16
1499876430014706,-16,-1,6,1,5,4,6,-4
1499876430015724,29,0,-22,37,0,0,5,25
1499876430015724,23,12,56,22,13,6,3,5
1499876430028725,-11,-16,13,-12,-9,-6,6,49
1499876430028725,10,-9,-11,-41,-4,-4,-11,82
1499876430037728,-41,9,-27,31,6,6,-3,7
1499876430037728,42,16,39,-50,-2,-1,1,34
1499876430052706,0,-31,-1,-7,-2,-2,-3,-15
1499876430052706,1,-3,-35,-69,-7,-5,1,-59
1499876430052706,-13,-7,55,77,-7,-6,2,32
1499876430052706,-16,8,-7,-36,-2,-2,-5,-16
1499876430074707,-1,4,-51,19,8,6,9,90
1499876430074707,18,9,54,19,4,0,-5,0
1499876430075743,6,-5,-8,-18,-10,-6,-3,22
1499876430075743,-5,-18,-67,-62,-13,-8,-4,23
1499876430088707,15,14,18,22,6,1,1,52
1499876430088707,-33,0,7,58,5,4,-1,-41
1499876430097731,20,15,31,35,7,6,3,23
1499876430097731,11,-21,-56,-73,-18,-7,5,-31
1499876430112708,-30,-1,18,-20,7,4,3,-62
1499876430112708,-11,11,21,48,0,-4,-5,42
1499876430112708,2,-11,-11,-74,-6,-3,0,7
1499876430112708,32,5,-15,4,2,0,0,58
1499876430134710,-10,5,41,-40,4,-2,-10,-79
1499876430134710,7,-1,2,33,-6,-2,1,-45
1499876430135713,-21,-10,-43,-11,-9,-9,-2,-4
1499876430135713,-16,-14,14,-24,0,-7,-13,83
1499876430148711,36,-6,-67,54,-4,-2,-2,20
1499876430148711,15,-2,47,-29,-5,0,-4,-50
1499876430157729,-25,3,13,21,10,4,8,29
1499876430157729,-13,-4,13,-9,-8,-4,-13,-17
1499876430172713,-4,2,-11,47,0,1,-4,-12
1499876430172713,9,-1,-6,-34,2,0,2,22
1499876430172713,35,2,26,-23,-4,0,9,-16
1499876430172713,-6,9,7,104,11,3,-10,-93
1499876430194735,-49,-3,17,-54,0,0,6,97
1499876430194735,6,-18,-74,13,-9,-6,-25,-128
1499876430195714,3,6,-11,-92,-7,-4,4,25
1499876430195714,-15,1,25,27,0,-1,5,-26
1499876430208717,21,-2,-5,-1,4,1,-2,-4
1499876430208717,-12,-1,-22,34,9,0,2,30
1499876430217737,11,8,61,127,3,-2,-9,-6
1499876430217737,-18,-7,-28,-78,-33,-8,1,0
1499876430232717,-9,5,35,66,1,-2,-6,-44
1499876430232717,19,0,-14,7,1,-1,6,48
1499876430232717,-45,-4,11,62,6,2,-4,-27
1499876430232717,13,-10,-51,-7,1,0,-6,7
1499876430254720,-5,10,8,-13,3,2,3,-29
1499876430254720,7,4,33,4,-8,-2,8,54
1499876430255738,6,-7,-11,-128,-14,-6,-17,-79
1499876430255738,-5,-22,-73,-5,2,0,6,-23
1499876430268739,46,-1,27,-6,-3,-2,-1,2
1499876430268739,-3,12,41,17,8,5,3,25
1499876430277736,22,4,-14,14,3,5,11,126
1499876430277736,-25,17,1,-76,0,2,11,-58
1499876430292728,-24,-10,52,69,-1,-6,-13,-117
1499876430292728,5,-11,-31,-39,-9,-1,7,20
1499876430292728,40,5,-10,17,0,3,2,17
1499876430292728,-15,-8,-20,-44,-6,-1,-8,-59
1499876430314742,7,1,-33,29,-7,-3,5,47
1499876430314742,-44,-6,-6,-49,-3,-4,-5,-36
1499876430315723,-8,-16,-13,5,-1,-3,-5,-11
1499876430315723,-2,9,63,127,22,4,4,58
1499876430328725,5,-8,-27,-9,-18,-8,-3,33
1499876430328725,-17,1,-19,-42,-11,-4,-6,-102
1499876430337731,2,11,11,53,5,2,1,5
1499876430337731,23,0,1,28,9,6,4,15
1499876430351725,-18,-6,12,30,-7,-6,-7,18
1499876430351725,33,3,-29,-44,-2,1,10,22
1499876430352725,-10,-6,18,-21,-1,-6,-10,-63
1499876430352725,-1,-9,-4,-1,-1,-1,1,2
1499876430382724,-5,22,15,-19,17,10,1,7
1499876430382724,16,-8,-26,62,-12,-11,-14,29
1499876430383733,8,12,41,-29,5,2,5,-60
1499876430383733,3,2,9,43,6,0,-10,28
1499876430388732,10,-12,-26,-87,-8,-1,6,14
1499876430388732,-18,-3,25,5,4,0,1,-10
1499876430397729,-21,-5,-46,12,-4,-1,-5,-50
1499876430397729,-19,7,40,-9,-4,-3,-10,-77
1499876430412733,-2,5,5,-18,-1,-2,-7,-37
1499876430412733,-11,-8,3,50,9,2,4,-19
1499876430412733,-6,-13,-80,65,-6,-3,2,75
1499876430412733,-24,-2,12,-61,-16,-7,0,-6
1499876430434745,10,0,24,81,7,-1,-3,-7
1499876430434745,-1,7,26,-4,1,2,-1,-18
1499876430435728,7,8,-49,19,3,-2,0,12
1499876430435728,-4,-9,19,-4,8,5,3,47
1499876430448731,23,9,18,-50,-1,1,10,13
1499876430448731,-9,7,40,80,10,1,3,32
1499876430457729,19,-1,-5,-94,-5,-2,1,59
1499876430457729,0,2,-43,36,-10,-3,-2,-59
1499876430472733,-2,2,34,27,7,1,2,-9
1499876430472733,-3,4,-2,-24,6,0,-6,-27
1499876430472733,42,-3,17,2,-2,-1,-1,26
1499876430472733,-17,2,8,-51,-11,-3,4,33
1499876430494731,8,-5,-36,23,1,1,-8,-11
1499876430494731,-3,3,-4,-47,-2,4,18,-12
1499876430495737,-12,-4,17,85,3,0,-18,5
1499876430495737,31,7,-26,59,9,5,8,47
1499876430517753,-35,-13,-37,-76,-19,-8,-7,-62
1499876430517753,-17,-14,-25,-37,-6,-3,-8,-48
1499876430518733,-19,5,20,33,2,-1,3,-15
1499876430518733,27,3,-26,-71,6,2,9,22
1499876430531735,23,12,14,-2,7,5,4,100
1499876430531735,-2,-22,-64,75,-6,-4,-3,-14
1499876430532737,-26,0,9,-128,-13,-3,-3,-34
1499876430532737,5,-15,-16,90,0,-3,-7,1
1499876430554734,-10,-3,18,-3,-1,-5,-12,-86
1499876430554734,-10,2,-8,14,-1,-1,-6,18
1499876430555737,12,-2,17,26,12,8,11,24
1499876430555737,3,8,17,-7,-2,-4,-6,62
1499876430577740,-1,-11,-22,-8,1,3,3,70
1499876430577740,13,-4,-23,-70,-8,-4,-5,-5
1499876430578736,-9,5,36,79,3,-2,-2,-6
1499876430578736,55,0,41,59,2,-1,6,23
1499876430592737,-48,-11,-44,5,0,-2,-9,-20
1499876430592737,-4,2,-4,-52,6,3,8,-2
1499876430592737,12,-5,15,3,-1,-2,2,64
1499876430592737,-26,-6,-45,-46,-3,-2,-7,-40
1499876430614737,23,7,7,75,8,3,10,28
1499876430614737,12,4,13,3,-4,-5,-5,28
1499876430615759,4,-8,-17,-49,-6,-2,-2,-23
1499876430615759,-23,-6,11,25,4,1,-4,-86
1499876430637760,15,2,34,47,-10,-7,1,29
1499876430637760,4,-2,-19,-66,1,2,-2,36
1499876430638739,-16,11,-16,7,-1,-1,-4,-66
1499876430638739,-7,-10,-11,34,2,1,-3,-13
1499876430651762,-13,-13,-53,-12,-3,-3,-3,-10
1499876430651762,38,0,10,21,-5,-2,-1,-4
1499876430652741,6,5,41,101,13,4,9,-1
1499876430652741,-21,2,-4,-66,-7,-4,-14,19
1499876430674745,33,11,49,9,-5,-2,-3,77
1499876430674745,-16,-12,-20,6,-5,-5,-5,-56
1499876430675741,-7,-9,-17,-72,-5,-2,4,-10
1499876430675741,15,-2,-26,41,3,1,4,22
1499876430697764,22,2,35,-82,-1,0,2,-6
1499876430697764,-23,2,20,34,0,0,-5,0
1499876430698745,-20,1,10,5,-2,-2,-3,-34
1499876430698745,0,3,-25,-27,3,2,5,-12
1499876430712744,-3,-2,8,55,1,0,-7,-18
1499876430712744,13,4,48,27,-1,3,7,28
1499876430712744,-42,-8,-26,-30,-6,-5,-5,-56
1499876430712744,2,10,29,-32,-3,-2,-2,41
1499876430734745,-13,-6,-31,11,9,6,1,-14
1499876430734745,4,4,17,-23,-3,0,-3,53
1499876430735766,19,3,0,20,5,4,3,27
1499876430735766,8,9,-13,7,8,6,3,4
1499876430757768,-41,-4,72,48,-8,-15,-5,-43
1499876430757768,38,-6,-5,39,5,2,2,-16
1499876430758751,9,-11,-25,-44,-4,-1,-8,41
1499876430758751,5,9,12,15,1,1,-5,-16
1499876430771747,8,-4,-62,-87,-5,3,21,76
1499876430771747,-8,6,4,-6,-4,-4,-5,-14
1499876430772747,4,6,26,30,4,-1,-2,14
1499876430772747,17,-7,14,-6,-3,-4,-4,69
1499876430794751,34,2,-18,25,2,5,5,-26
1499876430794751,-50,-4,17,-51,-2,-3,-7,-2
1499876430795754,10,4,-6,-10,-4,-3,6,48
1499876430795754,-1,-10,-12,38,-8,-4,4,-10
1499876430817771,-10,-6,-21,-69,-5,-3,-5,-31
1499876430817771,1,3,-4,67,9,4,3,-14
1499876430818750,3,2,15,-6,-12,-6,-8,15
1499876430818750,0,-17,-27,-62,-12,-6,4,38
1499876430832752,-1,15,43,65,12,5,7,28
1499876430832752,-1,-5,-20,25,6,1,-9,-79
1499876430832752,-23,-2,-21,-57,-13,-6,-3,-22
1499876430832752,5,2,38,-33,-5,0,2,-2
1499876430854774,-26,-2,-6,3,2,2,-5,-21
1499876430854774,6,-8,22,2,0,-1,6,-22
1499876430855773,17,7,14,38,10,2,0,23
1499876430855773,-16,-8,29,40,-3,-1,-3,-53
1499876430877774,48,-3,-51,-63,-7,-4,-10,39
1499876430877774,-50,-6,5,57,-1,-2,4,-4
1499876430878777,1,-13,-47,1,-5,-7,-5,30
1499876430878777,-9,13,38,60,5,1,14,11
1499876430891754,-4,-11,-49,-31,-11,-4,-15,-40
1499876430891754,27,0,-31,-12,1,1,1,24
1499876430892754,16,-1,1,-20,-4,-2,-1,69
1499876430892754,-20,-4,0,29,3,-1,-2,-18
1499876430914773,1,10,39,35,6,0,2,-7
1499876430914773,-6,2,-21,-57,-7,-2,0,5
1499876430915780,-20,-7,-15,32,-4,-2,-6,-31
1499876430915780,-3,-2,3,7,-1,0,-2,-18
1499876430937758,-6,2,4,24,10,4,2,-8
1499876430937758,7,5,14,-8,-4,-6,-9,-18
1499876430938758,2,4,37,14,3,0,5,10
1499876430938758,-3,0,-30,-44,8,1,-6,-2
1499876430952759,-11,5,10,50,-9,-4,-2,-4
1499876430952759,11,-12,-6,19,-7,-5,-4,18
1499876430952759,-5,-7,-11,-84,-5,-1,-3,32
1499876430952759,-18,16,28,-19,-1,-2,-3,-35
1499876430974761,32,8,56,35,1,-2,0,-7
1499876430974761,-1,5,-1,-14,0,2,-2,-4
1499876430975760,-17,-8,10,60,-2,1,13,-56
1499876430975760,2,2,-16,21,5,1,-4,37
1499876431005760,13,-4,-16,-24,-4,-2,0,20
1499876431005760,-1,1,6,-52,-9,0,1,33
1499876431005760,8,-3,-14,-6,1,0,-6,5
1499876431005760,26,6,-4,40,5,4,14,31
1499876431011782,-23,-9,-46,-20,-10,-5,-7,-42
1499876431011782,-7,1,18,-39,-4,-3,-1,-26
1499876431012762,15,-7,-32,-22,4,0,-1,3
1499876431012762,-25,-7,9,1,-8,-4,-4,-73
1499876431034762,-10,-6,6,34,3,-1,-2,-16
1499876431034762,-5,5,-7,-15,4,2,3,31
1499876431035764,3,7,16,-66,-8,-2,-2,-26
1499876431035764,-11,11,5,-30,0,0,-4,-9
1499876431056785,20,-6,-13,9,-2,1,5,55
1499876431056785,-55,-17,8,32,-2,-7,-9,-17
1499876431057764,-3,-3,-2,9,1,1,1,-16
1499876431057764,26,-3,1,24,0,-2,-4,16
1499876431071786,-22,-1,-38,-100,6,5,3,31
1499876431071786,40,10,9,15,0,2,5,92
1499876431072765,-2,-16,-32,75,-3,-5,-8,-4
1499876431072765,8,11,55,-61,-6,-2,-2,0
1499876431094766,-11,-3,-7,8,16,2,1,-33
1499876431094766,2,0,3,1,-9,2,2,14
1499876431095787,-6,-6,-34,-25,-5,-2,-3,-38
1499876431095787,4,0,-6,35,3,1,2,-8
1499876431116785,-6,-5,11,-24,-9,-6,-4,-25
1499876431116785,-1,-2,13,-66,-1,-4,-2,-27
1499876431117767,0,17,39,98,10,6,2,-2
1499876431117767,-24,-14,-9,-68,-4,-3,-3,-35
1499876431131772,1,6,24,2,3,1,0,18
1499876431131772,13,9,0,28,3,2,0,3
1499876431139790,-6,-8,-35,-7,-6,-2,-1,51
1499876431139790,-7,0,-17,-38,-6,-6,-5,24
1499876431154769,-13,-8,-14,-30,-6,-3,2,46
1499876431154769,4,0,-15,26,5,0,-3,13
1499876431155771,0,11,18,-10,1,1,11,-25
1499876431155771,18,-4,-8,10,-1,-1,-3,53
1499876431176773,-9,1,-5,18,-9,-3,-8,18
1499876431176773,3,5,-3,-2,3,2,10,-52
1499876431177773,-8,10,32,-80,4,5,3,-9
1499876431177773,9,4,29,11,-3,-6,-10,-29
1499876431191771,-24,-4,-32,-14,-10,-3,-1,-72
1499876431191771,15,-1,-14,-3,4,-2,-6,24
1499876431199793,3,-9,-26,89,-2,-1,0,27
1499876431199793,1,-1,20,-89,-9,-2,1,-26
1499876431214794,10,9,37,7,3,0,2,-12
1499876431214794,-10,5,27,-6,-2,-4,-6,-34
1499876431215794,10,-4,-43,24,7,-1,-5,36
1499876431215794,2,0,-5,-27,-5,-1,-3,-3
1499876431236795,-10,-13,-31,62,-3,-3,-1,-25
1499876431236795,-20,-4,-7,78,1,1,3,43
1499876431237774,9,1,39,-37,-5,-2,-2,40
1499876431237774,-14,-2,-13,72,5,1,-1,-15
1499876431251794,10,-6,-22,-76,-2,-1,-1,4
1499876431251794,-1,-1,-2,54,3,-1,3,35
1499876431259793,-11,-11,-20,15,-5,-7,-5,-10
1499876431259793,-2,0,-16,-1,2,1,3,-13
1499876431274798,0,-4,25,-71,-10,-4,-10,22
1499876431274798,-22,12,-56,-8,0,-1,-3,5
1499876431275798,12,-36,-2,-37,-6,-2,-1,-33
1499876431275798,-5,-4,-9,7,6,0,0,3
1499876431296780,16,3,-2,50,4,1,2,52
1499876431296780,4,2,14,-9,-1,3,1,-17
1499876431297780,-18,6,11,-48,-8,-5,-2,39
1499876431297780,3,-5,-106,53,2,0,-3,-32
1499876431311780,-6,5,46,-15,3,1,3,26
1499876431311780,-6,-16,-8,-47,-9,-1,-4,-24
1499876431319801,2,15,-3,39,10,9,4,-26
1499876431319801,-2,-16,25,-52,-13,-3,8,51
1499876431334801,-26,17,55,25,3,0,-13,-93
1499876431334801,-14,-10,-67,30,-3,-4,-5,-20
1499876431335782,8,-4,-15,-13,-1,-3,-6,-21
1499876431335782,-33,-1,1,-1,2,1,-4,-19
1499876431356781,17,6,0,31,6,3,4,-3
1499876431356781,-11,2,48,-52,1,2,3,3
1499876431357782,-16,-9,-30,42,-4,-7,-9,-88
1499876431357782,-4,-4,-6,54,0,-4,-4,13
1499876431371802,6,6,19,20,0,0,1,-20
1499876431371802,5,-12,5,-90,-10,-6,-3,27
1499876431379782,3,16,5,-34,6,3,3,32
1499876431379782,6,-6,10,36,0,0,-1,-18
1499876431394804,-2,-3,-31,-11,0,0,-1,7
1499876431394804,3,9,40,12,6,2,-1,-61
1499876431395783,18,-2,-11,40,7,3,0,-19
1499876431395783,-47,-13,-3,62,-6,-7,-6,14
1499876431416806,-24,-5,18,-55,-11,-7,-3,-30
1499876431416806,19,2,-34,-9,-3,1,-1,29
1499876431417785,-18,2,32,-34,-1,0,0,-26
1499876431417785,23,20,3,27,9,5,2,14
1499876431440808,2,-7,-1,7,3,-2,-1,-20
1499876431440808,2,-12,-11,39,-3,-1,1,42
1499876431441787,-25,5,6,-7,-2,0,-1,-34
1499876431441787,27,1,31,-36,-1,-2,-1,-4
1499876431454786,13,3,-30,24,1,5,8,3
1499876431454786,12,-8,-1,-89,-14,-10,-11,13
1499876431455789,10,3,8,31,3,1,8,12
1499876431455789,-8,-2,-16,-31,2,0,1,-1
1499876431476809,4,1,22,36,-2,0,3,7
1499876431476809,-5,9,2,75,5,1,-6,-64
1499876431477789,-15,-10,-35,-23,-7,0,-3,1
1499876431477789,11,4,-6,-34,-5,-5,-2,27
1499876431500789,-1,16,26,57,15,5,4,43
1499876431500789,10,-15,-18,14,-8,-4,0,-21
1499876431500789,6,0,-5,24,1,-5,-3,21
1499876431500789,6,-11,-24,16,-2,1,1,-2
1499876431514811,-7,-2,-2,25,-4,0,-1,64
1499876431514811,20,7,-4,-41,1,1,0,8
1499876431515793,5,9,40,-1,2,-2,2,3
1499876431515793,-4,8,28,9,6,2,2,-2
1499876431536791,8,-10,-16,-46,-11,-8,-6,-34
1499876431536791,-18,-4,-1,29,1,-4,2,1
1499876431537793,12,2,13,-28,-2,0,-1,12
1499876431537793,-10,0,-9,3,-2,-2,-4,-15
1499876431560815,7,-2,-9,-34,-3,0,1,44
1499876431560815,4,4,-3,19,3,0,3,21
1499876431560815,-6,-8,7,-24,-5,-1,0,27
1499876431560815,4,2,7,12,3,3,-4,2
1499876431574815,35,4,4,72,6,6,11,31
1499876431574815,-16,-6,4,-68,-8,-2,-1,-15
1499876431575796,-8,2,2,37,1,-1,0,-17
1499876431575796,6,-1,42,33,-1,-1,-1,34
1499876431596795,15,8,-17,-67,0,-1,-2,-30
1499876431596795,1,-33,-41,60,2,1,8,44
1499876431597796,-21,-3,22,31,-1,-6,-16,-113
1499876431597796,14,-3,-37,6,-4,-3,3,11
1499876431620817,-17,-5,-5,9,-2,-3,-5,-82
1499876431620817,0,13,3,-64,-6,-3,-5,-31
1499876431620817,8,3,35,-14,-3,-1,-1,23
1499876431620817,-8,-6,-3,-26,2,1,-1,-2
1499876431634800,-9,-3,-8,7,-4,-3,-3,-31
1499876431634800,-4,2,34,33,3,-1,-4,3
1499876431635818,3,-1,-2,-9,-2,1,0,11
1499876431635818,-10,10,15,11,1,-3,-3,-23
1499876431656819,2,4,14,16,4,3,4,-3
1499876431656819,-6,-12,-33,-20,-1,-2,4,4
1499876431657803,8,8,-18,11,-4,1,0,-1
1499876431657803,-5,-28,-34,-42,-11,-5,-5,-16
1499876431680822,-17,-10,-26,29,-8,-7,-7,-2
1499876431680822,4,16,20,34,12,5,2,-29
1499876431680822,7,-4,40,32,3,-1,-1,-1
1499876431680822,4,10,-19,-33,-2,2,3,9
1499876431694803,-9,-13,4,-45,-8,-4,-7,-27
1499876431694803,-2,0,-20,33,2,2,1,-1
1499876431695800,0,-5,24,25,-1,-3,2,9
1499876431695800,1,5,12,-67,-6,-1,-2,-32
1499876431716804,2,-4,-17,-6,7,0,-4,27
1499876431716804,1,4,-1,-1,-1,-3,-4,9
1499876431717802,-5,-2,-30,-51,-1,2,4,42
1499876431717802,-11,-13,-15,3,-4,-8,-19,-62
1499876431740804,-5,10,41,-4,2,2,0,-6
1499876431740804,-2,-3,-6,38,-5,-1,2,53
1499876431740804,7,2,-28,-9,-1,-1,-4,-13
1499876431740804,-2,4,36,19,0,4,4,16
1499876431754826,-5,3,-1,-5,2,2,-2,9
1499876431754826,11,8,35,-24,-11,-2,0,17
1499876431755807,8,1,-31,-12,-1,-2,-1,-24
1499876431755807,10,3,33,65,0,-1,1,24
1499876431776822,0,-9,-39,-25,-4,-1,-3,-5
1499876431776822,0,-3,-7,13,8,4,-1,-1
1499876431777809,6,5,30,-8,-2,-3,-4,23
1499876431777809,-4,-3,5,-15,-6,-3,-2,2
1499876431800807,-3,-3,8,6,-2,-6,-6,30
1499876431800807,-3,2,-31,14,1,2,-2,-28
1499876431800807,-8,-12,-20,-56,-7,-3,-4,15
1499876431800807,14,9,25,34,10,3,9,56
1499876431814810,-33,-7,-2,52,4,-1,-2,-77
1499876431814810,5,-7,-2,-98,-18,-9,-12,-25
1499876431815827,4,15,16,33,8,-2,0,10
1499876431815827,-10,-8,-69,-19,0,2,8,28
1499876431836808,19,-4,-18,-48,0,-3,-3,-19
1499876431836808,-13,-3,42,41,-12,-4,-2,-4
1499876431837809,-17,0,4,46,19,6,7,-37
1499876431837809,14,-7,-20,-77,-13,-4,-14,18
1499876431860813,9,5,3,-53,-5,-2,1,35
1499876431860813,-1,-9,2,65,-6,-1,-2,15
1499876431860813,-7,1,0,-12,1,0,-3,-37
1499876431860813,-7,3,8,12,5,2,7,38
1499876431874828,17,0,-13,1,-1,2,5,40
1499876431874828,4,8,24,36,10,4,4,-68
1499876431875812,23,-6,-34,-47,-10,-4,1,47
1499876431875812,-3,-1,3,-18,-7,-3,-4,-65
1499876431896812,2,7,-7,0,-2,1,3,15
1499876431896812,1,-14,-17,-9,1,-2,1,5
1499876431897812,-3,-3,-41,14,3,4,5,30
1499876431897812,-24,5,-2,21,5,-1,-3,-31
1499876431920834,16,-3,74,70,-1,-2,-4,-26
1499876431920834,-10,2,-24,-53,-7,-5,-1,13
1499876431920834,-12,6,-7,4,0,2,-3,-10
1499876431920834,15,1,20,22,-1,1,2,7
1499876431934835,-45,-14,-22,-10,-4,-5,-1,-1
1499876431934835,12,2,0,-16,10,4,0,7
1499876431935836,5,-11,6,-7,-16,-8,-9,-23
1499876431935836,-5,7,11,25,4,-3,-1,-18
1499876431956817,8,3,1,-1,-1,-1,2,12
1499876431956817,23,1,3,6,-3,-2,-2,1
1499876431957816,-36,0,-1,74,7,0,-4,-61
1499876431957816,-5,8,-1,-78,-7,5,7,-17
1499876431980838,-22,-15,-50,-18,-10,-8,-8,-84
1499876431980838,3,4,37,-6,-2,-4,-5,58
1499876431980838,-12,-11,-68,24,0,1,3,59
1499876431980838,20,-4,18,-17,-1,-3,-5,42
1499876431994839,4,-9,-30,-20,0,2,0,10
1499876431994839,1,10,19,11,7,4,8,24
1499876431995839,-25,-6,5,-33,-2,-3,-2,6
1499876431995839,-7,-3,4,30,-2,-3,1,3
1499876432016819,10,6,7,30,-2,-1,0,25
1499876432016819,-11,-1,-12,-45,13,3,0,-7
1499876432017820,7,-8,6,30,-15,-4,0,26
1499876432017820,25,8,-4,-22,1,-3,-2,-25
1499876432040821,-11,-8,4,29,0,-3,-4,18
1499876432040821,-8,4,-18,-41,0,-2,0,-31
1499876432040821,14,1,14,-10,2,2,3,-35
1499876432040821,-42,-7,-48,30,5,-2,-7,-21
1499876432053823,15,0,23,1,-3,-2,1,39
1499876432053823,-23,-4,-15,45,2,2,-2,-5
1499876432061821,19,-1,0,-93,-11,-4,-5,13
1499876432061821,10,1,-16,11,4,3,3,101
1499876432076844,0,-5,13,24,1,-3,-2,-9
1499876432076844,24,9,-13,39,1,-1,6,57
1499876432077826,-14,-4,-10,-40,-7,-6,-12,-84
1499876432077826,1,-4,-5,17,3,1,6,4
1499876432100824,-10,6,1,17,2,2,2,11
1499876432100824,6,11,57,2,-3,-3,3,35
1499876432100824,26,-5,-22,1,5,1,0,-16
1499876432100824,-16,-9,-28,24,-1,-3,-4,-11
1499876432113828,-7,5,27,-19,2,2,-1,-29
1499876432113828,15,8,16,12,4,3,0,-28
1499876432121846,-20,-3,-14,-34,-2,2,2,25
1499876432121846,-7,-1,25,39,-4,-1,-3,-35
1499876432136847,1,0,14,41,-1,-3,-4,-22
1499876432136847,-18,-11,-44,-74,-14,-5,-4,-19
1499876432137826,13,2,-6,-73,0,-1,3,31
1499876432137826,6,0,11,28,1,0,3,23
1499876432160846,-23,0,-42,-50,0,1,-1,13
1499876432160846,15,-7,31,39,-1,-3,-4,18
1499876432160846,-21,14,71,63,2,2,2,-74
1499876432160846,6,-14,-28,-45,-7,-5,-6,5
1499876432182828,20,8,-13,-37,-1,-1,-1,15
1499876432182828,-29,-11,19,78,1,-4,-4,-7
1499876432183850,8,8,28,67,-5,-3,-1,23
1499876432183850,-10,-4,-43,-71,-5,-4,-3,-40
1499876432196832,7,-1,21,-19,-2,-1,-1,16
1499876432196832,0,-5,-5,-22,0,-1,-2,10
1499876432197830,3,0,-1,26,4,1,-1,6
1499876432197830,11,3,34,26,-1,-3,-3,35
1499876432220831,12,4,-16,23,-4,-1,-3,-13
1499876432220831,2,-6,-30,-59,-3,2,6,-22
1499876432220831,-31,-6,18,14,1,-2,-3,8
1499876432220831,12,11,-12,72,1,0,1,7
1499876432233831,-2,-17,1,-102,-8,-2,-1,52
1499876432233831,-10,10,22,62,3,3,-2,-48
1499876432241836,30,0,-5,-5,-8,-7,-3,40
1499876432241836,4,-1,-2,-92,-2,0,-1,-16
1499876432256833,1,1,-18,34,3,1,4,9
1499876432256833,-31,-8,-40,3,0,-1,-2,-31
1499876432257834,5,1,14,2,-2,1,4,63
1499876432257834,0,-7,27,25,-11,-6,-6,-9
1499876432280858,-1,4,-7,13,3,2,-1,2
1499876432280858,-5,3,26,-28,-3,-1,-4,-41
1499876432280858,3,-5,-17,25,3,1,0,2
1499876432280858,-5,2,11,20,3,0,1,-9
1499876432293839,1,2,19,-9,0,0,-1,7
1499876432293839,5,4,-21,19,4,1,4,39
1499876432301835,31,8,31,5,-4,-4,-7,-17
1499876432301835,-49,-13,-24,-6,0,-1,1,-36
1499876432316858,7,7,36,42,6,2,6,-41
1499876432316858,-2,4,-26,-35,1,0,-6,-31
1499876432317837,34,6,24,-17,-7,2,4,56
1499876432317837,-4,-15,-1,-7,-3,-3,-1,-6
1499876432340838,-12,1,-45,2,1,0,0,-23
1499876432340838,9,-11,12,13,8,0,0,23
1499876432340838,-11,-8,-8,-14,-3,0,-2,-27
1499876432340838,18,9,5,-3,-5,-1,-1,-4
1499876432353860,-4,-13,-31,5,-1,-3,-2,22
1499876432353860,0,-2,4,4,-5,-1,-3,-2
1499876432361860,-9,-6,-16,-15,3,0,-3,-28
1499876432361860,17,14,20,6,1,0,0,11
1499876432376843,-7,-1,-4,11,-2,-1,-1,-13
1499876432376843,-10,-13,-23,16,-4,-5,-2,29
1499876432377841,-22,15,27,-64,2,0,-5,-103
1499876432377841,-9,-20,3,9,-17,-12,-7,-26
1499876432400852,14,8,30,-22,1,-1,-2,48
1499876432400852,16,-2,-36,16,-1,1,-2,15
1499876432400852,-25,2,-21,35,2,0,2,30
1499876432400852,16,-5,-17,-84,-2,0,2,-10
1499876432422843,3,-3,13,-15,-7,-4,-3,50
1499876432422843,2,8,37,9,5,1,0,-27
1499876432423864,-17,4,-5,50,7,5,5,-12
1499876432423864,16,-2,-22,20,-2,-5,-15,-2
1499876432436865,3,-9,-16,-47,-11,-4,0,-18
1499876432436865,-2,3,2,-6,-1,-2,0,3
1499876432437844,-2,-3,-20,-47,3,-1,-2,-33
1499876432437844,-3,2,41,85,4,3,5,14
1499876432460852,-4,2,-12,-40,2,2,-2,-33
1499876432460852,-10,-4,14,-12,-7,-5,-7,19
1499876432460852,-2,-16,-31,19,-4,-5,-1,27
1499876432460852,-14,17,39,-45,8,6,2,-17
1499876432482846,11,-30,-97,2,-7,-5,-7,-11
1499876432482846,-23,-2,33,-6,-2,-2,0,-21
1499876432483851,9,-1,43,18,0,-3,1,51
1499876432483851,3,1,-54,21,3,1,2,13
1499876432496847,-11,8,11,15,10,3,3,-63
1499876432496847,14,-2,7,-43,-9,0,5,91
1499876432497848,-25,-8,-17,-75,-8,-4,-7,-42
1499876432497848,10,9,5,6,3,3,5,23
1499876432520862,-5,10,30,3,3,0,-2,-1
1499876432520862,-5,-12,-45,15,-7,-6,-2,-12
1499876432520862,1,-2,-2,6,-2,-1,0,17
1499876432520862,-3,-11,-9,4,0,0,-1,32
1499876432542868,-14,2,20,5,-2,0,-4,-76
1499876432542868,15,11,12,25,6,2,0,-12
1499876432543871,9,8,15,-1,1,1,2,34
1499876432543871,-2,-1,5,-12,-6,-4,-2,-20
1499876432556871,-7,-17,-37,54,0,-1,2,18
1499876432556871,10,-4,-19,-11,-5,0,-3,18
1499876432557851,-1,5,12,-1,3,1,1,-21
1499876432557851,11,8,-40,15,-5,-1,2,-29
1499876432580864,-30,-22,52,-9,-7,-5,-3,-21
1499876432580864,4,-7,-7,96,3,-2,3,70
1499876432580864,-5,-2,-34,-37,0,1,1,-15
1499876432580864,5,4,-21,-24,4,3,-1,-9
1499876432602853,8,19,-2,-8,-8,-3,-2,24
1499876432602853,-9,-19,-12,-10,-5,-4,-1,-25
1499876432603853,8,-5,-13,10,4,0,0,12
1499876432603853,-15,-1,24,53,4,1,-3,-2
1499876432616872,-4,11,6,-3,3,3,4,5
1499876432616872,7,5,4,-40,3,2,-4,-74
1499876432617855,11,-3,9,41,-10,-4,1,26
1499876432617855,-25,-9,7,15,0,-5,-11,-102
1499876432640855,5,5,-3,45,6,2,6,0
1499876432640855,4,-3,17,-30,-3,-4,-5,53
1499876432640855,-9,-7,-32,24,2,2,1,-1
1499876432640855,22,-2,-11,-40,-4,-1,2,75
1499876432670858,-19,-7,44,12,-3,-4,-6,-23
1499876432670858,-4,3,-17,-27,0,1,-3,-33
1499876432670858,-6,2,-8,29,4,1,-1,0
1499876432670858,-9,0,54,-18,4,1,1,13
1499876432676879,9,-2,-87,-72,-9,-4,-1,8
1499876432676879,-7,5,59,34,-7,-5,3,52
1499876432677860,2,-8,6,-13,-4,-5,-16,-44
1499876432677860,0,5,-27,-7,0,0,2,-3
1499876432700864,11,-1,18,0,5,5,2,17
1499876432700864,-8,3,-5,6,-3,-2,-3,-22
1499876432700864,0,-1,31,80,0,-4,-2,9
1499876432700864,-9,-1,-18,-100,-5,-2,-1,-13
1499876432722861,-1,-5,-31,25,0,0,0,-40
1499876432722861,-1,0,-27,-19,5,2,-1,-28
1499876432723860,-24,8,42,24,2,0,0,-4
1499876432723860,9,-2,-6,39,3,-1,-3,-15
1499876432736863,14,-8,-41,-22,-7,-3,-3,8
1499876432736863,17,0,-13,-14,-5,1,3,-2
1499876432737872,-7,5,21,-25,-1,-2,-6,-19
1499876432737872,-16,-2,-4,14,1,-2,7,38
1499876432760862,10,-3,14,35,1,0,-6,9
1499876432760862,-9,15,14,-49,6,2,-1,-26
1499876432760862,7,-10,-11,-6,-4,-1,1,30
1499876432760862,-3,-9,13,-39,-8,0,-4,19
1499876432782880,-1,12,33,40,4,-1,-2,12
1499876432782880,20,-15,-5,18,3,-1,-1,57
1499876432783885,-10,4,-16,-17,1,4,3,-48
1499876432783885,3,3,34,37,0,-1,-1,4
1499876432796866,0,-2,-22,17,5,2,2,9
1499876432796866,-14,-3,6,-25,-13,-9,-9,-10
1499876432797865,7,4,-17,-15,2,-2,5,37
1499876432797865,-3,-17,-28,18,-2,-2,-2,-13
1499876432820865,8,8,32,8,0,-1,-1,24
1499876432820865,-8,2,-29,5,1,1,-1,-40
1499876432820865,8,-5,6,-27,-1,-3,1,10
1499876432820865,-43,10,3,39,9,2,-5,-62
1499876432842867,39,-21,-21,-91,-22,-14,-14,27
1499876432842867,-37,-1,7,18,4,1,-1,-26
1499876432843867,8,2,-9,-12,-4,2,-1,-18
1499876432843867,4,4,23,10,0,-1,-2,9
1499876432856867,-20,8,21,-1,1,5,5,-29
1499876432856867,8,-7,6,22,0,-1,-3,-26
1499876432857868,7,-3,-56,-28,-2,-1,-1,21
1499876432857868,-1,-3,21,52,3,3,4,14
1499876432880869,-12,-5,-17,-61,-12,-8,-4,1
1499876432880869,14,0,2,10,1,-2,3,19
1499876432880869,-5,2,-1,75,5,4,3,-11
1499876432880869,1,0,16,-115,-11,-4,-4,0
1499876432902870,-4,-1,-8,38,3,2,0,-3
1499876432902870,2,12,27,31,2,1,0,14
1499876432903887,-7,-8,-24,-13,-4,-3,-3,-43
1499876432903887,-9,-3,-11,57,4,-1,1,11
1499876432916893,7,-3,-22,34,-1,-3,-2,12
1499876432916893,-8,-3,-11,-66,-9,-6,-2,-9
1499876432917872,7,0,16,12,3,-1,2,11
1499876432917872,6,-6,-39,-64,-5,0,1,-15
1499876432939873,-17,12,52,16,4,5,1,-19
1499876432939873,-12,0,0,19,1,0,-2,-7
1499876432946872,-2,-6,-19,-24,-5,-4,-9,0
1499876432946872,13,2,16,30,0,-1,-3,-52
1499876432962895,-14,2,18,10,1,-2,-3,33
1499876432962895,-2,0,-23,-17,-3,-1,1,2
1499876432963895,-5,0,28,-14,-3,-4,-7,-11
1499876432963895,7,-3,-4,55,3,0,-2,23
1499876432976875,-2,-7,-41,-81,-8,-3,0,27
1499876432976875,5,3,25,32,5,3,0,-29
1499876432984896,-6,-12,-16,-5,-6,-2,-1,28
1499876432984896,17,4,0,4,-2,-1,5,-19
1499876433000876,-2,1,1,20,2,0,-4,-23
1499876433000876,-6,8,36,-2,7,2,1,-10
1499876433000876,1,0,-21,7,-7,-1,1,-11
1499876433000876,-1,-2,-25,2,-3,-2,2,13
1499876433022877,-9,-3,14,-42,-2,0,-1,-7
1499876433022877,-1,1,1,-35,-3,1,-3,-17
1499876433023880,17,4,7,31,10,6,7,3
1499876433023880,-31,-6,-1,8,-4,-5,-7,-41
1499876433036878,-11,-6,-5,-32,-6,-9,-12,-85
1499876433036878,24,4,-22,83,4,3,4,23
1499876433044880,7,-4,14,-53,-6,-1,0,50
1499876433044880,-12,1,-24,-67,-7,-2,-2,22
1499876433060882,-1,-10,-24,30,6,2,3,-4
1499876433060882,31,-4,-14,-29,0,0,1,-19
1499876433060882,-22,2,33,51,-2,-2,-8,-50
1499876433060882,-2,-3,10,1,-2,-3,1,-20
1499876433082902,14,5,7,85,8,4,10,79
1499876433082902,-1,-11,-34,-64,-15,-7,-7,-45
1499876433083881,2,-2,-4,-71,-1,-3,-4,-6
1499876433083881,9,-2,-5,15,5,1,-1,33
1499876433096881,-2,9,49,63,10,5,4,-6
1499876433096881,-5,9,2,-27,2,1,0,15
1499876433104881,-6,-12,-42,16,-13,-7,-2,0
1499876433104881,-2,1,21,28,5,0,-2,7
1499876433119904,16,3,6,7,3,1,2,5
1499876433119904,-21,0,17,-22,-2,-4,-5,25
1499876433120888,-1,-10,-23,-19,-1,-2,-3,6
1499876433120888,27,4,0,24,-4,2,3,16
1499876433142905,-8,0,-9,1,1,1,-1,-29
1499876433142905,-15,-8,-14,72,-5,-4,-7,-58
1499876433143905,-36,-4,25,-52,-3,-2,1,-18
1499876433143905,28,0,-31,20,0,-3,-8,-67
1499876433156906,6,-7,-11,1,-4,-2,-2,4
1499876433156906,-25,3,8,-51,-3,-1,2,24
1499876433164887,-3,7,-10,-11,-1,1,-1,-77
1499876433164887,3,-14,-9,-5,-6,-5,-2,95
1499876433179906,9,7,35,7,0,1,-2,20
1499876433179906,1,1,7,42,4,1,7,-4
1499876433180891,18,2,15,-39,5,4,4,40
1499876433180891,-10,-2,-36,-2,-8,0,3,44
1499876433202887,-1,-10,-28,-115,-11,-4,-3,-17
1499876433202887,3,1,37,62,5,1,-1,15
1499876433203904,11,7,10,-3,6,-2,-1,58
1499876433203904,2,7,19,58,4,1,-1,-11
1499876433216889,-12,3,-11,-96,-13,-2,-2,-13
1499876433216889,7,-9,-13,68,0,-6,-7,-19
1499876433224911,6,2,14,44,3,3,3,-2
1499876433224911,-18,-5,1,-50,-2,0,1,80
1499876433239892,25,-1,16,52,-3,-5,-7,-2
1499876433239892,7,-2,-36,-88,-4,2,-1,21
1499876433240893,11,1,-17,5,-4,0,1,14
1499876433240893,-2,-7,5,57,2,-2,-6,14
1499876433262909,-18,3,16,-49,3,2,1,-5
1499876433262909,4,-13,-45,-14,-1,2,7,14
1499876433263895,15,8,19,-29,-6,-4,-2,14
1499876433263895,-8,0,4,-34,3,1,-3,-15
1499876433276892,2,6,37,97,5,0,0,4
1499876433276892,-1,-5,-42,-43,-4,-2,-1,-4
1499876433284892,-15,-5,3,41,-5,-4,-6,-33
1499876433284892,13,0,-1,-13,5,2,0,-32
1499876433299896,-20,2,13,44,1,-1,0,80
1499876433299896,-5,5,-51,18,7,2,-3,-22
1499876433300893,-11,-18,7,-1,-7,-7,-5,-11
1499876433300893,-1,8,28,14,-2,-4,-5,-23
1499876433322915,8,-10,-33,-82,-4,-1,2,6
1499876433322915,-8,3,33,30,5,5,5,-28
1499876433324901,5,-4,-23,1,-2,-4,-1,37
1499876433324901,3,6,-1,0,2,1,1,-21
1499876433352896,-5,-3,-12,52,-2,-2,0,-3
1499876433352896,9,4,38,-4,-1,-4,-4,39
1499876433354916,-7,5,4,23,7,3,3,-41
1499876433354916,11,-4,-8,-52,-11,-3,-2,-17
1499876433358896,-1,5,-4,34,0,-2,-2,23
1499876433358896,-19,-11,31,6,-7,-4,-4,-58
1499876433367898,3,-8,-5,-20,0,1,2,12
1499876433367898,-11,-1,0,-7,2,-1,0,-16
1499876433382901,-11,-3,-2,-40,-3,-1,0,-30
1499876433382901,11,1,-16,59,-1,-2,1,12
1499876433384900,-2,6,-10,-13,4,3,1,3
1499876433384900,-13,2,23,27,-5,-2,-2,-31
1499876433404921,8,-11,-18,-20,2,-1,0,-14
1499876433404921,1,6,17,15,-2,-2,-3,41
1499876433406901,-2,-3,31,33,4,3,5,46
1499876433406901,3,-3,-21,-47,-3,-1,1,23
1499876433418902,-14,-2,-7,29,4,1,-1,-15
1499876433418902,-1,-2,-3,-21,-2,-3,-4,-7
1499876433427904,-6,1,-12,-18,-3,-1,0,-4
1499876433427904,8,1,-14,22,-2,0,0,12
1499876433442901,-2,1,7,-5,-2,1,0,-5
1499876433442901,-13,-7,-2,11,-3,-2,-1,-2
1499876433444923,9,4,-1,-56,-3,-1,-3,-10
1499876433444923,-7,-6,-5,-19,1,0,2,-3
1499876433464924,-2,2,31,48,4,-2,-2,-15
1499876433464924,3,-5,-34,-38,-1,2,0,5
1499876433466904,7,2,1,47,0,0,-3,-1
1499876433466904,-1,-2,-9,-83,-7,-1,1,6
1499876433478925,-12,-3,-1,24,2,-2,-9,-89
1499876433478925,-3,-1,-11,-24,-5,-6,-1,11
1499876433487905,0,-5,-12,1,-1,0,1,28
1499876433487905,-2,-1,10,4,-4,-2,-4,16
1499876433502907,3,4,13,5,-3,2,3,2
1499876433502907,-1,3,29,-2,0,0,-3,5
1499876433504927,-11,-6,-15,11,-4,-5,-7,-64
1499876433504927,1,-1,4,-1,1,-1,0,29
1499876433524927,3,0,-9,-11,1,1,2,6
1499876433524927,4,-1,3,15,1,0,-1,54
1499876433526908,-12,3,13,16,-1,-4,-8,-69
1499876433526908,-5,-8,-18,25,3,2,2,-2
1499876433538907,6,1,-14,9,-7,-1,-1,13
1499876433538907,-2,-8,-9,-67,-11,-3,0,-1
1499876433547909,6,-5,-9,3,2,-1,-4,17
1499876433547909,-6,2,-4,25,2,1,1,-21
1499876433562912,-2,-3,-26,19,0,-1,1,17
1499876433562912,-1,1,27,16,3,3,-1,-27
1499876433564914,4,2,9,-9,-3,-2,3,46
1499876433564914,-1,-4,-17,-16,2,1,-2,-34
1499876433584912,3,1,-2,6,1,0,2,35
1499876433584912,-2,-1,7,-11,4,0,0,-22
1499876433586912,1,1,6,1,-3,-2,1,15
1499876433586912,1,-1,9,12,3,-1,2,4
1499876433599931,-2,-2,-10,-37,-6,-2,-1,-22
1499876433599931,0,-1,-4,35,3,0,0,-13
1499876433606911,-1,0,-3,-28,-5,-2,-4,-14
1499876433606911,1,4,7,-2,0,-2,-4,27
1499876433622911,1,-1,10,8,-1,-3,-1,18
1499876433622911,2,3,0,-35,-1,1,0,-15
1499876433624934,0,-4,-3,25,2,1,2,18
1499876433624934,-1,-1,9,45,-1,1,0,-2
