timestamp,emg1,emg2,emg3,emg4,emg5,emg6,emg7,emg8
1499894372495366,11,4,-6,15,4,-1,-15,27
1499894372495366,-22,-13,-39,-29,-6,-2,16,-41
1499894372512376,-1,9,0,-24,9,6,-4,-6
1499894372512376,-23,-2,4,55,-3,-1,-4,-26
1499894372513366,27,4,25,25,4,-2,4,26
1499894372513366,-26,-13,-40,-70,-17,-6,-17,29
1499894372534390,-28,4,29,86,9,0,-6,-57
1499894372534390,17,-4,-48,-53,-2,0,2,-56
1499894372536368,9,5,14,75,5,1,-13,-9
1499894372536368,12,-8,1,52,-2,-4,12,11
1499894372548369,1,3,5,-67,-2,-1,-2,20
1499894372548369,5,-4,5,-5,-1,0,-7,-42
1499894372557369,-25,-7,-14,-64,-3,1,4,-51
1499894372557369,15,5,14,-16,3,-3,-1,-6
1499894372572369,14,-1,-14,78,9,8,0,49
1499894372572369,7,-1,13,-47,-2,-2,-1,21
1499894372573369,-28,-8,-9,-53,-7,-6,-6,32
1499894372573369,18,11,19,8,6,5,14,-2
1499894372594384,27,-9,-23,21,-6,-6,-1,37
1499894372594384,15,9,17,-10,6,-3,-12,-80
1499894372596370,-23,-17,-26,-7,-14,-5,9,-10
1499894372596370,-7,6,2,52,6,5,-7,-20
1499894372608385,-33,-9,16,-39,-13,-10,-14,-12
1499894372608385,19,-1,-19,5,-5,6,27,55
1499894372617383,12,7,17,-11,3,1,-3,-3
1499894372617383,-9,-4,10,19,6,2,-4,6
1499894372632372,22,11,11,40,6,3,7,17
1499894372632372,-27,-13,-35,-1,-7,-7,-12,42
1499894372634372,3,7,17,-8,3,-4,-2,-74
1499894372634372,5,-11,-22,-2,-7,-1,4,97
1499894372654383,8,2,3,-35,-2,2,-7,-41
1499894372654383,12,-4,-3,-92,-7,-4,-3,27
1499894372656374,-12,-3,3,90,1,-2,-1,-21
1499894372656374,23,8,19,10,1,-2,1,7
1499894372677376,2,-4,-23,-10,0,0,8,67
1499894372677376,-9,1,23,17,3,0,-2,28
1499894372678375,17,-9,-27,-9,-4,-3,-3,22
1499894372678375,-7,10,-2,13,4,3,-2,-36
1499894372692377,7,-20,-37,-88,-8,-5,-2,-15
1499894372692377,15,2,26,37,5,-5,-5,-32
1499894372693376,-40,4,4,44,0,2,3,39
1499894372693376,21,4,-1,-49,-7,-3,-8,-72
1499894372714378,3,-5,-11,47,3,0,-1,-8
1499894372714378,-9,-4,0,13,-3,-1,-6,19
1499894372720378,-6,0,20,14,0,-3,-12,10
1499894372720378,13,1,1,-25,5,3,5,-22
1499894372728378,2,2,-7,35,-8,-3,-4,-29
1499894372728378,-24,5,14,-26,5,-1,-2,-58
1499894372737379,16,-10,-16,-41,-9,-1,2,17
1499894372737379,-21,1,-4,-17,-2,-3,0,-17
1499894372752379,10,1,9,56,4,2,-2,26
1499894372752379,-4,-1,1,7,-2,-1,0,23
1499894372753385,-5,5,-6,-34,-1,-5,3,-13
1499894372753385,11,-4,2,12,-2,0,1,28
1499894372774382,-2,1,-4,-13,5,-1,-5,-17
1499894372774382,-16,0,-4,69,-2,-5,-7,-83
1499894372776385,-4,4,0,-83,-4,2,-1,21
1499894372776385,-20,-9,36,39,-7,-8,-10,-21
1499894372788382,-8,-1,-11,-33,-1,-2,-4,4
1499894372788382,26,5,1,13,3,5,17,-5
1499894372797384,48,-2,-11,24,1,0,-6,60
1499894372797384,-27,-4,7,17,1,-4,-9,-29
1499894372812385,8,12,21,-57,1,4,10,65
1499894372812385,-20,-19,-24,3,-22,-14,-9,62
1499894372814384,33,5,8,6,6,3,4,66
1499894372814384,-18,-3,-25,-48,2,1,-3,-43
1499894372834387,5,6,14,70,7,3,3,-13
1499894372834387,-14,-6,4,31,-2,-3,-5,-8
1499894372836386,3,-3,-9,-37,0,1,4,-24
1499894372836386,11,5,25,51,3,4,2,33
1499894372848399,-19,-16,-57,-88,-13,-10,-6,-12
1499894372848399,14,8,27,31,-5,-7,5,5
1499894372857386,-18,-1,-3,29,8,7,-3,8
1499894372857386,9,10,11,-55,-3,0,7,33
1499894372872387,32,4,30,12,4,4,4,61
1499894372872387,-22,-3,-2,8,4,2,1,37
1499894372873387,14,-2,1,13,-4,-6,1,-63
1499894372873387,-6,-9,10,-16,-2,-2,-4,2
1499894372894401,-1,1,-25,-29,-3,-4,-2,19
1499894372894401,1,6,-6,-16,0,2,-2,30
1499894372896389,-20,8,39,55,1,0,2,-7
1499894372896389,-1,-11,-37,-23,9,3,0,-62
1499894372908404,-11,-4,18,9,-9,-5,-6,-81
1499894372908404,15,1,-18,-26,3,-2,-4,11
1499894372917389,-26,-7,-37,-14,-2,-2,3,-50
1499894372917389,12,-1,-10,-15,-11,-4,-1,42
1499894372932391,-22,-4,-2,84,8,0,2,6
1499894372932391,1,-2,42,-67,-13,-5,-8,-6
1499894372933392,19,5,3,12,3,2,-6,12
1499894372933392,0,-8,-20,9,-7,-4,-4,57
1499894372954405,12,1,5,20,-1,-6,-4,21
1499894372954405,14,-4,-26,-15,2,7,5,24
1499894372956394,-9,1,4,-7,-1,-1,1,-9
1499894372956394,2,0,11,36,4,0,0,9
1499894372977394,13,0,8,-67,-15,-4,-11,55
1499894372977394,13,-4,-9,40,1,-3,0,-25
1499894372978393,-8,-1,-22,-56,-5,-1,8,74
1499894372978393,9,8,28,65,8,2,-2,-4
1499894372992396,-4,8,17,37,7,2,3,-15
1499894372992396,8,-7,-20,-74,-10,1,0,44
1499894372993394,-13,2,15,-22,5,2,-1,-40
1499894372993394,6,2,6,56,-1,-1,10,40
1499894373014396,-36,7,10,-57,-2,3,1,-70
1499894373014396,-12,-7,31,25,4,0,-1,2
1499894373016398,-8,1,-7,2,-6,-4,-11,-30
1499894373016398,6,1,-8,-24,-7,-2,9,28
1499894373037404,9,-7,-1,59,4,0,8,14
1499894373037404,-21,9,-24,-83,4,7,1,-18
1499894373038397,-8,-20,-14,58,-13,-9,-11,16
1499894373038397,4,3,3,26,1,-4,-10,-47
1499894373052401,-1,-10,-22,-4,-3,-1,1,-34
1499894373052401,0,3,-8,-27,5,0,-3,4
1499894373053400,3,-6,-12,46,1,-1,-1,-9
1499894373053400,-3,-5,-37,-25,-6,0,-8,36
1499894373074398,-9,1,14,6,4,-1,1,-15
1499894373074398,8,-2,-15,-46,-2,-1,-4,33
1499894373076399,-10,-7,8,14,-2,-2,-2,17
1499894373076399,-4,-7,-18,-33,-3,-2,-3,-24
1499894373097401,0,-4,-5,44,5,1,-4,-2
1499894373097401,9,11,18,-20,2,4,0,-12
1499894373098399,-4,-2,-1,-11,-7,-4,5,6
1499894373098399,14,3,-3,-38,-5,-1,7,44
1499894373111402,-11,5,16,18,8,6,4,49
1499894373111402,6,-10,-27,57,-7,-6,-4,21
1499894373118412,8,2,-17,2,3,4,-2,-14
1499894373118412,-19,-1,14,-7,-4,-2,-4,-31
1499894373134403,-11,-6,-21,-66,-10,-7,5,3
1499894373134403,2,4,17,51,11,5,1,-75
1499894373136404,-11,-2,0,-57,-3,-5,-3,-31
1499894373136404,-3,9,19,29,7,4,5,52
1499894373157407,-41,-21,-39,29,2,-6,-7,-94
1499894373157407,-5,-1,0,-7,-1,-1,-3,1
1499894373158407,13,4,21,-3,4,1,4,42
1499894373158407,-19,0,-15,-6,1,-1,-5,-36
1499894373171406,35,7,18,12,-2,2,-5,51
1499894373171406,5,3,15,-15,-1,-1,7,84
1499894373178409,-13,-17,-16,22,-9,-5,-5,-20
1499894373178409,0,7,25,-43,-6,-1,-1,-7
1499894373194423,4,3,2,35,2,2,-2,-11
1499894373194423,-11,-12,-52,-26,-4,-5,-7,-32
1499894373196409,13,11,4,-34,2,5,1,-11
1499894373196409,14,4,16,13,-5,-3,-9,46
1499894373217406,-9,-12,-3,-70,-5,-4,-9,1
1499894373217406,1,-1,-14,63,2,0,14,17
1499894373218406,-12,0,12,28,3,-3,-8,-48
1499894373218406,13,3,13,-28,4,3,-2,-45
1499894373239414,-9,-11,-24,-12,-9,-5,-9,9
1499894373239414,1,2,2,37,-1,-4,2,67
1499894373241410,-13,-1,-6,-26,0,1,3,-13
1499894373241410,-3,-4,13,-46,-4,-3,-1,-9
1499894373254424,34,10,-9,-34,-4,1,1,64
1499894373254424,-7,-7,15,52,-3,-6,-9,-42
1499894373256409,-2,3,21,-16,5,2,0,1
1499894373256409,-19,4,-2,48,4,6,5,-55
1499894373277410,-11,-2,-5,-17,-1,-4,-4,-109
1499894373277410,-10,-22,-35,-30,-15,-9,-7,3
1499894373278411,12,3,3,3,5,1,3,68
1499894373278411,-2,-8,-26,-56,-1,-1,-2,-9
1499894373291428,2,4,8,43,2,3,3,29
1499894373291428,-1,11,29,39,6,2,0,-29
1499894373298426,-2,-5,-12,-88,-6,-2,0,5
1499894373298426,-7,-6,-12,66,1,-3,-3,29
1499894373314413,-7,-8,-5,23,1,-4,-2,-25
1499894373314413,7,6,1,-19,-5,1,-4,12
1499894373316413,10,5,13,4,-3,-1,-1,20
1499894373316413,-5,-8,-27,-24,-4,-6,0,2
1499894373337417,7,8,32,27,4,4,-1,3
1499894373337417,-4,1,-14,-20,1,1,1,33
1499894373338416,2,-7,-8,15,-1,2,1,5
1499894373338416,-1,-5,-18,12,0,0,-2,-5
1499894373351414,-32,8,28,78,1,-4,-4,-34
1499894373351414,15,-11,-16,-61,-1,-4,-1,38
1499894373358415,-2,8,8,-29,-10,-3,-2,12
1499894373358415,5,0,-9,36,1,1,-3,-49
1499894373374428,22,-5,-33,-25,4,4,0,-18
1499894373374428,-7,3,15,72,-2,0,0,14
1499894373376417,-15,-3,-10,43,6,0,0,-29
1499894373376417,2,3,-2,-8,-2,-1,0,-2
1499894373397420,-2,-10,-13,-26,0,0,2,26
1499894373397420,5,3,13,0,3,-1,-1,-33
1499894373398417,-10,-3,-15,-24,-8,-5,-4,-61
1499894373398417,-3,-2,-3,-4,-4,-7,-2,21
1499894373411418,10,9,26,-25,4,10,8,16
1499894373411418,-10,-5,-4,29,3,0,-2,-37
1499894373418421,9,-8,-29,-61,-9,-2,-2,35
1499894373418421,-20,3,47,55,10,1,-1,-27
1499894373434422,11,8,19,-82,-12,-10,-9,-7
1499894373434422,10,5,-7,-28,4,3,-3,17
1499894373436420,-19,-5,-13,51,9,0,-3,-30
1499894373436420,12,-7,-14,-79,-9,-4,-1,23
1499894373457423,-2,2,1,-18,0,4,-1,8
1499894373457423,-9,4,41,111,3,0,2,-20
1499894373458421,19,0,1,-100,-13,-4,0,4
1499894373458421,-21,-3,-20,39,7,2,-1,42
1499894373470423,9,3,18,8,-6,-2,4,-33
1499894373470423,1,6,0,-85,2,5,3,4
1499894373479423,-2,-12,-25,75,-2,-4,0,51
1499894373479423,8,-4,7,27,1,2,1,20
1499894373495441,-14,-6,-17,-4,-6,-5,1,17
1499894373495441,-6,-1,-1,64,2,-7,-3,-24
1499894373496426,5,4,5,-83,-2,7,4,31
1499894373496426,7,0,-3,-6,3,1,-2,-25
1499894373517428,-9,-4,-19,26,-4,-4,0,3
1499894373517428,-3,-4,13,19,1,-2,-1,-7
1499894373518427,0,6,10,15,3,0,-4,-2
1499894373518427,-10,-5,0,2,-10,-3,3,-17
1499894373530427,6,10,5,-10,6,1,-7,-44
1499894373530427,-5,-16,-17,-45,-8,-5,-6,-66
1499894373539425,-21,3,6,6,4,-4,-2,-56
1499894373539425,0,-8,-15,63,-8,-2,-5,13
1499894373554427,12,3,15,51,7,2,9,39
1499894373554427,2,2,-15,-49,-11,-1,-2,4
1499894373556427,2,3,38,42,5,1,-4,-19
1499894373556427,3,3,14,-39,2,2,1,-4
1499894373576427,-15,-7,-15,13,-5,-2,1,48
1499894373576427,10,5,0,-15,2,1,-2,17
1499894373584431,12,-1,-4,61,-3,-8,-1,20
1499894373584431,-7,1,-2,-92,-3,5,-5,20
1499894373590429,0,-4,0,6,0,-2,1,21
1499894373590429,15,7,16,-46,6,6,8,31
1499894373599431,-10,1,-15,34,-1,-3,-4,-9
1499894373599431,0,-19,-16,40,0,-5,-2,5
1499894373614432,-2,5,23,-6,2,1,-5,-82
1499894373614432,-11,-5,-28,-51,-6,-1,5,22
1499894373616430,10,7,28,88,10,5,-3,18
1499894373616430,10,3,-21,-6,-9,-8,1,-9
1499894373637439,-7,-9,-9,-21,-7,3,1,29
1499894373637439,6,0,8,3,3,0,1,-3
1499894373638430,-4,4,3,-68,-1,3,2,-52
1499894373638430,17,-15,-24,78,1,-4,-6,44
1499894373650449,-10,0,9,-14,-4,-5,1,26
1499894373650449,5,3,-9,-9,2,-1,-7,-9
1499894373659435,2,-7,-10,6,-3,-1,2,25
1499894373659435,0,8,22,-48,-1,2,-1,-11
1499894373674433,1,-1,2,-30,-10,-4,-1,30
1499894373674433,-4,-5,-5,43,0,-2,-3,86
1499894373676453,-6,-3,-13,-39,3,2,-2,-48
1499894373676453,2,0,7,50,0,-8,2,-18
1499894373697439,-2,-2,-3,-28,0,9,10,-9
1499894373697439,-14,-1,9,0,-6,-4,-3,-9
1499894373698436,2,1,10,2,-3,-4,0,26
1499894373698436,-8,9,16,-47,3,3,-1,-22
1499894373710496,0,-4,-41,81,3,-3,-11,-6
1499894373710496,5,-5,4,-59,-4,-1,6,11
1499894373719436,-15,-9,1,8,-8,-3,-6,-50
1499894373719436,0,0,-10,-57,-6,-5,-6,22
1499894373734437,-10,5,5,7,6,-1,-1,-27
1499894373734437,-16,-10,-16,19,3,1,-5,32
1499894373736439,7,3,-2,25,-7,0,-4,-4
1499894373736439,-2,-1,-14,5,5,3,-1,-16
1499894373757437,-3,-11,-5,-7,-5,-6,-4,20
1499894373757437,0,4,9,15,-2,1,4,-42
1499894373758439,9,1,-11,-21,5,4,5,30
1499894373758439,7,4,19,19,-3,-1,-2,32
1499894373770442,1,-5,-14,-40,-4,-3,-2,26
1499894373770442,-7,6,21,43,1,-4,-3,-36
1499894373779438,6,-11,-48,-67,-8,0,-3,49
1499894373779438,-15,6,20,39,4,0,1,-80
1499894373794504,3,0,17,42,2,-2,-3,-2
1499894373794504,-4,3,1,-38,-4,1,-2,-30
1499894373796467,3,3,28,25,4,0,3,-5
1499894373796467,1,-6,-23,-21,-2,-1,0,19
1499894373824460,1,-3,10,14,1,-1,1,-7
1499894373824460,1,0,-26,8,1,-2,-6,-13
1499894373825459,2,3,25,37,7,2,3,-5
1499894373825459,-4,-5,-10,-43,-13,-4,-1,-28
1499894373830445,5,-5,0,-53,-6,-1,-9,33
1499894373830445,1,1,4,39,3,0,-5,-52
1499894373839444,3,1,-18,-31,1,1,6,3
1499894373839444,-1,3,31,25,1,-1,1,-10
1499894373854443,20,-5,-22,6,-3,-5,0,18
1499894373854443,-15,-5,0,6,-6,-7,2,-19
1499894373855444,1,9,34,-28,5,6,2,54
1499894373855444,-7,-9,-40,-8,5,2,-3,-46
1499894373877444,-2,4,19,68,8,0,6,-2
1499894373877444,-11,-5,-27,-106,-18,-6,-5,9
1499894373878445,7,-3,-3,20,-10,-6,7,31
1499894373878445,-8,-3,-5,19,4,4,0,1
1499894373890446,-12,1,14,18,0,2,-3,-8
1499894373890446,3,1,5,28,7,3,1,8
1499894373899446,-1,-5,-24,-71,-8,-1,-6,18
1499894373899446,3,-1,23,71,-6,-5,-2,57
1499894373914467,-16,-2,-23,-17,0,1,-6,-97
1499894373914467,2,0,12,-8,5,1,4,25
1499894373916449,1,1,-2,4,2,-2,-7,-11
1499894373916449,-7,-10,-26,-48,-5,-6,4,-25
1499894373937450,2,2,15,65,-3,-1,3,21
1499894373937450,2,-2,-16,-61,-1,1,-2,-3
1499894373938448,-6,0,8,31,-1,-1,3,-35
1499894373938448,-4,2,14,11,-2,-6,-4,-9
1499894373959457,-2,1,-11,-42,3,8,1,-17
1499894373959457,-1,-2,5,36,-8,0,-1,3
1499894373961451,8,-2,0,16,2,-3,-4,12
1499894373961451,-3,14,46,-53,3,2,6,9
1499894373974451,1,-17,-73,63,-5,-6,-3,13
1499894373974451,10,1,30,18,0,-1,0,28
1499894373976452,-11,-3,9,-38,-7,-7,-1,35
1499894373976452,6,0,-20,2,0,-1,-7,-5
1499894373996452,4,8,47,-28,3,2,2,4
1499894373996452,-8,-2,-25,20,0,-1,-5,-25
1499894373998452,-1,-1,7,46,1,-1,1,-1
1499894373998452,5,4,12,-42,-4,4,2,-2
1499894374019454,-4,-5,-24,-34,0,0,-1,-41
1499894374019454,8,-6,9,10,-1,-3,1,6
1499894374020452,-9,-2,-4,34,-2,-4,-4,-2
1499894374020452,12,0,-14,2,3,-2,-6,80
1499894374034454,-3,2,14,7,2,1,3,-4
1499894374034454,1,-2,1,-39,-6,-7,-4,8
1499894374036455,-10,-5,-16,25,-3,6,1,-33
1499894374036455,9,4,1,-20,-4,-2,1,3
1499894374056457,-10,-5,12,-52,-11,-7,-5,25
1499894374056457,4,5,36,47,6,-2,-5,-15
1499894374058456,-4,-13,-57,-33,-2,-2,-1,-22
1499894374058456,-3,-3,-9,6,0,0,0,-4
1499894374079458,-11,5,46,24,-1,-2,1,4
1499894374079458,3,-6,-29,66,6,5,4,57
1499894374081457,3,6,37,-105,-15,-5,0,24
1499894374081457,-1,-14,-50,53,-4,-1,-1,-19
1499894374093457,5,6,4,11,3,-2,1,1
1499894374093457,-4,-4,-6,-40,-5,-2,-2,-2
1499894374100474,0,6,19,29,7,2,0,-10
1499894374100474,-8,-3,-6,-5,2,-1,1,7
1499894374117467,7,-1,1,3,-1,-2,1,11
1499894374117467,-5,-1,-23,-23,-1,2,0,-11
1499894374118458,-3,-4,3,39,6,-2,-1,-11
1499894374118458,4,4,16,-51,-3,2,-2,-10
1499894374139461,3,-8,-33,-42,-7,-3,-1,2
1499894374139461,5,-6,-1,10,2,-1,0,9
1499894374141466,-11,3,2,42,4,0,-6,-65
1499894374141466,-9,-1,8,12,-1,-1,0,-5
1499894374153460,21,0,29,29,2,3,11,56
1499894374153460,-28,-2,-20,-1,-3,-3,-4,-43
1499894374160461,0,-2,-9,-20,-5,-3,2,6
1499894374160461,-2,3,25,0,1,-1,-1,-14
1499894374176466,-2,3,7,-5,-2,2,-4,-28
1499894374176466,3,-1,3,-18,-2,-4,4,5
1499894374178462,3,-5,-20,11,-4,-4,-7,5
1499894374178462,-6,4,-6,8,9,4,3,-17
1499894374199464,-17,-9,-24,-72,-10,-5,-2,4
1499894374199464,10,-9,-46,3,-6,0,-3,18
1499894374201464,1,7,39,42,6,2,-2,-9
1499894374201464,-6,-8,-26,-60,-10,-3,2,-9
1499894374213464,21,9,14,-7,6,-2,-9,-13
1499894374213464,-17,5,-10,27,-3,-3,0,7
1499894374220467,14,-8,-24,-34,-8,-4,0,13
1499894374220467,1,-3,-3,16,1,-4,-2,6
1499894374237467,-5,0,17,20,2,5,0,9
1499894374237467,0,3,21,5,1,3,4,-2
1499894374238466,-2,-1,-9,4,3,-3,-2,-17
1499894374238466,4,3,10,1,-4,2,-1,18
1499894374259466,-13,0,-21,-13,-2,-2,1,-23
1499894374259466,10,-6,12,51,2,0,1,31
1499894374261467,3,1,3,-97,-6,3,1,1
1499894374261467,-6,-2,0,58,3,-2,-10,4
1499894374273467,-2,-5,-2,67,2,-4,-2,-34
1499894374273467,1,0,7,-51,-4,-4,-4,-42
1499894374280470,-6,-8,-25,29,2,4,3,13
1499894374280470,-1,-3,2,-31,-2,-1,0,-4
1499894374296468,5,7,-2,27,-2,-1,-1,23
1499894374296468,-2,2,6,-19,1,-1,0,-12
1499894374298469,0,-1,-8,51,0,-3,-2,-10
1499894374298469,2,-5,-19,22,1,-2,-1,0
1499894374319472,1,8,22,-4,-1,-2,2,5
1499894374319472,-6,-4,-14,-79,-7,1,-2,-44
1499894374321472,-9,10,55,-21,-8,-2,-3,-89
1499894374321472,6,4,-7,36,5,5,5,28
1499894374333472,-17,-12,-18,-10,0,-2,-4,-18
1499894374333472,5,-4,-17,37,4,3,0,44
1499894374340483,0,-4,-27,-1,6,0,1,18
1499894374340483,-17,-3,36,35,-6,-5,-3,-29
1499894374356472,34,4,-7,-49,-8,-4,-1,57
1499894374356472,1,5,14,10,1,6,2,-16
1499894374358473,-9,-4,-6,-19,-3,-2,0,8
1499894374358473,6,0,-3,15,1,-1,-6,-42
1499894374379476,-13,-5,-31,-23,-1,-1,-1,-38
1499894374379476,2,1,32,11,0,-3,-5,0
1499894374380475,22,-1,-5,44,-2,-1,-1,41
1499894374380475,-7,-4,-21,-83,-2,-1,2,-13
1499894374394476,-4,-2,16,46,-3,1,-1,10
1499894374394476,-4,-6,-21,47,-1,-5,-7,-15
1499894374400487,-5,0,-3,-62,-6,-1,2,7
1499894374400487,3,0,0,9,-2,-6,1,20
1499894374416478,0,-2,-15,-22,5,7,1,34
1499894374416478,-12,-11,-46,14,2,-1,3,-56
1499894374418477,-6,9,42,-12,-3,-1,2,11
1499894374418477,-12,-4,-16,45,-2,-3,-3,-6
1499894374439479,7,3,12,-79,-2,0,2,59
1499894374439479,2,-4,-1,93,-3,-3,-2,7
1499894374441477,-8,-3,-8,17,8,0,0,-17
1499894374441477,-3,-6,0,-38,-5,-1,-2,25
1499894374453479,5,4,8,66,5,1,-1,-33
1499894374453479,6,7,5,-115,-11,0,3,25
1499894374462480,-4,-5,5,72,-3,-5,-3,9
1499894374462480,5,3,15,-45,1,4,5,3
1499894374476481,-5,-2,-13,5,3,-1,-2,-3
1499894374476481,-3,-10,-17,-38,-5,-3,-3,7
1499894374478480,-3,1,18,11,1,-1,-3,-14
1499894374478480,0,2,20,76,-3,-3,0,13
1499894374499482,-10,-8,-24,-39,-7,-9,0,-65
1499894374499482,-6,12,38,-5,9,5,-6,-4
1499894374501481,1,-7,-13,-20,-2,3,4,-53
1499894374501481,4,-2,-8,36,2,-1,-1,29
1499894374513484,-7,-3,23,-58,-7,-2,-2,-7
1499894374513484,5,8,12,-24,0,-3,0,-18
1499894374522484,9,-18,-66,41,-10,-7,-5,72
1499894374522484,6,1,3,-42,-5,-4,1,53
1499894374536485,-8,-3,-15,36,2,2,8,-15
1499894374536485,6,7,21,13,6,4,-1,5
1499894374538484,18,8,20,-27,-4,2,1,69
1499894374538484,-5,-10,-15,-24,-11,-5,-1,13
1499894374559487,4,3,2,18,3,1,0,45
1499894374559487,2,-2,12,14,0,-1,-2,-12
1499894374560488,9,8,-14,48,11,2,2,-5
1499894374560488,-9,-7,-21,-61,-14,-1,-2,-31
1499894374573487,3,-3,-10,-32,-3,-3,-8,-15
1499894374573487,-5,10,35,65,-4,-4,0,-1
1499894374582488,-8,3,18,-16,2,3,-2,-5
1499894374582488,8,-7,-49,-7,5,0,1,-36
1499894374596485,-7,-1,14,-7,1,2,-2,-8
1499894374596485,5,-3,-20,2,-9,-1,2,2
1499894374598486,-1,-3,6,-18,-3,-8,-6,-16
1499894374598486,7,1,8,-7,-1,-3,-4,37
1499894374619488,-14,2,-2,13,5,1,1,14
1499894374619488,-2,-8,-10,71,1,-6,-2,22
1499894374621489,-14,-6,-22,10,-1,4,1,-30
1499894374621489,-16,1,33,-97,-8,-2,-4,-29
1499894374633489,8,4,12,69,0,-4,-3,8
1499894374633489,3,-1,0,-53,1,0,-4,17
1499894374642492,-14,-5,-24,-3,-2,-4,-3,-22
1499894374642492,8,-4,2,41,11,5,1,6
1499894374656490,-2,-4,-7,-48,-9,-4,0,12
1499894374656490,-16,-2,-1,26,2,0,5,-42
1499894374658490,6,-1,6,-41,-1,1,-3,-4
1499894374658490,7,3,4,87,2,3,0,-8
1499894374679493,-1,-8,-32,17,-3,-5,-3,13
1499894374679493,5,-5,-6,-70,-7,-2,0,4
1499894374680494,5,5,5,5,0,-1,1,51
1499894374680494,-7,4,13,15,8,1,-1,-3
1499894374693492,-2,0,1,-25,-5,-1,-3,-81
1499894374693492,-2,-1,1,24,1,-5,-6,16
1499894374702492,-2,-6,-2,14,0,-1,-1,-7
1499894374702492,-2,-1,-8,-71,-4,3,-1,-3
1499894374716496,-18,0,-1,4,4,-2,-3,-11
1499894374716496,-4,-7,-16,-26,-7,-3,1,45
1499894374718494,-2,1,20,33,1,-2,3,-25
1499894374718494,2,2,3,65,7,1,1,8
1499894374739504,11,-3,8,-15,-6,-1,-2,49
1499894374739504,7,-3,-20,-39,-3,0,-2,14
1499894374741496,-21,2,-5,-10,-3,-6,0,11
1499894374741496,-9,3,16,53,1,1,-3,-76
1499894374752496,13,-5,-2,-17,-1,0,-1,32
1499894374752496,-4,-7,-11,-41,-3,-3,-7,24
1499894374762497,6,0,-3,56,-1,0,1,5
1499894374762497,-4,1,-9,-13,2,-1,2,-16
1499894374777499,-5,-4,-4,62,0,-5,-3,-7
1499894374777499,-2,2,5,-52,-5,3,2,-26
1499894374778498,-3,3,-10,-22,5,2,1,-20
1499894374778498,-6,-7,-9,-40,-11,-4,-4,-27
1499894374799498,2,5,1,14,3,0,-2,-7
1499894374799498,12,2,22,52,5,2,4,27
1499894374801498,-7,-8,-23,-20,-1,1,-4,-23
1499894374801498,12,0,12,0,2,-3,-1,41
1499894374813498,19,3,5,-7,-3,-2,0,34
1499894374813498,-8,-1,-6,26,0,0,2,-62
1499894374822500,6,8,28,-6,-4,-4,-10,44
1499894374822500,-14,-5,-13,-23,-3,-7,-3,-22
1499894374836502,-24,-9,-25,-7,2,5,0,-51
1499894374836502,2,7,6,38,2,2,2,-3
1499894374838502,-1,-8,8,-79,-13,-2,-1,-6
1499894374838502,-3,4,6,44,0,-3,-1,-18
1499894374859501,-3,2,40,3,2,1,4,73
1499894374859501,0,-3,-61,45,1,-1,-5,-54
1499894374861503,-4,-6,19,-7,-2,0,2,-10
1499894374861503,8,-1,0,30,3,2,-1,46
1499894374881506,1,2,7,-64,-2,-3,2,-6
1499894374881506,7,7,38,6,3,3,0,12
1499894374883520,15,-12,-32,-6,-4,-4,-4,37
1499894374883520,-22,0,-5,21,0,-2,3,-14
1499894374896504,-2,3,7,8,1,2,-3,-25
1499894374896504,-6,2,17,-20,0,-1,-2,-7
1499894374898504,8,-9,-25,-2,-1,-2,-1,18
1499894374898504,4,3,14,9,5,4,2,20
1499894374919506,-5,-1,-10,13,-11,-6,-4,-60
1499894374919506,-6,-7,-10,36,1,-2,-2,23
1499894374921507,-8,5,50,17,-2,-4,-1,-20
1499894374921507,4,-5,-36,-24,-2,4,0,1
1499894374941522,2,0,9,-13,1,1,0,-5
1499894374941522,11,0,11,-20,-3,-4,1,81
1499894374943507,-14,-4,-29,18,0,0,0,-39
1499894374943507,7,-2,13,-29,-1,-2,-3,-1
1499894374956509,0,2,-8,-2,0,1,1,9
1499894374956509,-14,-2,21,1,-1,1,5,-46
1499894374958507,-10,8,14,-6,7,0,-2,-5
1499894374958507,2,-6,-17,2,-7,-3,-1,-5
1499894374979511,26,-3,-21,47,5,5,4,75
1499894374979511,-14,-6,0,-62,-7,-6,-7,-27
1499894374981509,-4,3,2,-28,3,6,1,-24
1499894374981509,2,-1,-8,2,-8,-3,-2,2
1499894375001509,1,1,14,45,4,-3,1,25
1499894375001509,5,3,1,50,1,-2,-2,-4
1499894375003510,10,3,-11,-52,-1,2,5,11
1499894375003510,-1,5,9,7,5,3,-1,-10
1499894375016512,-10,-4,4,-21,-11,-9,-3,-6
1499894375016512,-6,-4,-6,18,-2,-1,-6,-56
1499894375022515,21,2,6,33,3,4,2,44
1499894375022515,-7,-7,4,-10,-3,-5,0,-22
1499894375039515,-7,-4,-8,1,0,-1,-1,-12
1499894375039515,-5,1,-5,-32,2,3,1,-27
1499894375040513,4,-2,0,7,-4,-1,0,4
1499894375040513,8,8,29,62,6,1,0,21
1499894375061513,-11,-2,12,-85,-8,1,-1,-29
1499894375061513,2,-7,-11,-19,-6,-5,-3,42
1499894375063514,-2,6,-7,1,1,-1,2,33
1499894375063514,-5,-3,19,15,-3,-3,0,-61
1499894375076516,-14,2,-16,8,6,3,-4,-22
1499894375076516,10,4,8,27,8,4,6,14
1499894375083530,-16,-6,-3,3,-8,-3,-5,-16
1499894375083530,20,2,-5,-62,-9,-5,-3,51
1499894375099516,2,-3,-8,10,-4,-1,-1,6
1499894375099516,-4,-3,-11,-14,-1,0,1,-5
1499894375101515,-2,0,1,6,2,-6,-4,-25
1499894375101515,4,0,-4,3,2,6,0,34
1499894375122525,15,2,1,4,-1,-1,0,58
1499894375122525,2,-2,-23,-1,3,2,1,20
1499894375123521,-13,-6,10,-25,-9,-5,-1,-13
1499894375123521,-15,-8,-26,-22,-2,-3,-5,-48
1499894375136519,2,-3,11,8,-2,-2,-6,-57
1499894375136519,-3,1,-20,-59,-4,-2,-3,12
1499894375143521,0,-2,-10,-13,-3,-1,-2,-28
1499894375143521,-1,-3,0,35,-3,-2,0,23
1499894375159518,-3,-2,4,33,5,-1,-1,-5
1499894375159518,-7,4,22,10,-1,-2,-2,-22
1499894375160519,1,-1,-24,-1,2,5,0,-16
1499894375160519,-3,-4,-7,-17,-4,-3,0,17
1499894375181521,-13,2,-11,31,6,0,0,-83
1499894375181521,-1,0,20,9,2,4,-4,-9
1499894375183520,-10,-5,-1,-70,-9,-5,-1,-9
1499894375183520,-8,-3,-6,-12,-2,-7,-4,12
1499894375196521,-2,2,-2,23,2,3,1,8
1499894375196521,-1,-2,-2,4,2,1,0,-2
1499894375202521,3,0,2,17,3,2,-1,13
1499894375202521,-3,-4,-2,1,0,-2,-4,-14
1499894375219524,2,3,-1,-26,-4,-3,-1,2
1499894375219524,-2,-7,-11,14,-8,-2,-2,8
1499894375221522,5,0,9,-1,4,1,-2,43
1499894375221522,1,10,18,29,1,1,2,3
1499894375241524,-7,-12,-16,-44,-3,-6,-5,-54
1499894375241524,2,3,-17,3,-3,4,2,-9
1499894375243524,9,2,21,13,2,-4,-2,-3
1499894375243524,-4,-7,-28,15,-3,2,0,-11
1499894375256525,3,2,12,-78,-4,-1,0,25
1499894375256525,-1,-2,13,26,-2,-2,-1,3
1499894375263525,-5,-1,-11,22,-2,-1,-1,-76
1499894375263525,-6,6,5,-9,6,2,2,-8
1499894375286526,11,-2,15,13,-6,0,0,26
1499894375286526,-10,-5,-25,-29,-3,-3,0,-13
1499894375292527,-9,-8,-7,53,-10,-4,-1,3
1499894375292527,14,0,9,-37,1,-1,0,55
1499894375301534,13,4,-5,11,3,3,1,-23
1499894375301534,8,-2,5,2,-1,0,0,28
1499894375303527,-1,2,5,29,4,2,-1,-4
1499894375303527,-8,0,-24,-18,-4,-3,-1,-34
1499894375315529,0,-3,7,-31,-3,-4,0,41
1499894375315529,7,4,15,52,5,3,-2,3
1499894375324528,-3,0,-5,-79,-4,-2,2,8
1499894375324528,3,5,26,4,-5,-1,0,1
1499894375339531,6,7,2,17,5,4,0,8
1499894375339531,2,-5,-4,7,2,-1,1,33
1499894375341530,6,7,26,-7,-1,-1,-5,13
1499894375341530,3,-6,-5,-16,2,3,2,15
1499894375361529,-13,-13,-21,2,-9,-7,-8,-2
1499894375361529,7,8,15,32,6,-4,0,2
1499894375363531,9,-6,-5,-55,-6,-1,-2,13
1499894375363531,-7,4,-2,41,6,6,2,0
1499894375375536,-7,-12,-20,7,-3,-4,-2,-7
1499894375375536,3,0,0,-1,-1,1,-1,-5
1499894375384533,-1,0,3,10,0,-6,-4,6
1499894375384533,0,-2,-15,-19,-4,-1,-2,-8
1499894375399535,-7,2,-2,12,0,1,1,-1
1499894375399535,-8,-2,11,-9,-2,-4,-2,-18
1499894375401532,-7,0,-3,20,2,1,0,-12
1499894375401532,1,-1,0,-9,-1,-1,0,5
1499894375421533,-1,-2,-6,52,3,-3,-3,-12
1499894375421533,2,1,6,-128,-11,4,-1,9
1499894375423534,-8,-6,-16,73,8,4,2,-2
1499894375423534,-1,2,9,-26,-5,-2,1,-21
1499894375435536,16,-8,-24,8,-5,-6,-1,73
1499894375435536,-4,4,14,24,2,-2,1,-1
1499894375444536,-1,0,-5,31,1,3,1,1
1499894375444536,-8,-1,-8,-69,-1,2,0,-32
1499894375459551,-7,1,24,-9,-3,-2,-1,1
1499894375459551,-12,0,-7,-12,0,-3,-1,-4
1499894375461536,5,-7,-23,-25,-12,-7,-7,7
1499894375461536,6,-2,-3,-4,6,-1,0,30
1499894375481539,-3,6,8,59,-1,3,2,-9
1499894375481539,5,-8,-5,28,0,-3,-2,0
1499894375483538,-6,6,8,-34,-2,0,2,-7
1499894375483538,-3,-9,-9,-22,-6,-4,-4,1
1499894375495553,1,-2,-20,20,0,0,-2,2
1499894375495553,-7,1,-7,-23,-4,-5,-2,-8
1499894375504551,-10,-4,1,7,1,3,1,-5
1499894375504551,4,-3,-1,18,-6,-5,-3,18
1499894375519540,-4,0,-4,-53,4,7,2,-12
1499894375519540,1,1,-1,61,-3,-3,-1,-1
1499894375520541,2,-2,-5,-23,6,2,-1,-8
1499894375520541,0,-3,-3,37,-2,-4,-2,-5
1499894375541561,-8,2,18,15,2,-1,2,-19
1499894375541561,-1,-5,-17,-31,1,0,-3,1
1499894375543541,0,0,-5,27,-1,-1,1,38
1499894375543541,-8,-1,11,5,-3,-4,-3,-62
1499894375555543,15,3,4,19,4,-2,-4,39
1499894375555543,-3,-1,-17,-82,-15,-1,-2,-7
1499894375564543,7,-4,8,52,0,-2,-1,-8
1499894375564543,0,-1,-8,10,1,-2,0,15
1499894375579543,-6,2,5,11,-1,0,-4,-25
1499894375579543,-5,1,9,-11,4,4,2,0
1499894375580547,4,1,11,4,1,0,0,13
1499894375580547,7,0,-4,1,-3,2,1,19
1499894375601546,-5,0,6,-23,-3,-1,-3,-51
1499894375601546,1,-6,-11,63,0,-4,-3,1
1499894375603545,-1,1,8,-85,-9,-4,-3,-12
1499894375603545,-2,0,-1,38,6,2,-2,20
1499894375615547,27,-3,-1,-37,-7,-4,1,80
1499894375615547,-6,0,-5,19,2,-2,-3,-35
1499894375624546,6,-1,-12,40,1,0,1,-11
1499894375624546,-4,2,4,-23,5,4,3,54
1499894375639566,-6,-4,6,9,-10,-4,0,3
1499894375639566,8,-5,0,-15,0,-2,-1,-8
1499894375641547,-2,1,-18,58,7,4,4,-4
1499894375641547,0,6,24,-83,-10,-3,1,3
1499894375661562,-9,-2,-30,-22,-10,-3,-2,16
1499894375661562,-1,-8,1,33,0,-4,-4,-42
1499894375663548,-8,0,-15,-22,5,9,2,-7
1499894375663548,3,-6,-10,47,-2,-3,-2,-16
1499894375675549,-7,3,8,-13,4,1,0,-19
1499894375675549,3,5,23,-4,-2,-3,3,10
1499894375684549,10,-2,-18,-33,-6,-5,-6,10
1499894375684549,-15,1,-1,23,0,-3,1,-49
1499894375699551,-2,-5,9,-27,1,2,0,-30
1499894375699551,1,-3,-13,-2,-7,-1,-3,13
1499894375700562,6,1,18,43,3,0,1,8
1499894375700562,-2,5,4,-71,-7,-4,-1,-5
1499894375721555,-13,-14,-29,32,0,-3,-5,-17
1499894375721555,-4,-2,-2,30,2,-2,0,7
1499894375723555,-7,0,4,2,-4,-9,-1,-6
1499894375723555,0,2,20,9,2,7,1,-12
1499894375735557,-7,1,8,40,5,2,-1,-31
1499894375735557,0,-5,-12,-76,-5,-1,-2,9
1499894375744553,-6,0,25,16,-8,-5,-2,-1
1499894375744553,0,0,-14,17,-1,-3,-3,-17
1499894375759568,0,7,11,-14,0,-1,3,11
1499894375759568,2,-1,14,43,6,2,-2,0
1499894375761558,-8,0,-3,-28,-2,-1,-5,-4
1499894375761558,0,4,-6,36,0,-3,-2,11
1499894375781555,-15,-9,0,-2,1,4,0,-33
1499894375781555,1,0,-5,-29,-10,-4,-1,30
1499894375783556,-4,-1,-3,-32,-2,-2,-2,-72
1499894375783556,2,-11,1,-14,-1,0,0,9
1499894375804555,1,3,-24,45,5,-2,0,7
1499894375804555,17,5,8,-42,-2,1,4,46
1499894375805568,-8,2,1,-35,3,2,1,-13
1499894375805568,-1,-7,-12,73,-1,-4,-2,4
1499894375819557,-1,-1,4,-60,-5,1,-1,-4
1499894375819557,-5,4,7,-1,-4,-1,0,-3
1499894375820559,10,-11,-28,-5,-5,-3,-1,61
1499894375820559,1,3,3,14,4,2,0,-2
1499894375841575,1,-1,-7,-83,-2,-2,1,20
1499894375841575,-3,-3,6,71,4,2,-2,-6
1499894375843559,-2,-5,-7,4,0,-7,0,-2
1499894375843559,-1,-3,-5,-14,1,2,-4,-20
1499894375864560,-8,0,2,5,-2,-2,-3,-19
1499894375864560,3,-4,-16,23,0,0,-2,19
1499894375866561,1,0,4,-21,-6,-2,0,0
1499894375866561,-5,-8,-6,-8,1,-1,-1,-12
1499894375879562,-2,2,15,8,-2,-1,1,-20
1499894375879562,-6,-2,-12,5,0,-4,-4,-58
1499894375885562,7,1,10,-22,-7,-7,-1,27
1499894375885562,1,-3,-1,9,-2,9,1,10
1499894375901562,-4,0,1,22,3,-4,-3,-20
1499894375901562,-4,-2,15,4,1,-1,-1,-11
1499894375903561,0,-1,-26,13,1,3,-1,-19
1499894375903561,1,6,17,-50,-3,-3,0,-5
1499894375924565,4,3,8,35,1,3,0,24
1499894375924565,-3,-1,0,7,2,1,0,-4
1499894375925563,-2,-10,-7,7,0,-3,-5,6
1499894375925563,2,3,-8,-47,2,-2,1,18
1499894375939572,2,-2,1,56,-2,-1,-1,7
1499894375939572,-4,2,-4,-77,-6,-3,-1,-7
1499894375940564,15,4,15,56,2,2,-3,52
1499894375940564,-12,-2,-3,-6,1,-2,-1,-22
1499894375961581,-4,-4,-8,68,1,-3,-2,-8
1499894375961581,5,4,5,-78,-3,2,2,7
1499894375963570,-4,3,14,26,5,0,4,-20
1499894375963570,4,-8,-13,-30,-5,-1,-4,31
1499894375984566,8,2,-12,-46,0,-1,-1,35
1499894375984566,-6,-1,-8,21,2,-2,0,-5
1499894375985567,-10,-2,3,31,-2,-4,-2,-19
1499894375985567,4,4,13,26,4,2,0,4
1499894375998580,-6,-5,-11,-49,-2,2,1,-6
1499894375998580,8,0,4,12,-1,-2,-5,1
1499894376005569,-1,-1,2,-15,0,1,2,3
1499894376005569,-1,-3,-21,-2,-5,-7,-4,-7
1499894376021572,4,-1,5,-6,-6,-4,-1,-1
1499894376021572,-15,-7,0,57,5,3,5,42
1499894376023571,-1,12,24,-60,-4,2,-1,-17
1499894376023571,0,0,-20,33,1,-3,-1,-2
1499894376044571,-8,-11,-18,-44,-7,-5,-4,-35
1499894376044571,4,-1,-1,0,4,3,1,5
1499894376045574,-4,-3,7,23,2,1,0,-8
1499894376045574,-6,4,10,11,0,0,-2,-9
1499894376058585,7,6,8,-15,-1,0,1,19
1499894376058585,0,-6,-10,16,-2,-2,-3,-4
1499894376065573,-1,-6,-13,-15,-3,4,0,13
1499894376065573,4,2,3,18,0,-4,-2,-6
1499894376081573,-4,8,9,-16,-2,-5,-1,12
1499894376081573,-4,-7,0,24,-3,3,-4,-43
1499894376083572,16,-3,-13,-14,1,1,3,30
1499894376083572,-3,0,22,13,-3,-4,-1,9
1499894376104589,2,-3,-19,1,1,1,0,9
1499894376104589,-7,0,2,11,-1,-4,-2,-5
1499894376105577,0,4,3,-45,-6,-2,3,26
1499894376105577,-4,-6,-20,12,2,-1,-5,-44
1499894376118576,-11,4,7,-7,-1,-2,-2,-6
1499894376118576,5,-3,5,-29,-5,1,2,32
1499894376125577,-11,1,17,60,0,-2,-4,-44
1499894376125577,-1,1,-5,-27,-3,-2,1,2
1499894376141580,6,-3,6,19,4,3,0,9
1499894376141580,-19,-1,-7,6,-1,0,-2,-57
1499894376143578,-3,3,-1,-10,3,-1,-2,8
1499894376143578,-8,-4,-6,6,-7,-5,-5,2
1499894376164578,5,-4,0,-9,-5,-8,-2,-3
1499894376164578,12,3,-13,-24,1,8,3,17
1499894376166577,-10,2,-9,4,1,-1,-3,-13
1499894376166577,-2,-4,16,14,-1,-1,-2,-26
1499894376178579,8,-4,-10,-33,-6,-1,-1,28
1499894376178579,-1,3,10,3,-2,-3,-1,-16
1499894376185579,-3,-5,-13,7,-7,-1,-2,-12
1499894376185579,2,1,5,29,2,1,3,9
1499894376201579,-12,0,-5,-19,-5,-3,-1,1
1499894376201579,3,-4,1,5,2,-4,-4,8
1499894376203579,-1,0,0,-4,2,4,0,10
1499894376203579,-4,-8,-15,-61,-11,-3,-2,1
1499894376224580,-1,6,25,34,2,1,1,67
1499894376224580,5,-1,-18,1,1,1,-2,1
1499894376225582,1,-7,-25,11,2,-3,0,7
1499894376225582,10,4,4,-6,0,1,0,16
1499894376238599,-10,-8,-2,6,0,-4,-2,-6
1499894376238599,6,1,17,19,-2,2,0,30
1499894376245596,-9,1,-1,-20,0,1,-1,-55
1499894376245596,10,-4,-18,8,-2,-3,-2,61
1499894376261596,14,-1,-6,-22,-3,3,-1,-22
1499894376261596,-3,-1,-8,13,6,-3,2,-14
1499894376263583,-5,-5,6,-24,-15,-7,-5,-7
1499894376263583,-7,-3,-1,-19,-3,-1,0,-16
1499894376284587,7,2,7,22,3,0,-4,-27
1499894376284587,-4,1,-3,-3,-1,-5,-4,-7
1499894376285604,2,-1,-16,9,0,4,-1,15
1499894376285604,2,1,11,24,4,-2,-3,3
1499894376298589,3,-5,-1,-6,-4,0,-1,1
1499894376298589,-8,0,5,-16,-3,-4,0,-5
1499894376306606,2,-2,-5,-23,1,-3,-1,11
1499894376306606,-4,5,13,34,3,0,2,-21
1499894376321607,11,1,-4,39,4,3,-2,-11
1499894376321607,-3,-6,-1,-66,-6,-2,-2,5
1499894376323589,-6,-3,3,8,2,1,-3,-23
1499894376323589,0,-6,-10,-27,-7,-5,-3,6
1499894376344627,-7,5,-2,7,3,4,-1,-17
1499894376344627,2,5,10,-7,0,-1,0,11
1499894376345608,-2,-2,-15,43,3,1,2,46
1499894376345608,-4,-7,1,-42,-6,0,-1,-11
1499894376357629,-12,-2,2,17,3,-2,-3,-22
1499894376357629,2,3,-18,-32,-11,-4,2,21
1499894376366626,2,7,11,27,1,-4,0,-4
1499894376366626,0,3,23,-16,4,8,3,2
1499894376381630,4,-8,-24,-13,-8,-5,1,23
1499894376381630,-9,-3,-16,-7,1,-2,-2,-21
1499894376383601,2,-1,12,59,5,-1,0,-2
1499894376383601,1,9,1,-68,-2,1,0,-3
1499894376404630,5,6,14,-17,3,1,1,-33
1499894376404630,-5,-12,-18,55,-1,1,-1,-12
1499894376405609,-1,-3,8,-24,-3,-4,-4,-18
1499894376405609,1,-4,-5,48,4,-4,-1,-2
1499894376417613,-2,2,3,-21,-5,1,3,6
1499894376417613,3,-1,3,7,1,3,0,19
1499894376426613,2,-3,-3,-5,-2,-4,-5,-47
1499894376426613,-3,-3,-5,-22,-4,3,0,7
1499894376441631,-3,0,3,18,3,0,0,0
1499894376441631,4,2,-6,-15,-1,-3,-1,13
1499894376443593,-3,1,22,13,-7,-1,-1,26
1499894376443593,2,-5,-16,10,-3,-3,-1,13
1499894376464595,-4,-7,-10,-33,-2,-1,-1,-19
1499894376464595,-2,-1,14,57,2,1,-3,-9
1499894376465598,-10,-1,-13,-38,-1,0,-2,-15
1499894376465598,-1,2,-8,0,-2,-3,-3,-6
1499894376477596,-5,2,13,14,-2,0,-2,12
1499894376477596,-6,-8,-10,1,0,-1,-1,-34
1499894376486620,-3,3,4,-30,-7,-1,-3,16
1499894376486620,-7,-8,-2,4,-2,-2,-1,-11
1499894376501621,-1,2,-2,6,5,-1,0,-11
1499894376501621,-2,-6,-23,-21,-8,-4,-1,-3
1499894376503598,3,0,6,31,6,3,1,-13
1499894376503598,-2,3,8,14,2,0,0,-2
1499894376524619,-1,-5,-23,-26,-8,-5,-4,0
1499894376524619,5,5,15,21,3,-4,0,14
1499894376525620,1,-2,-6,-27,-1,3,0,7
1499894376525620,-8,-1,1,22,0,3,2,-10
1499894376537605,-3,-5,-16,7,1,2,0,-16
1499894376537605,4,2,6,-8,-4,-5,-2,9
1499894376546637,5,-4,-15,-6,0,-2,-1,4
1499894376546637,5,0,0,-30,0,-1,-2,26
1499894376561641,-11,-2,1,41,-4,-4,-3,-20
1499894376561641,3,3,2,7,1,2,-3,-6
1499894376563600,-1,-4,0,-17,-1,-1,1,1
1499894376563600,9,3,-5,-19,1,1,1,34
1499894376584623,-2,-8,-4,55,-3,-3,-3,0
1499894376584623,-11,4,8,-42,0,0,-1,-14
1499894376585624,0,3,10,1,0,0,1,0
1499894376585624,-4,-4,-24,2,-4,-3,-2,3
1499894376597641,-5,2,12,-25,6,6,3,30
1499894376597641,3,-5,-2,57,2,-3,-3,18
1499894376606639,-5,0,1,-36,-4,-3,-2,-14
1499894376606639,4,7,15,-2,-6,-3,-1,-28
1499894376621603,-2,-14,-11,15,5,3,-1,9
1499894376621603,3,3,3,-29,-9,-1,0,21
1499894376623604,-1,0,3,12,4,1,1,-5
1499894376623604,-7,-3,4,12,4,-2,-2,-21
1499894376644645,3,6,3,10,-3,-1,-2,-3
1499894376644645,3,-3,1,0,1,-1,1,-10
1499894376645625,-1,-3,-16,-7,-2,-2,-2,-6
1499894376645625,-5,-4,-8,7,-2,-1,-3,-17
1499894376657646,7,7,-6,-39,-2,-2,0,9
1499894376657646,-6,-3,15,32,-1,1,1,-9
1499894376666653,6,0,0,-8,-4,-2,0,25
1499894376666653,3,0,-4,37,7,2,0,9
1499894376682612,1,-2,2,-74,-5,-5,-1,9
1499894376682612,-1,3,-4,-13,2,2,-1,-22
1499894376683608,-2,-1,2,-6,3,-2,0,-4
1499894376683608,-6,2,13,62,-5,-3,-1,-4
1499894376704649,-5,1,1,5,3,1,-2,-37
1499894376704649,1,-1,-5,-49,-5,0,1,22
1499894376705628,0,-1,4,45,2,1,-1,3
1499894376705628,-1,-5,-1,-47,2,-2,-2,12
1499894376717610,9,6,12,26,-1,-1,2,32
1499894376717610,-11,-9,-10,2,-1,-4,-2,-18
1499894376726613,-3,1,-1,-4,0,-1,0,-2
1499894376726613,0,-1,0,20,-1,-1,-2,0
1499894376741648,4,1,-7,-5,0,0,0,9
1499894376741648,2,2,7,-18,-5,0,-1,0
1499894376743611,-1,-4,-16,-7,-4,-2,-1,-13
1499894376743611,-1,0,9,-17,0,2,0,-17
1499894376764612,-4,-8,-13,18,-7,-7,-2,-23
1499894376764612,-7,1,-7,-1,4,1,-1,-12
1499894376765615,-1,-1,13,2,-5,-2,-2,15
1499894376765615,-4,4,-5,18,1,-2,2,3
1499894376787630,-7,0,6,-57,-7,1,-4,-32
1499894376787630,-2,1,2,3,1,2,1,-30
1499894376792653,11,3,7,-23,2,2,-1,27
1499894376792653,-8,-5,-11,-5,-1,0,0,-7
1499894376801618,1,-3,4,57,3,-1,-1,4
1499894376801618,-3,4,16,-6,-4,-2,-2,5
1499894376803618,-4,-2,-14,-46,-3,0,-1,2
1499894376803618,1,1,0,27,-4,-1,-2,-7
1499894376824635,0,0,-1,40,4,0,-2,2
1499894376824635,1,-2,5,-69,-7,-4,-1,-2
1499894376826619,0,-2,-1,2,6,5,-1,6
1499894376826619,2,-1,11,11,-2,-2,-2,-4
1499894376846636,-1,-2,-2,-13,-2,-2,-1,9
1499894376846636,2,2,-5,33,3,1,-1,6
1499894376848617,-5,-4,-9,1,-7,-6,-4,-5
1499894376848617,0,0,-2,-15,-1,0,-1,-5
1499894376861638,4,1,4,-10,5,5,0,4
1499894376861638,-2,-2,-4,17,0,-2,-2,16
1499894376863654,-4,-2,-18,41,1,-4,0,-22
1499894376863654,3,-8,-6,-28,-9,-3,0,10
1499894376884621,-26,-3,-2,-33,-7,-7,-6,-52
1499894376884621,3,0,-3,6,1,-2,0,3
1499894376885619,2,5,12,-4,2,4,-1,0
1499894376885619,-11,-5,-11,-8,-3,-5,-3,-9
1499894376906653,1,-2,-2,-2,1,3,1,20
1499894376906653,1,2,4,19,2,0,0,-2
1499894376908625,-4,0,5,-2,-3,-1,-2,-17
1499894376908625,5,1,10,48,2,-2,-2,7
1499894376921625,1,-2,1,-62,-5,-4,-1,8
1499894376921625,-1,-5,-10,8,-4,-2,-2,-3
1499894376927621,4,-2,-4,-8,-2,-3,-3,9
1499894376927621,0,2,-2,-24,3,5,-2,1
1499894376944664,2,1,6,29,1,-1,3,15
1499894376944664,-4,-1,-11,-12,-3,-1,-2,8
1499894376945648,-2,-5,4,18,-4,-1,2,-7
1499894376945648,-4,3,-2,-2,0,-3,0,8
1499894376966660,6,1,-6,13,0,-1,-2,32
1499894376966660,6,0,2,-43,2,2,0,-4
1499894376968627,-5,-5,-15,16,-12,-7,-3,0
1499894376968627,2,-2,-4,-3,6,4,0,-6
1499894376980645,3,-5,-3,-14,0,0,-2,-15
1499894376980645,1,3,-11,34,-1,-2,-2,12
1499894376989625,2,2,9,-1,2,1,-2,-4
1499894376989625,-6,-3,5,-9,-5,-7,-3,-23
1499894377004667,4,-3,-13,-3,-8,-2,-2,33
1499894377004667,4,-2,-6,-11,-2,-6,-1,-7
1499894377005645,-4,4,9,21,5,5,3,-7
1499894377005645,0,-2,1,-5,-3,-1,-1,-1
1499894377026630,3,-4,-10,28,5,-2,0,14
1499894377026630,-7,-4,-2,-39,-5,-4,-2,-1
1499894377028629,-3,4,8,25,2,-2,1,7
1499894377028629,7,-12,-21,-49,-12,-5,-3,10
1499894377041646,-1,4,23,2,-1,0,0,-14
1499894377041646,-3,3,9,22,4,0,1,-13
1499894377047667,-17,-2,-12,0,0,-2,-4,-28
1499894377047667,-2,-5,4,-5,-4,-1,-2,-1
1499894377064649,-5,-1,-8,-12,1,-1,-2,0
1499894377064649,-5,-3,6,-3,-10,-4,-2,-1
1499894377065634,2,-4,-6,-16,2,1,2,-1
1499894377065634,2,7,11,19,6,0,1,21
1499894377086630,-2,2,3,11,2,1,1,-10
1499894377086630,4,-3,-7,-8,-1,-1,0,3
1499894377088630,3,-3,-7,-17,-3,0,-1,7
1499894377088630,-3,2,6,9,0,-1,-1,-5
1499894377101655,3,0,9,-3,1,4,0,2
1499894377101655,-2,-2,-2,33,1,-2,-1,-9
1499894377107673,5,1,0,14,-2,0,0,3
1499894377107673,-5,-1,-3,-16,-2,-3,-2,-13
1499894377124636,-5,4,10,0,-1,-3,1,-17
1499894377124636,1,1,5,32,5,4,-1,-2
1499894377125654,0,-10,-12,-70,-17,-8,-4,2
1499894377125654,5,3,-9,4,4,-2,-4,13
1499894377146672,3,-2,2,20,-7,-8,-5,-4
1499894377146672,-8,-4,-1,23,4,4,-1,-3
1499894377148636,2,5,1,11,2,-3,1,6
1499894377148636,-5,0,-3,-10,2,4,-2,-24
1499894377169655,0,-4,-11,21,-2,-3,-3,-4
1499894377169655,1,2,-3,-73,-2,2,0,11
1499894377170639,9,-5,2,38,-1,-2,0,38
1499894377170639,4,3,0,-10,-2,-1,2,-14
1499894377184674,7,-1,3,-7,0,-2,-2,8
1499894377184674,-16,1,-2,26,2,-1,0,-64
1499894377185641,5,0,4,-39,0,1,-5,-7
1499894377185641,1,-7,-15,31,-3,-2,-1,9
1499894377206678,0,-2,-14,-1,-1,-2,-2,-6
1499894377206678,3,-3,3,-24,-7,-4,-2,-4
1499894377208639,-4,7,3,47,5,-1,0,-7
1499894377208639,1,-3,-9,-51,2,2,-1,-2
1499894377229639,-10,-3,15,-3,-4,-3,-2,-17
1499894377229639,1,-6,-4,25,1,-2,0,40
1499894377230638,-4,-1,-2,6,-3,-5,-2,-43
1499894377230638,4,4,10,0,4,5,3,20
1499894377244680,-3,-2,-17,-23,-1,3,2,1
1499894377244680,-5,3,3,21,-2,-1,-1,0
1499894377245661,-6,-2,4,1,2,1,0,-2
1499894377245661,-6,-1,3,5,-3,0,1,-22
1499894377266674,4,-1,-4,-17,-2,-4,0,0
1499894377266674,7,-2,-4,7,-1,-2,-1,9
1499894377268645,-1,-1,-10,-36,-1,2,-1,10
1499894377268645,-5,-1,3,28,-5,-5,-3,-4
1499894377280642,-2,1,3,42,3,-3,-1,6
1499894377280642,23,2,3,-64,-5,2,3,29
1499894377289642,-12,1,8,17,4,-3,-2,-50
1499894377289642,0,-4,-11,-19,-4,1,0,13
1499894377304662,-3,-5,-12,-16,-2,0,-1,6
1499894377304662,-2,6,1,34,6,3,2,-2
1499894377305662,0,-2,-5,-19,-7,-4,-1,20
1499894377305662,3,7,34,44,6,-6,-1,-8
1499894377326664,-9,6,4,-27,7,8,1,-10
1499894377326664,-17,-12,-33,7,-6,-4,-5,-37
1499894377328644,-2,-5,9,-20,-3,0,0,8
1499894377328644,-3,1,-8,-11,-4,-5,-2,-8
1499894377340645,13,-4,-1,13,0,0,-1,11
1499894377340645,-3,-4,-5,9,1,-2,-3,19
1499894377349646,0,3,3,-8,-1,1,-1,4
1499894377349646,-1,0,-1,-2,-1,1,1,3
1499894377364666,-4,-6,-22,-10,-7,-5,-1,-5
1499894377364666,-2,-2,9,5,-1,-1,-1,-1
1499894377365646,3,-4,-3,32,2,0,-4,-14
1499894377365646,4,0,-3,-58,0,2,0,29
1499894377386648,3,4,5,-25,-1,2,2,4
1499894377386648,-6,-1,-2,48,1,-1,-2,-22
1499894377388648,-1,-1,0,-32,-4,-2,3,36
1499894377388648,-1,-1,1,31,2,0,0,5
1499894377400668,7,-8,-12,-33,1,-3,-3,11
1499894377400668,4,3,1,-1,-6,-3,-1,-21
1499894377409650,2,-3,-15,-4,2,6,2,-2
1499894377409650,-3,-4,-4,-5,-2,1,0,-7
1499894377424671,-13,5,16,43,1,-2,-1,-28
1499894377424671,5,-1,-2,-14,0,-1,-2,16
1499894377425671,0,-1,-8,10,-1,-4,-3,6
1499894377425671,0,0,-3,0,-1,-2,0,4
1499894377446690,-9,1,2,7,2,4,-4,-52
1499894377446690,4,-1,3,-23,-6,-4,-1,35
1499894377448653,-3,1,-2,-40,1,0,0,-2
1499894377448653,-2,-10,-6,59,-5,-4,-2,-24
1499894377460651,-1,-1,8,18,2,-2,1,14
1499894377460651,2,1,-11,-56,-3,0,-1,-23
1499894377469652,10,-6,4,18,2,-3,-2,22
1499894377469652,-18,3,1,-38,-2,1,0,-39
1499894377483654,-5,-3,-2,0,-6,-2,-1,4
1499894377483654,-4,-4,0,20,-4,-7,-3,-3
1499894377491667,2,1,11,-8,2,7,1,4
1499894377491667,1,2,-2,37,6,1,-1,-4
1499894377506696,3,-1,-5,-44,-5,-5,-2,18
1499894377506696,-2,3,8,-11,1,3,0,6
1499894377508656,-5,-5,-8,21,-7,-5,-2,-6
1499894377508656,3,-2,0,-14,-3,-2,-2,8
1499894377520655,-4,0,1,10,1,0,2,-12
1499894377520655,3,1,7,-25,3,1,0,15
1499894377529658,-2,2,-1,34,-2,-1,2,13
1499894377529658,14,-4,-6,-18,-1,-1,-1,24
1499894377543695,-3,-1,-6,12,-1,-2,0,-1
1499894377543695,-2,-2,1,-3,-1,1,-1,-3
1499894377550665,-2,1,-1,8,1,0,0,-7
1499894377550665,-2,2,0,13,3,-1,0,7
1499894377566658,5,-2,-9,-73,-5,-1,-3,9
1499894377566658,6,-1,10,48,2,3,2,4
1499894377572681,-1,2,-5,-16,0,-1,-1,-23
1499894377572681,-5,-1,4,-1,-3,-8,-1,-17
1499894377580659,-3,-1,-1,18,2,4,1,-3
1499894377580659,-3,2,3,5,0,1,0,-13
1499894377589660,-2,-1,8,2,0,0,-2,-2
1499894377589660,-9,-5,-18,-23,-2,-2,-1,5
1499894377604680,7,0,16,39,-6,-6,-3,0
1499894377604680,1,1,-8,1,-4,-3,-2,26
1499894377605673,0,-2,-5,-13,-5,-3,-1,0
1499894377605673,-11,-1,-6,-11,-1,5,-2,-34
1499894377626665,-6,-4,-10,-14,-1,-1,-3,-1
1499894377626665,-3,-2,13,9,-1,0,-2,-10
1499894377628662,2,1,7,34,5,-3,0,-5
1499894377628662,-2,-3,-21,-66,-9,0,0,4
1499894377640673,0,1,13,8,-3,-3,2,3
1499894377640673,-3,-1,-4,29,1,-2,0,-6
1499894377649663,-4,-2,2,-25,0,4,-2,5
1499894377649663,2,2,7,19,1,-4,0,3
1499894377664664,4,3,-4,21,3,1,-1,-10
1499894377664664,14,-2,-7,-89,-5,-6,-2,23
1499894377665670,-6,-7,1,38,-2,-4,-2,-3
1499894377665670,5,-2,-2,13,2,1,-1,8
1499894377686665,-4,1,-4,-11,0,-1,1,3
1499894377686665,-5,-1,8,16,0,0,-1,-20
1499894377688666,2,2,-7,-35,-1,1,1,-4
1499894377688666,1,0,12,10,-4,0,-2,1
1499894377709707,1,-3,-22,-4,2,0,-1,22
1499894377709707,-6,-3,-8,12,1,-1,-3,-21
1499894377711666,4,-3,13,-3,-6,-3,-4,25
1499894377711666,-2,-1,8,-32,-6,-5,-2,-2
1499894377724672,-1,-1,-7,10,1,3,-2,-5
1499894377724672,-3,1,-10,-10,-2,-3,1,-4
1499894377725674,1,0,-1,11,2,2,0,-2
1499894377725674,-4,-2,0,4,0,-2,1,14
1499894377746710,10,-3,-6,-9,-7,-2,-1,24
1499894377746710,-3,2,7,16,3,-1,0,15
1499894377748674,0,0,-3,14,-1,-3,0,4
1499894377748674,4,1,-5,-4,-3,-1,-1,-1
1499894377769671,-3,-2,4,-36,-10,-2,-2,-2
1499894377769671,-2,-1,-8,-3,-1,0,0,7
1499894377770669,-6,-3,-4,-14,0,2,1,-13
1499894377770669,5,2,1,19,3,1,-1,5
1499894377784694,-7,1,6,26,0,-7,-2,-9
1499894377784694,1,-1,4,-16,1,6,0,-16
1499894377786670,-3,2,0,28,-2,-3,-2,-6
1499894377786670,-2,-6,-14,-23,-4,-4,-3,-7
1499894377806692,-4,-1,1,-9,2,3,4,1
1499894377806692,-2,-1,-3,19,-6,-7,-2,-1
1499894377808690,0,1,2,-4,5,7,0,-2
1499894377808690,0,-3,-5,-23,-5,-2,-3,7
1499894377829673,4,0,10,38,0,-2,-3,-6
1499894377829673,1,1,2,15,1,0,1,3
1499894377830686,-5,3,-13,-27,-4,-3,-1,-9
1499894377830686,12,-5,11,-6,-3,-3,-2,33
1499894377844715,-6,-6,-6,-13,-1,-3,-3,-12
1499894377844715,-1,-5,-11,3,-1,1,0,27
1499894377845674,-1,-6,-16,26,-2,-7,-2,-1
1499894377845674,-3,6,2,-60,0,8,2,-8
1499894377866729,3,2,6,-5,4,0,0,-5
1499894377866729,0,0,1,20,-4,-3,-3,-13
1499894377868696,0,-2,-13,-16,-3,-2,-2,4
1499894377868696,-17,-4,-2,22,1,-2,-1,-17
1499894377889676,3,2,6,-3,-1,0,-5,-15
1499894377889676,3,0,9,2,3,3,2,-11
1499894377890677,4,-2,-6,-31,-4,-4,-2,38
1499894377890677,1,1,1,19,2,-1,0,-9
1499894377903720,-6,-2,11,38,-1,1,1,14
1499894377903720,1,-2,-3,-27,2,-2,-3,-11
1499894377910719,-2,-5,-1,-6,-12,-6,-3,-30
1499894377910719,6,3,6,24,4,2,0,27
1499894377926686,7,-2,-3,-45,-3,-1,1,10
1499894377926686,5,-4,-1,15,-2,2,0,20
1499894377928683,-11,-4,-6,-26,-2,1,2,-38
1499894377928683,-1,-3,-1,18,-2,-6,-3,-6
1499894377949681,-2,3,-12,47,2,2,0,-6
1499894377949681,-1,2,6,-60,-1,2,-1,-4
1499894377950688,4,-3,9,14,3,-1,-1,9
1499894377950688,-2,-3,0,15,2,-3,-2,-11
1499894377963699,-6,-6,-20,-32,-3,-4,0,-9
1499894377963699,-6,-3,-8,6,-3,-2,-4,1
1499894377970700,4,7,9,0,3,2,1,7
1499894377970700,-3,1,6,4,0,-1,-1,-6
1499894377986682,-4,-1,-5,-1,-1,-3,0,-2
1499894377986682,-12,-4,-8,10,-1,0,-2,-38
1499894377988683,2,0,16,-1,0,-1,-5,8
1499894377988683,0,-6,-17,1,-2,-3,-2,0
1499894378009724,-3,2,2,20,-3,1,-2,0
1499894378009724,0,2,7,-39,1,0,2,5
1499894378011684,-9,-4,-18,-4,-1,-1,1,-16
1499894378011684,5,-4,-6,-15,-1,1,0,28
1499894378023689,0,1,9,31,-2,-3,-4,-6
1499894378023689,6,-1,-4,1,1,-1,1,15
