timestamp,emg1,emg2,emg3,emg4,emg5,emg6,emg7,emg8
1499894146899123,-8,2,-9,55,5,1,2,-15
1499894146899123,-15,-2,-14,-110,-3,2,1,11
1499894146901123,-13,-1,25,95,-3,-4,-16,-9
1499894146901123,-12,0,4,30,7,1,11,1
1499894146922124,0,6,9,99,14,3,-2,-66
1499894146922124,20,2,0,-75,-5,-2,3,17
1499894146923123,-34,-13,-13,21,-5,-6,2,-11
1499894146923123,30,5,17,11,-4,5,-2,63
1499894146936124,14,-10,-9,52,5,-3,-2,-69
1499894146936124,-16,4,-6,44,3,-2,0,10
1499894146943124,26,1,-7,-50,-3,-2,4,26
1499894146943124,-3,-3,14,-19,-4,2,-2,2
1499894146959126,10,-4,-9,53,6,-1,-18,-24
1499894146959126,-16,2,14,-90,-5,3,18,-32
1499894146961127,-16,-2,-7,-30,-8,-5,17,103
1499894146961127,-21,2,22,32,-3,-1,-16,-58
1499894146981127,20,-14,-18,-19,-14,-7,1,60
1499894146981127,-25,-8,12,99,9,-4,-6,-18
1499894146989126,-5,17,-15,-87,-4,2,-1,0
1499894146989126,-4,-7,6,74,-1,-4,-4,-32
1499894146996139,-14,14,21,-128,-2,2,-4,-31
1499894146996139,25,-14,5,76,-8,-4,9,1
1499894147003133,-32,-8,-15,1,6,-1,-8,-42
1499894147003133,17,4,2,11,-2,-2,-1,62
1499894147019130,-28,2,1,28,6,-1,-1,-40
1499894147019130,13,6,12,-2,0,3,-12,4
1499894147021131,-2,2,10,46,13,8,-7,-11
1499894147021131,-5,-5,-14,-81,-6,-3,1,-17
1499894147043132,-13,3,-5,39,5,0,13,31
1499894147043132,-3,4,3,-34,-6,4,4,23
1499894147045141,5,-11,-22,-12,-5,-8,-8,-50
1499894147045141,-42,-6,-26,62,3,-4,-17,-24
1499894147055144,8,3,26,-55,-8,-2,-3,37
1499894147055144,22,3,-19,95,7,1,10,22
1499894147064132,-7,0,14,-58,-16,-3,1,-32
1499894147064132,18,-15,-42,-99,-6,-6,-3,-1
1499894147079133,1,11,1,-30,6,5,11,4
1499894147079133,4,0,7,30,1,-3,-11,-4
1499894147081133,9,-4,13,19,3,3,7,4
1499894147081133,5,3,4,-63,-3,-2,1,-15
1499894147102152,-21,-3,6,65,0,-2,0,4
1499894147102152,-3,-7,-36,-98,-3,-3,-10,7
1499894147103137,17,0,5,116,2,0,0,107
1499894147103137,-1,0,8,-11,10,2,6,-1
1499894147115136,25,-5,-34,-81,-18,-5,-14,47
1499894147115136,-15,-3,-9,46,-3,-5,-3,-65
1499894147124135,-14,6,15,7,2,5,-1,-8
1499894147124135,16,-4,-8,23,-1,-2,-12,-6
1499894147139150,-10,-1,1,-13,2,-1,0,8
1499894147139150,10,-1,15,44,2,-2,-1,16
1499894147141137,8,-3,-24,14,-3,-1,-2,-33
1499894147141137,-11,3,36,-43,-3,-1,6,25
1499894147162142,11,-8,-42,45,-2,-5,6,20
1499894147162142,20,-3,5,-56,-18,-6,-8,56
1499894147163139,-17,-4,-21,74,13,2,-3,-48
1499894147163139,-4,-4,30,52,-8,-5,-4,58
1499894147175139,-27,-1,-6,-14,6,2,-1,-83
1499894147175139,-31,-7,-20,-76,-4,-1,-1,26
1499894147184143,20,3,7,15,5,-3,-8,2
1499894147184143,18,2,-7,-4,-2,4,5,23
1499894147199154,-4,4,-16,-9,-1,-3,-4,-26
1499894147199154,-8,9,23,35,6,5,15,-53
1499894147201143,44,-10,-37,-48,-11,-7,-7,55
1499894147201143,-11,3,-4,50,13,4,16,-22
1499894147222146,-4,-9,25,69,-7,-2,-12,-64
1499894147222146,-4,-7,-28,-14,-6,-5,10,46
1499894147223141,12,6,24,-94,1,2,5,-17
1499894147223141,22,-8,-23,18,-2,-4,-5,15
1499894147235166,19,8,32,-15,10,6,2,48
1499894147235166,0,-3,-26,1,-2,-1,3,4
1499894147244143,-17,-6,-17,-25,-4,-4,-16,-33
1499894147244143,14,6,-15,3,-8,3,7,21
1499894147259157,-43,-13,15,-15,3,0,1,-28
1499894147259157,33,4,-2,86,3,-4,-12,-13
1499894147261143,-37,8,54,-106,-16,-7,-5,-8
1499894147261143,-8,-10,-61,39,4,2,-2,-7
1499894147282145,5,-1,5,-11,-1,1,3,35
1499894147282145,-10,-2,18,76,9,3,-3,-39
1499894147283144,8,1,-1,-59,-4,-3,-2,46
1499894147283144,0,-1,16,62,-1,-4,2,7
1499894147295146,-13,6,-8,-55,-3,1,7,-4
1499894147295146,9,-3,27,-34,1,-3,-4,53
1499894147304144,2,-3,-1,69,1,4,2,-15
1499894147304144,-29,0,9,-72,-4,-2,-4,-75
1499894147319147,24,2,-15,33,5,0,3,82
1499894147319147,20,3,16,-47,-8,0,-5,27
1499894147321148,-44,-2,10,40,1,-5,-5,-71
1499894147321148,0,-6,-3,-8,-6,-2,-2,72
1499894147342161,12,-2,-8,1,-2,-2,-3,10
1499894147342161,5,3,-20,-19,-3,-1,2,-24
1499894147343149,-1,0,-38,18,8,6,5,36
1499894147343149,8,3,38,40,-6,-5,-1,21
1499894147355162,-19,-7,-14,-95,-6,-1,-4,-47
1499894147355162,10,3,6,31,6,2,-2,7
1499894147364150,30,-1,-11,-49,-4,-1,1,-4
1499894147364150,-25,13,29,22,6,1,2,-40
1499894147379150,18,-16,-40,-16,-11,-4,-4,39
1499894147379150,-38,-9,-21,74,2,-3,-15,-111
1499894147381151,8,3,6,-105,-2,2,5,20
1499894147381151,7,0,22,68,3,4,1,-5
1499894147402165,1,5,27,-20,-5,-5,-3,42
1499894147402165,-36,2,-18,-35,-3,0,5,5
1499894147403154,7,-7,-8,56,5,1,2,-12
1499894147403154,-3,0,-9,-103,-3,1,0,-36
1499894147424154,4,5,21,109,11,2,3,-1
1499894147424154,17,1,0,-21,-2,1,2,64
1499894147426154,-47,7,19,28,-5,-2,4,-24
1499894147426154,12,-15,-32,-63,-5,-3,-9,37
1499894147439154,-1,-1,-9,52,-6,-2,-3,-36
1499894147439154,-1,-2,22,22,-7,-3,-2,44
1499894147441154,-5,-9,-31,-3,-4,-1,-3,-39
1499894147441154,-3,0,3,-16,-1,-1,-2,7
1499894147462155,-15,-1,-17,-24,-3,-3,0,-15
1499894147462155,-8,-1,5,-27,-2,-1,-1,-5
1499894147463156,6,2,13,26,6,2,1,-33
1499894147463156,0,3,-7,39,-1,1,1,-14
1499894147475157,3,-6,-20,-21,-6,-4,-2,38
1499894147475157,7,1,-7,4,-1,-3,0,-48
1499894147484156,17,4,39,6,2,1,1,8
1499894147484156,-20,7,-1,24,9,-1,0,-74
1499894147499171,18,0,6,26,-8,-4,-8,15
1499894147499171,-13,-5,-10,-62,-3,1,8,15
1499894147501158,-26,-2,-5,42,-4,-1,5,-28
1499894147501158,17,-8,-7,-2,-2,0,-6,35
1499894147522158,-4,6,27,19,8,-1,-1,-11
1499894147522158,-8,1,0,-23,-2,-2,-4,-10
1499894147523159,9,-2,-15,12,2,1,1,24
1499894147523159,4,-6,1,-10,-8,-5,1,40
1499894147544161,11,4,-2,-10,-1,3,3,-1
1499894147544161,-4,-3,-4,-23,-3,-4,-3,-27
1499894147546161,2,4,19,67,7,3,2,6
1499894147546161,7,-9,-38,-41,-7,-5,-7,28
1499894147559170,-1,0,10,52,1,-1,-2,-69
1499894147559170,-5,-1,-5,-50,-6,-4,-4,-3
1499894147561160,-1,4,3,-11,0,-3,-4,-54
1499894147561160,-8,5,8,25,10,6,-3,-80
1499894147582162,0,-2,-14,22,3,3,15,0
1499894147582162,-18,-7,2,-85,-7,-3,-12,-20
1499894147583162,26,-4,12,-2,0,-2,3,59
1499894147583162,2,5,-4,28,0,-2,4,21
1499894147605165,-17,-3,15,-20,-3,-2,-5,-33
1499894147605165,-12,-1,-9,14,3,3,4,-3
1499894147606164,20,-4,-13,20,4,2,0,23
1499894147606164,0,7,18,-33,0,0,0,-8
1499894147619179,-5,-4,10,-1,-5,-3,-7,-19
1499894147619179,-4,-1,-8,59,-6,-5,-2,-14
1499894147621165,-13,0,17,-80,-6,-1,4,28
1499894147621165,6,1,5,27,3,2,2,-28
1499894147642179,-16,-5,-17,-17,-3,-4,-5,-42
1499894147642179,15,5,12,14,0,-2,0,27
1499894147643170,-6,-1,-1,-8,-4,-1,-3,-18
1499894147643170,2,-3,-10,47,-5,1,-2,13
1499894147664167,-6,1,9,-41,7,4,0,24
1499894147664167,6,2,-10,17,-1,1,0,-14
1499894147666171,0,5,27,48,4,-1,7,-31
1499894147666171,-38,-10,-47,-51,-2,-2,-4,-48
1499894147678167,7,4,0,27,3,-1,2,14
1499894147678167,12,4,2,1,3,5,6,105
1499894147685170,-25,-14,-39,-36,-7,-6,-10,-47
1499894147685170,21,-9,-10,21,-7,-2,2,62
1499894147702182,-10,3,5,-29,3,-2,-5,-78
1499894147702182,3,4,26,22,4,1,2,50
1499894147703168,15,-7,-15,-5,-13,-5,-8,53
1499894147703168,-28,2,-4,-20,1,-5,-11,-22
1499894147724186,-6,-1,4,0,0,2,0,42
1499894147724186,4,-5,-2,28,-2,2,2,-17
1499894147726171,-2,4,14,27,7,-1,-2,0
1499894147726171,1,-2,-1,-56,-2,1,0,-6
1499894147738171,20,0,6,43,1,-4,0,80
1499894147738171,-27,-2,-4,-33,-1,2,-2,-56
1499894147745172,6,-11,-42,6,0,2,1,25
1499894147745172,-3,11,61,47,8,4,1,-39
1499894147762174,15,-13,-46,-75,-17,-6,-4,1
1499894147762174,0,4,18,-8,3,-3,-3,23
1499894147763174,3,-9,-24,60,2,-3,-6,7
1499894147763174,-3,2,11,-43,2,-2,5,33
1499894147785176,-4,4,20,34,3,3,0,13
1499894147785176,10,2,-1,-62,-4,-3,5,-39
1499894147786174,-15,0,-3,-24,1,3,-5,27
1499894147786174,10,-2,11,48,-2,-4,-3,-59
1499894147798176,-10,-7,-8,-4,-6,-3,1,-9
1499894147798176,9,2,1,-6,0,-6,-4,-12
1499894147807175,-6,3,19,-28,1,3,2,-3
1499894147807175,19,-7,-36,4,-6,-1,4,23
1499894147822179,-5,5,14,54,6,0,3,11
1499894147822179,-1,1,-10,-64,-9,-1,-3,-13
1499894147823177,11,0,19,36,1,-7,0,8
1499894147823177,-12,-6,-16,29,-6,1,-7,-14
1499894147844198,-8,0,-9,19,-1,1,-3,-28
1499894147844198,12,-11,12,62,3,-3,-10,-96
1499894147846176,-23,-3,-46,-84,-6,-4,-6,-19
1499894147846176,12,9,44,78,9,1,12,27
1499894147858192,-25,-8,-41,-88,-7,-1,5,-82
1499894147858192,-4,-6,0,43,5,3,-4,-2
1499894147865185,9,9,7,-14,-1,0,-1,17
1499894147865185,1,3,6,8,-1,-2,-4,-5
1499894147881180,2,-9,4,17,0,-1,-7,42
1499894147881180,13,2,-10,0,-1,-3,2,11
1499894147889179,0,1,16,26,1,4,0,-29
1499894147889179,-4,-7,-26,-62,-4,-6,-4,-6
1499894147904194,11,7,51,58,0,0,-9,-67
1499894147904194,-26,-10,-33,-5,-4,-2,-1,-12
1499894147906200,3,-2,-21,-34,-3,-3,-5,39
1499894147906200,2,2,16,23,-3,0,9,-51
1499894147918182,-8,-3,-33,-107,-10,-3,-3,37
1499894147918182,-3,-5,8,69,-1,-1,-6,4
1499894147925197,6,1,-2,14,3,2,-1,-58
1499894147925197,-24,-5,-12,-17,-3,-5,-6,-3
1499894147942228,12,7,29,34,14,5,1,43
1499894147942228,1,-4,-37,-33,-10,0,2,22
1499894147943184,6,-3,25,-21,-3,-5,1,32
1499894147943184,-1,0,27,-23,2,0,-3,73
1499894147964189,11,16,7,-3,6,3,7,21
1499894147964189,-19,-12,-38,3,1,2,-3,-42
1499894147966195,-1,-1,-3,43,-3,-4,2,-20
1499894147966195,0,-5,-9,-55,-7,-1,-2,35
1499894147979205,4,-2,-10,-7,-3,0,2,17
1499894147979205,-10,7,25,55,6,1,-4,-17
1499894147985185,-4,-5,-9,-14,-3,0,0,-5
1499894147985185,-6,-3,-8,7,-1,-1,-2,10
1499894148002223,-11,-3,-2,-22,-1,-3,-6,-7
1499894148002223,-9,0,14,-32,-7,-2,2,35
1499894148003186,10,-4,2,41,-4,-1,-4,14
1499894148003186,2,8,26,-14,3,1,0,-13
1499894148024208,6,-13,-43,31,0,-2,-4,20
1499894148024208,2,3,17,-42,1,-1,2,20
1499894148026188,-4,1,18,11,0,0,-1,17
1499894148026188,5,-2,-4,-11,2,2,2,17
1499894148038227,3,-5,17,23,4,-2,-2,-27
1499894148038227,0,-7,-38,18,0,0,-1,-6
1499894148047189,-3,2,14,-54,-4,-6,0,2
1499894148047189,6,4,-8,45,2,-1,-4,-51
1499894148062195,-25,-8,-26,-22,0,1,0,-68
1499894148062195,8,8,25,53,6,2,4,24
1499894148063190,3,4,1,-80,-2,3,2,1
1499894148063190,-2,-1,1,86,-2,-2,-5,-51
1499894148084189,6,-5,-13,-96,-13,-5,7,45
1499894148084189,10,2,14,16,-1,-2,-2,3
1499894148090196,-6,-3,-14,25,1,-3,-4,-27
1499894148090196,1,-2,-7,-35,0,-2,3,20
1499894148098216,11,6,24,87,6,8,4,35
1499894148098216,-5,-5,-12,-39,-5,-5,-3,-7
1499894148107192,3,1,6,10,-7,-2,-1,52
1499894148107192,-10,-6,-29,-60,-4,-3,-1,-9
1499894148122195,-4,0,0,8,0,-2,-3,19
1499894148122195,3,2,16,54,4,-2,-3,-26
1499894148123196,-8,5,11,18,-1,-2,1,-26
1499894148123196,2,-12,-33,-15,-5,2,-3,25
1499894148144257,0,2,13,2,-4,-3,-2,1
1499894148144257,4,-3,-6,-36,1,1,-1,16
1499894148146195,5,0,-2,40,3,-1,0,11
1499894148146195,-3,3,19,-2,-3,-1,0,-16
1499894148167237,7,2,16,-88,-8,1,0,30
1499894148167237,1,-8,-36,-69,-4,-2,-1,6
1499894148168200,-4,7,31,101,9,0,-1,-11
1499894148168200,-3,-13,-34,-32,-10,-4,-2,1
1499894148182197,4,1,8,23,-4,-4,5,-10
1499894148182197,-3,3,8,27,4,0,2,12
1499894148183197,16,-2,-12,-51,4,8,6,48
1499894148183197,-9,-2,-11,44,0,-6,-8,-16
1499894148204239,0,-5,-2,-88,-13,-7,-2,-19
1499894148204239,-7,4,14,1,-2,-1,0,-29
1499894148206216,6,-3,-17,1,1,0,2,-3
1499894148206216,5,8,-1,28,8,7,6,21
1499894148218203,-2,-10,6,58,-2,-5,-7,-30
1499894148218203,-3,-2,21,21,-4,-4,-3,-12
1499894148227204,18,1,8,-2,-1,0,-1,18
1499894148227204,0,3,-9,-19,-3,-2,-2,-21
1499894148242237,0,-1,-14,8,4,2,-3,-8
1499894148242237,-5,1,4,0,1,0,-2,28
1499894148243202,-3,-1,11,0,-2,-1,0,8
1499894148243202,-1,-3,0,3,2,0,2,15
1499894148264202,16,4,19,-49,-9,-1,-1,-42
1499894148264202,-5,-10,-34,34,-3,-5,-4,40
1499894148266211,-10,-2,-19,-24,-3,-4,-3,3
1499894148266211,5,0,12,25,0,-3,-1,-12
1499894148287215,-9,2,20,48,9,6,1,13
1499894148287215,3,8,-6,-52,-3,0,4,-10
1499894148288203,-6,-8,9,15,-5,-4,-5,-24
1499894148288203,0,-4,-12,0,-4,-5,-2,24
1499894148302234,-5,-3,-17,43,6,3,0,1
1499894148302234,9,1,7,-51,-5,0,0,-6
1499894148303203,-15,-6,-14,-17,-6,-3,-4,-28
1499894148303203,-2,0,27,-4,1,0,-2,2
1499894148324204,5,2,-11,14,1,-4,-2,8
1499894148324204,2,2,10,35,9,7,4,29
1499894148326205,-8,-4,-25,-22,-5,-1,-2,-99
1499894148326205,13,0,16,-16,-10,-5,-5,24
1499894148338247,-15,-11,-14,29,2,-4,-4,-2
1499894148338247,-2,4,8,-59,1,1,10,-6
1499894148347207,8,6,14,-13,2,5,-2,15
1499894148347207,12,3,7,29,1,1,0,19
1499894148362207,7,0,2,-36,-5,-2,-1,12
1499894148362207,18,2,6,34,1,-3,-2,17
1499894148363207,-17,-6,-22,-3,-1,0,1,22
1499894148363207,-2,-1,3,-24,-1,-2,0,-11
1499894148384210,5,1,0,13,0,-1,-2,23
1499894148384210,-7,1,-2,7,3,0,0,-10
1499894148386209,-6,-4,11,27,0,1,0,-1
1499894148386209,-5,-1,-5,-37,-3,-3,-8,-48
1499894148398210,7,-7,-14,-12,-7,-1,-1,9
1499894148398210,1,-8,-12,-13,-8,-9,-10,2
1499894148407214,8,2,19,21,3,1,0,3
1499894148407214,-11,4,9,-38,3,2,0,5
1499894148422230,-14,-18,-52,8,-5,-6,-4,-7
1499894148422230,-2,6,43,75,9,6,-3,-21
1499894148423209,8,3,-7,-43,-6,-6,-1,24
1499894148423209,1,-5,-5,26,1,4,3,54
1499894148444261,7,8,-2,-75,-5,0,0,0
1499894148444261,-14,-7,-1,6,-2,-1,0,-12
1499894148446229,4,3,14,31,4,1,-1,2
1499894148446229,-4,-3,-28,15,-5,-3,0,8
1499894148467238,-2,3,9,-10,-2,-1,-3,-27
1499894148467238,0,-5,-15,23,-1,-3,-2,-16
1499894148468213,-4,2,14,-21,2,0,-1,12
1499894148468213,-8,-2,4,35,2,-2,1,8
1499894148482213,15,0,-9,-60,-1,-1,0,57
1499894148482213,-3,-4,-13,51,-2,-2,-3,14
1499894148483215,-2,-6,-14,-37,-5,-3,-4,4
1499894148483215,-1,-1,13,18,-2,-1,-1,-20
1499894148504256,-6,0,6,23,1,2,0,5
1499894148504256,-7,-4,6,5,-4,-2,-2,-37
1499894148506235,0,5,-4,-3,4,4,2,-1
1499894148506235,8,-6,-17,-8,0,0,1,-28
1499894148527253,-8,-1,-2,13,-1,-2,0,-15
1499894148527253,-18,3,-1,-48,-9,-3,1,62
1499894148528216,15,-7,17,40,-5,-5,-2,22
1499894148528216,-4,2,0,-48,2,-1,1,0
1499894148540256,-9,12,26,101,10,6,1,-14
1499894148540256,5,-6,-28,-92,-1,0,-1,3
1499894148549222,-9,1,4,-17,0,0,0,-5
1499894148549222,22,3,20,3,-5,-1,2,61
1499894148572219,-7,-7,-23,25,-7,-8,-4,-11
1499894148572219,-8,-6,-4,-5,3,-2,-4,-34
1499894148573219,-6,1,1,12,1,-2,0,-19
1499894148573219,7,-4,-10,-29,0,1,6,14
1499894148587266,-6,0,1,-21,-4,1,-8,-5
1499894148587266,21,4,7,8,-1,0,3,34
1499894148588221,-9,-1,-9,17,-1,-2,-4,-62
1499894148588221,-12,1,14,2,5,2,-3,-24
1499894148601258,0,-2,3,-1,-1,-4,-3,-43
1499894148601258,5,1,2,44,2,2,0,-15
1499894148608262,4,-4,-24,-58,-4,-3,-1,38
1499894148608262,-3,0,-4,-35,-11,-3,-4,-26
1499894148624228,8,5,26,28,8,1,3,17
1499894148624228,3,-7,-19,36,-6,-3,-3,-4
1499894148626222,-9,1,-4,44,6,-1,0,16
1499894148626222,-1,-3,-1,-19,3,2,0,-12
1499894148647222,-4,2,-11,5,-7,-1,2,4
1499894148647222,-1,1,30,-15,3,0,0,-1
1499894148648226,9,-1,-28,-22,-12,-6,-3,43
1499894148648226,-9,2,-8,-1,3,0,-3,-3
1499894148661224,-7,-7,-21,-1,0,0,1,-15
1499894148661224,-5,1,7,-12,-2,-1,0,-5
1499894148668228,-9,0,11,12,-2,1,-1,-15
1499894148668228,-4,-1,-5,-3,-1,-2,-1,45
1499894148684231,-3,2,14,10,2,-3,-5,-16
1499894148684231,-1,-6,-21,-13,-5,-1,-6,-5
1499894148686226,4,6,23,25,5,2,7,2
1499894148686226,-20,-9,-29,-60,-14,-3,1,-39
1499894148707246,-4,-4,5,-8,-2,-3,-1,19
1499894148707246,20,0,-5,-16,2,-2,-1,2
1499894148708226,-4,1,21,24,0,-2,0,-30
1499894148708226,12,3,4,5,3,1,-3,66
1499894148721228,-22,-1,-7,49,8,7,2,1
1499894148721228,2,-2,-17,-78,-12,-11,-5,-9
1499894148728247,0,-5,-3,12,3,1,-1,39
1499894148728247,-6,-5,-5,35,0,-2,0,0
1499894148744252,2,3,27,-22,2,-5,1,9
1499894148744252,-3,-3,-15,25,2,8,2,8
1499894148746233,-2,-2,-10,-30,1,0,0,6
1499894148746233,-2,-3,22,-46,-8,-4,-5,-25
1499894148767248,5,2,4,46,4,1,1,2
1499894148767248,-14,1,-9,9,-3,-3,-3,-47
1499894148768230,5,-8,-22,-6,0,-2,-2,-15
1499894148768230,-19,0,-3,-10,-6,-1,-4,-30
1499894148789241,6,1,18,-7,-2,-2,-2,-13
1499894148789241,-9,-1,0,5,3,2,3,21
1499894148791256,-6,-5,-11,16,-2,0,-4,-35
1499894148791256,9,-2,-5,9,-4,-3,-3,23
1499894148804271,6,-2,8,6,-2,0,3,54
1499894148804271,-15,1,9,50,0,-4,-4,-28
1499894148806234,-7,-2,-7,-82,-3,-3,-1,-7
1499894148806234,9,1,5,51,2,-2,2,-6
1499894148827269,1,-3,-14,-28,-4,1,-2,-5
1499894148827269,9,2,5,30,7,4,2,10
1499894148828234,-6,3,1,-37,-5,1,9,-16
1499894148828234,1,2,-7,0,-3,-3,-10,-23
1499894148841275,-13,-11,4,3,-4,-2,-2,-15
1499894148841275,4,1,-8,-5,0,-2,-2,12
1499894148848264,1,-1,1,45,4,3,-1,7
1499894148848264,-20,-1,8,-29,0,-2,-2,-32
1499894148864256,10,-1,6,-9,-3,-5,-5,30
1499894148864256,7,-3,-17,19,2,4,3,0
1499894148866240,-2,-1,10,-33,-6,-4,-3,-25
1499894148866240,26,7,-7,25,4,3,1,13
1499894148887246,-15,2,-12,2,1,0,0,-19
1499894148887246,-6,0,19,-28,-7,-4,-4,-7
1499894148888245,8,5,11,-5,4,2,0,13
1499894148888245,4,-5,21,94,-4,-3,0,17
1499894148901281,5,-5,-34,-29,-3,-6,-2,-14
1499894148901281,8,5,12,40,5,5,2,18
1499894148908252,-7,-3,-32,-79,-14,-2,-1,-3
1499894148908252,-9,-1,21,-17,-1,0,1,-13
1499894148924258,9,-2,-14,2,-2,-7,-3,-1
1499894148924258,-5,0,7,10,1,2,-1,7
1499894148926241,1,-4,1,22,-3,-3,-6,4
1499894148926241,-8,-7,-12,-25,1,1,2,-13
1499894148947258,13,5,5,48,3,4,3,6
1499894148947258,-12,-3,-6,-96,-7,-1,-3,-46
1499894148948241,10,-5,-7,27,-8,-6,-6,38
1499894148948241,0,2,3,4,6,0,0,3
1499894148960241,0,2,10,6,2,4,2,-30
1499894148960241,0,-3,-14,1,4,-2,2,47
1499894148969241,-4,2,11,9,3,0,7,-1
1499894148969241,1,-5,-17,-37,-7,-1,-7,-16
1499894148985259,-4,2,-11,8,1,0,0,14
1499894148985259,6,4,26,-45,-4,-4,-1,-7
1499894148986251,0,-8,14,38,-4,-2,-2,3
1499894148986251,-1,1,-11,27,9,1,3,11
1499894149007248,-9,-4,7,-21,-1,4,0,1
1499894149007248,-5,-9,-9,2,-7,-5,-2,-10
1499894149008245,2,9,17,26,6,3,-2,-24
1499894149008245,3,-2,-7,-16,-5,-3,-1,-1
1499894149020248,-10,-9,-25,11,-2,-3,-6,-16
1499894149020248,8,2,16,9,-3,-2,-2,25
1499894149029248,-1,2,-5,4,4,1,1,-10
1499894149029248,3,2,5,1,-4,0,3,-3
1499894149044252,4,2,8,-68,-5,-2,-8,-10
1499894149044252,6,0,4,29,-3,-2,-1,-9
1499894149046248,-5,-6,-18,63,3,-1,-5,-13
1499894149046248,5,1,-4,-25,-2,2,2,-1
1499894149067248,3,-2,-3,-17,-1,0,3,26
1499894149067248,-10,-1,21,-14,1,0,-3,-21
1499894149068248,-2,-7,-30,-6,-4,-5,-3,8
1499894149068248,-8,5,6,5,5,-5,-1,-23
1499894149080269,4,-7,-19,24,-7,2,-3,-5
1499894149080269,-12,-3,15,42,4,1,0,-48
1499894149089249,-6,-2,-8,-66,-5,-2,-1,19
1499894149089249,18,2,3,-20,-1,0,1,28
1499894149104297,3,-2,-15,-8,0,-2,3,32
1499894149104297,-8,-3,-7,17,2,-2,0,15
1499894149106255,-3,1,1,-11,-3,-1,-2,-16
1499894149106255,-4,-1,8,57,6,1,-3,-6
1499894149127255,3,2,14,-91,-1,1,1,5
1499894149127255,17,-2,-17,51,-8,-3,3,79
1499894149128251,-26,-8,-32,-33,-4,-5,-5,-26
1499894149128251,5,0,-6,-5,1,0,1,32
1499894149140314,-7,5,25,76,8,-1,0,-43
1499894149140314,4,-1,-14,-93,-8,-1,1,41
1499894149149271,8,6,15,17,5,1,1,6
1499894149149271,-8,-6,1,32,1,0,-1,-15
1499894149172253,-4,2,-5,-35,-6,-6,-1,-2
1499894149172253,-4,0,7,47,4,1,-2,-26
1499894149173253,5,-5,-8,-31,0,-1,-2,48
1499894149173253,-11,-1,-15,-17,-4,-3,-5,-30
1499894149194259,1,4,9,43,4,2,3,0
1499894149194259,21,5,1,-77,-5,-1,1,21
1499894149196275,-1,-6,-9,75,1,-2,0,4
1499894149196275,-1,-6,-33,-4,-4,-2,-3,-4
1499894149200315,-10,2,23,1,-3,-2,-1,-28
1499894149200315,4,3,-2,-33,1,0,-7,-112
1499894149210256,-3,2,-6,-29,0,0,-3,-14
1499894149210256,2,0,-1,-30,-4,-2,-1,17
1499894149224260,-4,-8,-12,5,-4,-5,-5,-2
1499894149224260,-19,-1,4,67,5,-1,0,-7
1499894149226257,6,2,3,-47,-4,1,2,7
1499894149226257,-1,3,11,20,8,3,-1,-18
1499894149247258,-2,-5,-26,-46,-8,-3,-5,-6
1499894149247258,10,-1,2,22,-4,-3,1,34
1499894149248257,5,0,10,16,2,-1,-3,22
1499894149248257,-4,-2,14,-3,-5,0,0,15
1499894149260321,-2,-4,-10,-5,-1,-2,1,2
1499894149260321,-1,-2,-7,-23,-1,-4,0,47
1499894149269262,-13,3,16,36,1,1,0,-61
1499894149269262,2,0,4,44,2,2,1,1
1499894149284260,2,0,10,10,-3,0,-2,22
1499894149284260,-12,-11,-55,-82,-19,-7,-6,-42
1499894149286269,6,-5,18,29,1,0,-2,-1
1499894149286269,1,-1,-5,-1,1,-2,0,-5
1499894149307271,-10,3,7,22,6,2,1,7
1499894149307271,5,4,-3,29,4,1,2,6
1499894149308262,-2,-2,7,-28,-12,-5,-3,-3
1499894149308262,-3,-3,6,4,-1,-2,-3,-13
1499894149320279,-19,2,9,3,5,4,4,-40
1499894149320279,9,-3,-10,-19,-5,-1,-5,41
1499894149329263,6,3,12,34,4,1,1,4
1499894149329263,-4,-4,-9,-46,-9,-4,-3,11
1499894149344299,15,-5,-3,-36,-4,3,0,73
1499894149344299,-9,0,8,19,5,-3,-3,-31
1499894149346268,-3,-6,-16,-1,-6,-4,-2,-8
1499894149346268,5,2,2,5,0,0,0,48
1499894149367264,1,4,3,7,4,2,2,5
1499894149367264,5,0,7,66,6,4,0,19
1499894149368265,-7,8,13,-96,-1,2,-2,5
1499894149368265,-7,-19,-34,32,-6,-5,-4,-25
1499894149380266,-2,-4,2,10,-4,-3,-1,-29
1499894149380266,-5,-1,7,-11,1,-4,-2,3
1499894149389269,2,5,2,33,7,-1,3,26
1499894149389269,2,7,23,-2,6,3,2,14
1499894149404266,-2,-4,-35,-48,-5,-4,-6,-54
1499894149404266,-11,-1,24,59,-1,-4,-3,-19
1499894149406270,-2,-7,-13,-10,-5,-3,0,2
1499894149406270,-4,7,7,-31,-2,3,0,-11
1499894149427279,-1,-1,0,53,6,-2,-1,-4
1499894149427279,-1,-6,-17,-9,0,3,0,1
1499894149428280,0,-2,2,-3,-4,-3,-4,-8
1499894149428280,-6,2,14,14,0,-1,2,21
1499894149449312,7,-8,-6,19,-4,-6,-4,-9
1499894149449312,-2,4,4,25,5,3,2,-15
1499894149451275,1,-2,-10,-79,-7,-4,-5,12
1499894149451275,-1,-2,-8,64,3,-1,0,-12
1499894149464272,1,3,-7,-95,-8,-1,-1,21
1499894149464272,-8,-2,15,-16,-6,-4,-4,2
1499894149466275,5,-6,-12,55,5,1,4,-14
1499894149466275,-2,2,2,-8,3,1,-1,-11
1499894149487277,-3,-3,-8,14,-3,-2,-4,9
1499894149487277,5,0,4,-13,1,0,1,4
1499894149488271,-1,2,12,34,1,3,2,4
1499894149488271,-1,1,-1,-20,0,1,-2,-9
1499894149509283,-3,-2,7,12,-10,-3,-2,5
1499894149509283,-11,-1,-22,-53,-2,3,0,23
1499894149512275,2,3,1,40,2,-4,-4,-44
1499894149512275,-7,-10,-10,45,-2,-6,-4,-24
1499894149524291,2,0,4,-8,2,1,-2,7
1499894149524291,-3,0,-4,-9,-2,-3,1,-12
1499894149526275,-4,2,2,21,8,4,0,3
1499894149526275,8,3,5,-20,-3,-1,0,-1
1499894149546275,-13,-5,3,-1,-8,-3,2,6
1499894149546275,-13,-5,-12,18,-2,-2,-2,-33
1499894149555296,9,2,-3,2,0,0,0,8
1499894149555296,0,2,-1,4,6,5,3,0
1499894149569277,-13,0,7,-31,-4,-3,-1,1
1499894149569277,7,-3,-5,23,-4,2,-2,-16
1499894149571297,-7,-1,12,-12,-2,-1,1,-15
1499894149571297,-3,-4,-28,-6,-7,-9,-3,-18
1499894149583277,4,3,-1,-25,5,6,-3,12
1499894149583277,-4,0,-8,-37,3,0,1,-13
1499894149590333,-4,-6,12,3,-8,-5,-5,-4
1499894149590333,-7,4,6,-18,1,2,-3,-31
1499894149607288,0,-2,-4,29,2,-2,2,3
1499894149607288,6,7,3,-8,3,0,2,7
1499894149608283,-15,-7,4,78,0,-3,-5,-7
1499894149608283,2,-1,4,-72,-8,-1,0,-19
1499894149629282,-2,4,16,31,0,-1,1,33
1499894149629282,9,-14,-22,-32,-1,-3,-4,-15
1499894149631280,8,3,-14,-9,1,1,0,13
1499894149631280,-5,-4,-7,-9,-2,-1,0,21
1499894149643285,0,-2,-2,16,0,2,1,-16
1499894149643285,-3,6,22,11,-2,-1,1,10
1499894149650348,-1,-4,0,-23,2,0,-2,-10
1499894149650348,3,-3,-19,-32,-3,-9,-5,4
1499894149667282,7,2,9,69,1,0,1,-4
1499894149667282,-5,-4,-6,-11,0,1,-1,5
1499894149668282,2,-2,-12,40,-7,-5,-3,-7
1499894149668282,12,2,8,-47,-3,4,2,13
1499894149689320,-38,0,1,-8,1,-4,-4,-97
1499894149689320,7,0,5,8,-3,-1,-2,11
1499894149691299,3,2,1,-1,5,0,4,6
1499894149691299,-3,-6,-17,-21,-5,-2,0,8
1499894149703338,1,2,6,35,2,0,1,50
1499894149703338,0,1,-6,-2,1,-1,-2,-42
1499894149711285,-7,0,-7,-43,-10,-4,-1,19
1499894149711285,2,0,13,55,3,0,1,16
1499894149727339,2,-4,9,-18,-1,-1,0,-9
1499894149727339,-6,4,0,36,6,0,-3,35
1499894149728286,3,-6,-17,-30,-2,-4,-1,23
1499894149728286,-6,-3,-18,-23,-6,-3,-2,-11
1499894149749288,8,1,-6,-34,-2,1,2,11
1499894149749288,-2,-1,16,1,-2,1,0,-14
1499894149751287,-2,3,7,13,2,1,1,-26
1499894149751287,2,0,4,-1,-5,-4,-3,22
1499894149763312,4,-5,-17,-24,-1,-1,-3,-4
1499894149763312,1,-2,0,53,3,-3,0,8
1499894149770291,-3,-2,1,-32,-1,2,1,-29
1499894149770291,2,1,5,-41,-1,1,1,3
1499894149787290,8,6,1,59,0,-3,0,1
1499894149787290,-7,-7,-10,-12,-6,-4,-2,-6
1499894149788296,4,-5,-15,-30,-1,0,1,35
1499894149788296,-15,-2,15,64,7,0,1,-17
1499894149809293,6,-4,-19,-78,-10,-5,-4,-4
1499894149809293,-7,0,3,30,-3,-3,-2,-22
1499894149812292,11,3,-8,-21,6,6,2,12
1499894149812292,-1,0,-4,27,-2,0,-1,-12
1499894149823291,-1,-7,-8,-10,1,-1,-3,18
1499894149823291,-7,3,9,-37,-3,0,-1,3
1499894149832296,-12,-5,4,26,2,-3,-1,-22
1499894149832296,4,1,6,-6,0,1,-2,3
1499894149847297,3,-1,-7,-16,1,1,0,-8
1499894149847297,2,3,10,-15,-6,-2,-1,-2
1499894149848314,1,-3,-6,16,1,-5,-2,7
1499894149848314,-2,-1,3,27,-1,2,0,0
1499894149869297,-4,-2,0,4,1,-1,-3,30
1499894149869297,-4,-3,-18,-49,-5,-2,-4,14
1499894149871297,-4,0,6,37,-2,2,0,-6
1499894149871297,1,-2,-9,8,-1,-3,-2,10
1499894149883315,3,0,0,-6,-2,2,2,0
1499894149883315,1,1,3,-22,0,-4,1,26
1499894149898359,-1,-8,-22,-6,-8,0,-1,27
1499894149898359,-8,-1,17,20,4,0,0,0
1499894149907309,9,3,0,-24,-1,-1,0,-14
1499894149907309,4,2,1,34,2,-1,0,24
1499894149908297,-5,-8,-12,-50,-6,-3,-2,-18
1499894149908297,0,-1,19,27,1,1,0,-5
1499894149929301,-8,-1,0,-18,-5,0,-1,-3
1499894149929301,5,-3,16,0,-1,-4,-2,-11
1499894149931298,-2,1,0,-33,-4,-4,-1,26
1499894149931298,-10,-3,-16,25,1,4,-1,1
1499894149943351,3,-2,14,41,3,-2,-2,2
1499894149943351,-1,-2,-24,-84,-6,-1,0,-7
1499894149952300,-5,5,32,33,0,0,-1,-14
1499894149952300,-2,-8,-34,7,1,-4,-4,-15
1499894149967299,9,4,20,27,-3,1,4,73
1499894149967299,-1,-9,-31,-9,-3,-3,-5,16
1499894149968299,0,-1,-5,-6,-2,-3,1,11
1499894149968299,4,1,-7,-14,1,0,0,-2
1499894149989312,-2,-2,-11,13,0,0,0,-3
1499894149989312,1,2,13,0,0,3,1,-7
1499894149991304,4,2,3,25,0,2,0,-1
1499894149991304,1,2,11,-35,-6,0,0,0
1499894150003368,-3,-5,-7,59,3,-5,-5,-22
1499894150003368,1,-2,3,-47,0,-2,-1,-4
1499894150012303,-2,2,-12,-58,-4,-1,-4,-19
1499894150012303,0,-3,2,-7,1,1,1,2
1499894150027340,-8,-1,-5,-9,1,1,-3,-33
1499894150027340,5,3,8,60,5,-1,0,-13
1499894150028304,-1,-7,6,-2,0,0,-1,36
1499894150028304,1,-5,-15,23,2,-2,-4,0
1499894150049347,-5,-5,-17,-65,-6,-3,-3,-17
1499894150049347,-6,-6,-10,66,-5,1,0,-8
1499894150051309,1,6,9,30,4,-1,1,-14
1499894150051309,-4,0,-3,-59,-11,-4,0,8
1499894150063312,7,-1,4,18,5,0,-3,-32
1499894150063312,1,8,28,-17,4,2,1,6
1499894150072306,5,-6,-16,8,-8,-2,-4,-35
1499894150072306,16,-4,5,2,-2,-4,0,36
1499894150087334,-19,0,6,4,-2,0,-1,-24
1499894150087334,0,0,-7,-11,0,0,0,10
1499894150088306,-1,4,10,39,6,1,3,1
1499894150088306,1,6,-2,-56,-5,1,-1,-1
1499894150109309,12,1,-4,7,-3,-3,0,24
1499894150109309,-10,-11,1,-41,-8,-4,-2,-13
1499894150112308,-3,-3,-6,36,1,-1,-2,1
1499894150112308,-5,4,10,-21,-6,-6,-4,3
1499894150123311,2,2,3,32,1,4,3,26
1499894150123311,-6,-4,-16,-4,-6,-3,-2,-18
1499894150132312,0,-4,-20,-69,-6,-3,-3,4
1499894150132312,-2,2,28,15,4,2,1,-12
1499894150146746,-2,2,4,1,4,0,-2,-1
1499894150146746,1,-2,10,52,4,4,-2,11
1499894150148747,-6,-2,-4,-40,-2,0,0,-8
1499894150148747,-1,3,3,11,-2,-3,-1,-9
1499894150168748,-11,-6,-6,-2,-6,-4,-3,-17
1499894150168748,9,2,-1,13,2,0,3,2
1499894150176751,3,-7,4,12,-1,-3,-8,63
1499894150176751,-8,-1,-2,16,1,-1,-2,-31
1499894150182748,6,-1,-9,-39,-4,-4,-1,11
1499894150182748,9,1,-2,1,-8,-1,-1,5
1499894150191748,4,-1,9,-34,-6,-5,1,48
1499894150191748,-4,-1,-3,13,5,4,1,-13
1499894150206765,1,1,4,10,3,1,-2,-1
1499894150206765,-4,0,-8,15,2,1,0,7
1499894150208751,-5,2,2,-3,0,1,1,-23
1499894150208751,2,-6,-8,13,-2,-2,-1,10
1499894150229751,-4,-2,-16,8,2,1,0,-9
1499894150229751,-5,4,21,-7,6,2,1,-1
1499894150230751,0,-3,-13,0,-7,-3,-2,-12
1499894150230751,0,2,6,-7,1,-1,-1,0
1499894150242752,0,-4,-27,12,-4,-3,-1,-4
1499894150242752,-3,-3,19,4,3,0,-1,-7
1499894150251757,-1,2,2,44,5,3,0,-11
1499894150251757,3,2,-1,-53,-1,1,-2,0
1499894150266755,-2,1,16,74,-1,1,1,-6
1499894150266755,4,-4,-7,-89,-11,-6,-4,4
1499894150268764,-4,4,5,20,3,0,3,-15
1499894150268764,5,2,4,3,0,-1,0,15
1499894150289757,-3,0,-7,-10,2,-1,-1,-38
1499894150289757,-20,2,3,10,1,2,-1,-68
1499894150290757,1,1,-2,23,-1,1,-2,-10
1499894150290757,-5,-8,-12,-6,0,-2,-1,-4
1499894150303770,-3,-4,-12,-2,0,0,2,8
1499894150303770,3,2,-4,-16,-5,-1,0,11
1499894150311756,-5,1,0,-10,3,3,0,-10
1499894150311756,-5,-6,-14,52,2,-1,-2,-12
1499894150326779,3,2,19,-63,-1,-2,-2,-6
1499894150326779,1,-6,-17,38,0,-2,-2,8
1499894150328757,-2,0,-5,-13,-5,-2,-2,-3
1499894150328757,-2,-4,0,14,0,-1,-1,-6
1499894150349766,-2,-1,11,-5,-4,-1,0,1
1499894150349766,-8,1,24,-4,0,-4,-5,-22
1499894150350757,4,-6,-1,-20,-5,-4,-4,4
1499894150350757,17,7,1,92,5,2,1,14
1499894150371765,-4,-7,-18,-125,-9,-6,-2,-9
1499894150371765,-5,0,-5,16,-5,0,-2,1
1499894150373763,-9,-1,5,16,3,1,1,1
1499894150373763,-3,-2,4,-26,-3,0,-2,-2
1499894150386816,6,6,19,70,7,4,0,13
1499894150386816,-2,-4,-8,-35,-5,-6,1,7
1499894150388806,1,0,-3,-1,0,-2,-4,-7
1499894150388806,-6,-3,-21,-26,-6,-1,-1,-5
1499894150409763,-1,0,-2,6,2,2,0,-2
1499894150409763,-2,-1,1,35,3,1,1,11
1499894150411762,3,5,8,-53,1,0,0,-8
1499894150411762,-5,-2,-3,-8,0,-1,-1,-1
1499894150431762,-1,-2,9,-3,-1,-2,0,-2
1499894150431762,13,-2,-21,13,-3,-2,-2,21
1499894150433771,-1,-6,10,20,1,-1,-1,-27
1499894150433771,-3,0,-2,-62,-3,-2,0,5
1499894150446763,-2,-5,-14,64,-9,-7,-5,-13
1499894150446763,0,3,1,-30,0,1,0,-4
1499894150448798,-9,-2,12,27,3,-1,0,-18
1499894150448798,-4,0,8,-59,-3,-1,-4,-39
1499894150469766,-2,0,-2,79,-2,0,-3,6
1499894150469766,0,-10,-27,-47,-8,-8,-4,4
1499894150470765,-2,2,-1,11,-2,-1,-2,11
1499894150470765,3,4,13,10,0,1,-1,18
1499894150491827,9,-5,-1,-9,1,-2,2,60
1499894150491827,-4,2,8,14,6,-1,-1,-36
1499894150493777,-1,-3,-20,-8,-6,2,1,5
1499894150493777,-5,-2,-7,-1,1,-2,0,4
1499894150505812,0,2,18,48,2,-1,-2,22
1499894150505812,-2,3,1,-35,0,-2,0,-8
1499894150514768,3,-6,-9,-4,-4,-6,-4,29
1499894150514768,14,4,9,28,0,1,2,38
1499894150529769,-7,0,-14,-49,1,2,-1,-20
1499894150529769,-2,-3,-1,25,2,0,-1,9
1499894150530768,1,0,-15,30,0,-2,-2,-22
1499894150530768,-9,-3,-3,-19,-5,-3,1,6
1499894150551829,7,1,6,-5,-1,-2,-3,-5
1499894150551829,-4,-2,-1,57,5,1,1,-12
1499894150553769,2,0,-13,-79,-12,-1,0,-4
1499894150553769,-14,-5,-6,41,-6,-8,-5,6
1499894150565789,-4,5,18,-66,2,2,2,-20
1499894150565789,1,0,6,56,-3,-1,0,5
1499894150572789,-8,0,3,17,5,0,-2,-53
1499894150572789,2,-3,-19,-39,-3,0,1,-7
1499894150589779,-4,-1,-3,22,-3,-2,-3,0
1499894150589779,14,2,2,-54,-1,2,3,39
1499894150590772,-5,-1,-2,-19,-4,-2,1,4
1499894150590772,-3,2,23,13,1,1,-2,-16
1499894150610776,-1,-5,-10,-14,0,-2,0,-9
1499894150610776,-13,-2,-8,30,1,5,-1,-22
1499894150619777,-5,-8,4,26,-7,-6,-4,1
1499894150619777,3,6,3,7,-1,-1,2,-30
1499894150626778,0,1,1,-23,-3,0,-1,-5
1499894150626778,0,-1,-4,18,4,-1,-2,12
1499894150632800,-2,2,5,-1,4,2,1,10
1499894150632800,-3,-8,-8,-6,-4,-2,-4,-6
1499894150649781,2,2,-3,2,0,-2,1,0
1499894150649781,-1,0,3,22,0,0,1,-4
1499894150650789,1,2,-11,-48,-1,1,-1,-11
1499894150650789,-3,3,14,6,0,0,-1,4
1499894150671780,-2,-6,-12,-5,1,-2,-2,6
1499894150671780,-2,-2,-2,-1,-5,-5,-4,-12
1499894150673780,0,1,-4,11,3,2,2,19
1499894150673780,2,0,13,29,4,0,0,-15
1499894150685802,-4,-1,-7,-46,-11,-3,-2,25
1499894150685802,1,1,2,-6,-2,0,2,17
1499894150692779,-1,-6,-1,19,3,-2,0,4
1499894150692779,5,-2,-12,-29,-6,-1,-1,9
1499894150709784,17,1,9,7,2,0,1,35
1499894150709784,-6,-1,12,6,2,-3,-2,-4
1499894150711779,1,1,11,2,-2,-4,-1,11
1499894150711779,-3,-1,-3,39,1,2,2,-4
1499894150731783,-2,-1,-11,-28,-1,-2,-1,-10
1499894150731783,-5,-7,-6,42,-3,-2,-1,-6
1499894150733786,1,0,1,0,2,0,0,-11
1499894150733786,0,-2,-6,-35,-8,-6,-4,5
1499894150745805,-4,1,9,19,2,0,2,-16
1499894150745805,-2,3,0,-44,2,5,1,-3
1499894150752843,-2,-4,-8,60,1,-1,0,-1
1499894150752843,-3,-7,-9,-10,-5,-4,-1,-9
1499894150769785,-4,1,-3,-8,0,-1,0,-6
1499894150769785,0,-6,0,-13,-2,-3,-2,14
1499894150770782,1,0,-2,8,0,1,0,3
1499894150770782,-5,-1,-7,37,7,0,-3,-10
1499894150791830,0,-2,-11,-78,-9,1,1,-8
1499894150791830,3,7,4,19,0,-1,-1,10
1499894150793792,-4,-13,-14,-28,-8,-6,-6,-1
1499894150793792,3,-4,-4,18,2,-1,0,61
1499894150805828,5,-2,0,26,1,-3,0,12
1499894150805828,8,6,13,-31,2,3,0,27
1499894150814788,4,4,5,-2,-3,-1,-2,8
1499894150814788,-14,-5,-13,-13,2,2,-1,-8
1499894150829786,-7,-5,0,65,4,-1,-2,-9
1499894150829786,2,3,4,-41,-15,-6,-1,13
1499894150830786,-2,-7,-3,-10,-3,0,-1,-34
1499894150830786,0,4,7,-23,-2,-1,-1,-8
1499894150851831,7,-5,-4,53,2,-2,-3,3
1499894150851831,-18,-2,-10,20,2,-2,-3,-43
1499894150853787,4,-2,-10,-41,-2,1,-2,2
1499894150853787,18,2,0,-3,0,0,1,19
1499894150865789,-11,-5,-12,-24,-5,-8,-8,-44
1499894150865789,12,-3,-10,14,3,0,-1,3
1499894150874791,-3,4,4,-5,1,2,3,24
1499894150874791,-1,-3,-5,-25,-7,-3,-3,8
1499894150889795,-7,0,5,2,-1,0,-1,-8
1499894150889795,-3,-3,-6,-14,-3,-3,-5,-31
1499894150890793,-2,4,15,35,4,-3,0,3
1499894150890793,2,-1,-2,-22,0,0,1,-2
1499894150911790,-3,-1,-2,-9,0,3,1,3
1499894150911790,-6,-1,-4,22,-3,-1,0,-8
1499894150913791,2,-1,-1,-1,-3,-2,-4,1
1499894150913791,-2,0,4,6,-2,-6,-2,-12
1499894150925792,-4,-1,-8,-10,-2,2,-2,-6
1499894150925792,-2,-8,-10,-10,3,-1,-1,5
1499894150934795,2,1,-4,-54,-10,-1,-3,6
1499894150934795,-12,1,17,-4,0,0,0,1
1499894150949798,4,-2,-12,-3,-2,-1,-1,-2
1499894150949798,5,-1,-7,-8,-3,-2,-5,27
1499894150950797,-3,2,9,23,4,0,0,-12
1499894150950797,-5,-2,-15,44,6,1,1,5
1499894150971798,-4,1,16,-59,-7,-2,-1,11
1499894150971798,7,1,3,15,-1,0,0,-12
1499894150973809,-6,-3,2,-16,-3,0,-1,-4
1499894150973809,12,-1,-4,3,-2,-1,-2,8
1499894150985831,-2,5,5,15,7,2,-2,8
1499894150985831,5,-1,-5,3,-1,-5,-1,12
1499894150994802,-1,0,4,22,-2,2,0,2
1499894150994802,-6,-6,-11,-12,-2,1,0,-22
1499894151009802,4,-2,3,4,-4,-3,-3,6
1499894151009802,-2,-3,3,21,1,4,2,-4
1499894151011796,4,6,8,-32,2,0,0,8
1499894151011796,-4,-1,1,12,-1,-1,-2,-8
1499894151031799,-4,-2,-5,25,1,-1,0,-9
1499894151031799,2,5,21,-3,-1,-1,-1,3
1499894151033798,-11,-9,-6,41,2,-5,-1,17
1499894151033798,10,-2,-9,-24,-1,1,0,-4
1499894151045824,-5,2,13,-15,-2,-1,1,11
1499894151045824,1,2,-5,19,5,2,2,-2
1499894151054800,-1,6,-12,-64,-4,0,-1,10
1499894151054800,-7,-1,29,80,0,-7,-3,-17
1499894151068820,-6,-5,-22,-39,-2,2,1,-20
1499894151068820,2,0,8,-83,-6,-2,2,6
1499894151070801,3,-3,0,67,2,0,-1,-9
1499894151070801,2,5,-13,-9,-2,1,1,23
1499894151091853,3,-5,-1,9,2,-1,-3,-14
1499894151091853,-12,-6,-11,-9,-5,-3,-3,-22
1499894151093807,6,4,-2,-15,-1,-2,0,-7
1499894151093807,-9,-4,-4,-11,0,0,-2,-12
1499894151113804,-2,-4,5,30,-2,-1,0,8
1499894151113804,-3,1,-10,10,0,-3,-1,0
1499894151115805,1,-1,5,-45,1,1,1,3
1499894151115805,-1,-1,1,34,-5,-1,0,-13
1499894151128819,4,3,6,-9,-2,-4,-2,24
1499894151128819,12,-4,-2,32,5,1,0,35
1499894151130803,-18,3,11,9,3,2,-1,-62
1499894151130803,-2,2,9,-29,0,2,0,-10
1499894151151848,-1,-4,-13,9,-1,0,2,-7
1499894151151848,-1,-3,-9,3,-3,-1,0,-5
1499894151153827,5,-2,-5,53,5,2,1,23
1499894151153827,-2,1,7,-71,-3,-4,-1,0
1499894151165830,-5,0,4,9,1,2,3,-31
1499894151165830,-6,0,-2,23,-4,1,-4,-3
1499894151174824,0,-2,-10,19,-3,-4,-1,-1
1499894151174824,-5,-3,0,-13,1,2,0,5
1499894151189810,1,3,-1,-10,-2,-3,-3,-4
1499894151189810,3,1,9,-9,-1,-1,0,1
1499894151190808,-1,0,-3,9,-2,-2,-1,2
1499894151190808,5,-7,-9,39,0,-1,-2,13
1499894151211808,-4,-2,-6,-65,-4,0,0,-1
1499894151211808,-6,-2,-20,2,-5,-1,-1,-6
1499894151213809,2,-3,6,-4,0,-2,-2,9
1499894151213809,-1,3,2,9,0,-3,-1,-14
1499894151225827,-4,1,-1,1,-3,-4,0,-23
1499894151225827,-7,-4,-2,-14,0,2,-3,-13
1499894151234821,9,-1,-4,-10,-6,-3,-3,4
1499894151234821,-8,1,0,-23,2,2,-2,12
1499894151249816,6,-5,3,59,-5,-3,-3,2
1499894151249816,-2,-5,-18,-25,-5,-6,-1,7
1499894151250809,-7,-2,17,10,-1,0,-3,15
1499894151250809,0,-2,-10,9,3,2,1,-2
1499894151271812,3,2,-3,-53,-1,2,1,11
1499894151271812,-3,0,11,55,2,-2,0,1
1499894151273833,-2,-2,2,-15,-5,-2,0,-2
1499894151273833,0,-4,-14,23,-2,-2,-2,-3
1499894151294817,-3,-3,5,-17,-1,-3,-4,15
1499894151294817,-4,2,13,14,1,0,-2,-38
1499894151295827,2,-2,-6,-15,4,-1,-1,4
1499894151295827,0,-2,-8,-15,-6,-3,0,-6
1499894151309823,-6,-6,0,23,-5,-4,-2,0
1499894151309823,0,3,23,0,-2,1,-1,7
1499894151311814,-9,1,-14,-33,-1,2,3,-30
1499894151311814,17,4,-8,22,0,-4,2,-4
1499894151331836,-3,-2,17,7,6,7,1,8
1499894151331836,-12,-7,-18,-21,-3,-3,-1,-11
1499894151333816,5,1,2,29,1,-1,0,0
1499894151333816,-1,0,2,-11,-4,0,-1,5
1499894151354828,-1,2,2,-35,-5,-9,-2,18
1499894151354828,-3,-1,1,-37,0,5,2,0
1499894151355822,1,-3,-8,11,3,-1,-2,6
1499894151355822,-4,-3,2,33,-1,-1,-2,-6
1499894151368822,0,3,8,17,2,1,0,-7
1499894151368822,-12,-3,-7,-10,-2,-2,-1,8
1499894151375839,3,-4,-11,-23,-1,-3,-1,7
1499894151375839,-4,-5,7,13,-7,-3,-5,-8
1499894151391859,-1,-3,-12,14,-1,-2,-2,-21
1499894151391859,4,3,0,3,-1,-3,-1,13
1499894151393844,-2,3,6,-1,5,4,3,-19
1499894151393844,-7,-10,-32,-49,-10,-3,-3,-6
1499894151414843,0,-6,5,31,-1,-2,-3,7
1499894151414843,4,-2,-7,-17,-3,-3,-3,-3
1499894151416828,-2,-1,14,10,0,-4,-4,24
1499894151416828,-9,0,-7,13,5,-2,-3,-42
1499894151428825,-1,2,-10,-16,-2,6,2,7
1499894151428825,-1,-1,6,-18,-1,-1,-2,-13
1499894151430821,-5,-2,0,29,-4,-2,0,7
1499894151430821,2,0,15,57,3,-1,2,11
1499894151451841,2,-3,-27,-87,-6,0,-3,0
1499894151451841,3,0,0,30,1,-1,0,3
1499894151453822,-15,-2,6,-28,-3,0,-3,-34
1499894151453822,0,1,3,-8,-3,-2,-1,12
1499894151473825,6,2,4,11,3,-1,1,4
1499894151473825,8,-2,-3,-36,3,1,0,22
1499894151475823,-7,1,2,57,-3,-5,-2,-8
1499894151475823,0,0,-4,-24,1,2,0,-14
1499894151488878,-10,0,12,11,-1,-1,0,-8
1499894151488878,4,-1,3,-15,-1,-2,-1,-3
1499894151495823,3,-2,-29,31,3,1,-2,3
1499894151495823,-1,-1,15,-89,-2,0,-2,-2
1499894151511826,0,-1,-9,39,-3,-3,-1,1
1499894151511826,-3,-5,6,22,4,0,0,-7
1499894151513826,3,-1,-2,0,-2,-1,-2,6
1499894151513826,0,0,0,-60,-2,1,2,16
1499894151534839,0,2,7,19,2,1,-1,8
1499894151534839,1,2,-1,-20,4,2,1,-12
1499894151535826,-4,-4,-3,50,-3,-5,-1,-41
1499894151535826,-3,-2,1,-1,-8,1,0,10
1499894151548833,3,1,13,21,1,-5,-3,-21
1499894151548833,-10,-9,-48,-1,-6,0,-4,-26
1499894151555873,5,0,6,-4,-2,-4,-2,17
1499894151555873,-7,4,7,15,4,2,0,2
1499894151571828,-1,-5,-20,10,0,1,0,-8
1499894151571828,-2,-2,-6,-27,-5,-4,0,11
1499894151573849,5,-1,5,-52,-3,-2,-1,6
1499894151573849,-6,0,-1,19,1,-2,-4,-10
1499894151593882,-2,0,7,23,1,1,1,12
1499894151593882,-1,-3,-9,19,-1,-2,0,-1
1499894151595829,-2,-1,-2,-61,-1,2,0,-5
1499894151595829,4,1,12,57,-1,-5,-2,7
1499894151608891,-3,1,0,-37,-2,-1,-1,1
1499894151608891,-2,-3,9,26,2,-2,0,-12
1499894151615856,3,0,1,-23,-4,-2,-4,28
1499894151615856,2,-4,-5,29,2,-1,-3,14
1499894151632832,-2,-1,-9,22,-1,1,-2,4
1499894151632832,-1,3,16,0,2,3,2,5
1499894151633833,0,1,-7,-1,-7,-1,-1,9
1499894151633833,19,-1,-1,-12,2,1,1,31
1499894151652897,-9,-4,-9,-17,-5,-3,-2,0
1499894151652897,3,7,17,16,-1,-1,0,7
1499894151661834,2,-3,-4,29,6,2,1,-7
1499894151661834,-6,-6,-17,-16,-6,-1,-3,-10
1499894151668850,0,-2,12,-24,-6,-7,-3,-7
1499894151668850,-1,0,4,39,4,0,-2,5
1499894151675835,1,2,3,-23,-2,6,1,-11
1499894151675835,-5,-2,-18,43,3,-1,1,-11
1499894151691873,0,-2,9,-62,-5,-1,0,-1
1499894151691873,-5,-6,-10,9,-5,-6,-4,-5
1499894151693836,8,-2,7,-9,0,-2,1,18
1499894151693836,-1,0,-9,-6,-3,-1,-1,-12
1499894151713836,1,-2,5,12,3,0,0,9
1499894151713836,1,4,6,-26,-2,-1,1,7
1499894151715839,-3,-4,2,10,-2,-3,-1,-9
1499894151715839,0,0,13,17,3,-1,0,-9
1499894151728838,2,3,-1,-51,0,-2,-1,-1
1499894151728838,-2,2,-2,6,0,1,0,8
1499894151735857,-1,0,8,-43,-11,-4,0,9
1499894151735857,-30,-3,-4,-17,-1,-2,-5,-73
1499894151751907,10,1,1,42,1,2,1,0
1499894151751907,1,-5,3,-13,-1,-2,-3,-12
1499894151753853,0,-1,-13,41,5,1,2,-2
1499894151753853,-1,1,-17,-28,-2,0,0,18
1499894151773857,-10,-5,11,51,1,-3,-2,-6
1499894151773857,1,-4,-5,-8,-9,-1,-1,2
1499894151775842,0,2,5,1,3,-1,0,-29
1499894151775842,5,2,5,-15,-2,0,2,61
1499894151787845,-4,-4,-15,19,5,1,-1,-3
1499894151787845,6,3,17,8,0,3,0,11
1499894151796842,-7,-8,-23,-27,-4,-2,-5,-11
1499894151796842,-1,0,21,21,1,-2,0,4
1499894151811845,-6,-6,-28,-11,-7,-2,-1,4
1499894151811845,4,1,-13,9,1,0,2,-4
1499894151813843,-4,0,4,-30,-4,-2,-2,12
1499894151813843,3,3,17,5,0,-1,-3,-8
1499894151833844,3,6,16,55,6,0,-2,0
1499894151833844,-2,2,7,-63,-1,2,0,-5
1499894151835844,-7,-7,-18,68,-1,-2,-2,5
1499894151835844,7,-4,-13,-66,-5,-4,-2,5
1499894151847883,2,7,18,9,-1,-2,-1,12
1499894151847883,-5,-5,-19,-2,2,4,-1,-10
1499894151856848,-7,-3,5,-15,-1,-1,-1,-2
1499894151856848,5,-2,3,10,-2,0,2,10
1499894151871865,2,-3,-6,55,2,0,1,1
1499894151871865,2,2,0,-41,-9,-7,-3,1
1499894151873845,-6,-1,-1,-53,-2,-1,-2,12
1499894151873845,6,-2,-5,19,3,1,-1,-8
1499894151893904,2,-2,-7,-17,-2,-2,1,-10
1499894151893904,-1,-2,0,25,0,1,-2,7
1499894151895847,1,4,22,34,2,-3,-5,-3
1499894151895847,-8,-2,-15,9,-1,1,1,-10
1499894151907868,-4,-5,-6,-24,-5,-1,-2,-4
1499894151907868,-2,-1,-3,19,4,-2,3,22
1499894151916861,4,-2,-8,-41,-10,-5,-1,21
1499894151916861,-4,0,8,5,0,-3,-3,-16
1499894151931854,0,-4,-18,-40,-6,-5,-3,-5
1499894151931854,-1,4,13,33,0,-1,-2,-5
1499894151933850,-2,0,2,6,4,2,0,-6
1499894151933850,1,2,5,-8,-2,0,2,-2
1499894151953851,-7,-5,-32,-35,-4,1,-1,-2
1499894151953851,1,1,9,13,1,-3,-4,-2
1499894151955854,-1,5,1,74,10,1,3,-5
1499894151955854,8,-8,-9,-110,-12,-1,-4,0
1499894151967853,6,1,18,15,4,0,-1,-4
1499894151967853,1,-3,-15,2,-1,0,0,-4
1499894151976865,1,0,-1,8,0,-1,-3,-22
1499894151976865,-6,2,5,42,4,-2,-1,-5
1499894151991891,5,3,0,-38,-1,3,0,21
1499894151991891,-3,-6,8,38,-3,-3,-3,-39
1499894151993863,7,0,-5,18,1,0,-1,25
1499894151993863,-4,-1,1,-4,0,-1,0,2
1499894152013859,-3,0,1,-41,-8,-4,-5,-13
1499894152013859,1,-3,-8,-9,-2,-1,2,2
1499894152015854,-5,-2,-3,-13,-2,0,2,-4
1499894152015854,4,0,2,61,4,-2,-3,16
1499894152027857,0,-6,-2,-38,-7,-2,1,28
1499894152027857,-11,-1,-4,1,0,-3,-2,-37
1499894152036857,-3,1,7,-15,-1,5,1,-7
1499894152036857,2,5,11,23,1,2,0,-2
1499894152051898,-2,1,-7,42,4,0,0,11
1499894152051898,2,-4,-3,-42,-3,-1,-3,25
1499894152053866,6,5,10,57,1,-2,-2,4
1499894152053866,-3,-9,-15,-55,-7,-6,-3,14
1499894152073858,-4,-8,-5,-41,0,0,1,-5
1499894152073858,0,-2,-9,-15,-3,-3,-1,9
1499894152075858,1,-2,1,-9,2,0,0,-5
1499894152075858,-1,1,-1,7,0,1,4,2
1499894152087861,2,7,6,37,4,0,-2,-10
1499894152087861,-3,-3,-1,-16,-3,-1,-1,2
1499894152096858,-2,-3,8,10,1,-1,-3,-8
1499894152096858,-3,0,-10,-17,0,-1,-1,-2
1499894152111860,-1,-6,-9,17,-6,-1,1,-15
1499894152111860,4,5,19,-6,-3,-2,-2,1
1499894152113860,-2,-9,-55,-33,-7,-5,-4,-7
1499894152113860,-1,-1,3,33,1,-5,-2,-13
1499894152133864,4,2,0,16,5,7,1,13
1499894152133864,-1,-2,15,33,-1,1,-1,11
1499894152135864,5,-3,-4,-57,-7,-6,-2,8
1499894152135864,-5,2,-11,-4,-4,-2,-1,-13
1499894152147901,2,0,9,-2,5,-2,0,-21
1499894152147901,1,-1,-16,-1,-3,1,0,7
1499894152156867,1,2,17,52,2,-2,1,18
1499894152156867,-8,4,12,3,5,5,1,-10
1499894152171863,19,-5,9,-9,-3,-6,-1,-7
1499894152171863,-4,5,-16,-2,4,2,-2,-10
1499894152173863,-6,-6,-21,-31,-3,1,-1,-7
1499894152173863,1,-1,6,0,-3,-1,-1,6
1499894152194874,-11,5,14,15,2,1,-1,-40
1499894152194874,6,0,-11,41,3,-1,0,8
1499894152195868,-2,2,10,-96,-11,-5,-3,-9
1499894152195868,1,0,9,33,1,-1,0,6
1499894152216868,-10,-1,-7,-23,2,0,-1,-7
1499894152216868,0,-4,7,36,-3,-3,-2,-6
1499894152218877,-3,-1,-5,12,2,-2,-2,-2
1499894152218877,-3,-7,-16,-25,-4,2,-1,-3
1499894152231867,-3,5,10,15,0,-2,0,8
1499894152231867,3,-3,-12,-28,1,0,-2,2
1499894152233867,-7,1,7,39,3,-2,-1,-1
1499894152233867,-2,-5,1,-93,-6,0,-1,-17
1499894152253904,2,-1,-4,42,2,-3,-2,25
1499894152253904,-8,2,11,-13,-1,0,-1,-21
1499894152255869,3,-1,2,14,-1,-1,-2,-29
1499894152255869,3,2,-5,15,1,-3,-2,2
1499894152276882,-10,0,2,-18,-2,0,0,-24
1499894152276882,5,-7,-9,7,-4,-3,-1,32
1499894152278870,-13,5,5,69,8,1,-2,-36
1499894152278870,-9,-5,8,-67,-8,-3,-1,-6
1499894152291876,8,-8,-17,-43,-7,-3,-4,-9
1499894152291876,4,-3,0,-14,-3,-4,-2,1
1499894152293870,1,3,12,-2,2,3,3,21
1499894152293870,6,5,-18,32,1,-2,-1,6
1499894152313873,-4,-7,5,19,-3,-6,-1,8
1499894152313873,-12,-2,-3,-45,-5,-2,-1,-34
1499894152315872,8,-3,2,19,2,5,2,17
1499894152315872,0,2,13,10,-1,-1,-1,-7
1499894152336875,3,-4,-14,68,0,-5,-2,20
1499894152336875,-1,-3,-1,-62,-6,-3,-2,-7
1499894152338877,-10,0,-2,-25,-5,-2,0,-7
1499894152338877,8,-4,2,20,5,2,2,6
1499894152351893,-3,-2,-6,6,2,1,-2,0
1499894152351893,1,2,9,31,6,2,2,9
1499894152353876,-8,-5,-12,-48,-7,-3,-2,-4
1499894152353876,1,0,-1,56,1,-2,-1,8
1499894152373875,2,0,2,-64,-6,-1,1,0
1499894152373875,-8,-1,-3,-49,-1,-1,-1,-4
1499894152375875,1,-1,9,-3,1,0,-1,20
1499894152375875,4,-1,-12,35,0,-1,-1,-5
1499894152396876,-7,3,2,8,3,2,0,-7
1499894152396876,1,0,-3,25,0,-3,-1,5
1499894152398877,1,-3,7,24,-4,-3,-1,3
1499894152398877,-2,-1,-5,-33,-2,-1,-3,19
1499894152410877,-7,-4,-12,10,-1,1,-1,-2
1499894152410877,-4,0,-7,9,2,-1,-1,1
1499894152417930,2,1,0,-41,-2,4,1,9
1499894152417930,-4,-1,-2,36,-1,-4,0,-16
1499894152433879,-6,-1,9,-51,-1,0,-1,0
1499894152433879,4,-1,3,42,-4,-5,-4,2
1499894152435880,6,2,0,14,3,-1,-1,1
1499894152435880,-5,-7,-21,-68,-3,1,0,2
1499894152456941,4,1,10,48,-1,-2,-2,1
1499894152456941,-3,4,1,2,1,1,2,3
1499894152458895,-1,-1,7,44,0,-4,-4,-21
1499894152458895,1,-2,-6,-24,-5,-2,-3,12
1499894152470883,8,2,-1,-43,1,1,1,22
1499894152470883,-5,-3,3,10,-5,-3,1,6
1499894152477901,1,-1,-10,3,-1,-1,-2,2
1499894152477901,4,-2,-3,19,0,-3,0,-3
1499894152493908,-4,-1,5,14,3,2,1,-9
1499894152493908,-8,3,0,-15,-2,1,-3,-12
1499894152495882,5,-5,3,2,-3,-3,-4,1
1499894152495882,-3,4,-8,27,0,-4,-1,-4
1499894152515938,-2,1,9,-67,-8,-1,-2,-2
1499894152515938,0,-6,-21,-1,0,-2,1,-12
1499894152524884,0,2,-2,-4,-1,1,1,5
1499894152524884,-5,-2,-2,12,0,-1,-4,-14
1499894152530884,4,1,7,24,0,-1,0,4
1499894152530884,-4,-1,-6,-25,-3,2,-1,10
1499894152537924,3,0,-5,-6,1,-1,-1,3
1499894152537924,-4,-2,-4,3,-2,0,-1,-2
1499894152553923,-4,1,-5,8,0,-2,-1,-1
1499894152553923,9,-2,5,2,2,-1,1,27
1499894152555886,-7,-4,4,28,-2,-2,-3,3
1499894152555886,-1,2,9,-34,1,2,0,-7
1499894152576913,-12,-1,-10,22,0,-3,-2,-13
1499894152576913,5,-4,-8,-12,-6,-3,-4,-3
1499894152578887,1,0,-14,-14,0,0,0,-11
1499894152578887,0,-2,1,-12,-4,-3,-2,4
1499894152590947,0,-1,4,22,0,-2,-1,-2
1499894152590947,5,3,13,7,5,3,2,3
1499894152597932,-6,-6,-24,-5,-8,-2,0,-6
1499894152597932,-4,-1,30,26,0,-6,-4,4
1499894152614890,1,-2,-16,-30,0,2,-4,-32
1499894152614890,-4,-1,2,56,2,-3,-1,-15
1499894152616923,2,-1,-8,-33,-4,-4,-3,5
1499894152616923,0,1,15,12,3,4,3,13
1499894152636959,-17,4,-10,23,1,-3,0,-59
1499894152636959,-4,-5,10,-65,-5,-1,-2,23
1499894152638894,-6,0,6,43,1,1,0,-5
1499894152638894,4,-2,-5,-8,-1,-2,-2,-2
1499894152650901,3,-2,0,-14,-4,0,-1,19
1499894152650901,-1,1,-7,8,3,1,1,-14
1499894152665921,-1,1,-6,-26,-6,-4,-3,9
1499894152665921,-2,-2,3,-10,-1,0,0,-2
1499894152673895,4,-1,2,46,1,0,1,31
1499894152673895,-2,-4,-4,-6,1,1,0,-12
