timestamp,emg1,emg2,emg3,emg4,emg5,emg6,emg7,emg8
1499894028145399,-1,2,45,79,1,-4,-12,-82
1499894028145399,9,-5,-21,-3,-11,0,11,-10
1499894028147399,22,0,-20,-43,-7,-1,19,4
1499894028147399,7,-5,-5,32,-1,0,-2,-11
1499894028168400,-7,-2,12,-63,-5,-7,-9,-10
1499894028168400,-27,-5,-7,17,-8,-4,1,9
1499894028169401,2,3,14,3,7,-1,-19,-49
1499894028169401,10,4,-11,5,0,5,7,37
1499894028190403,-6,-9,-30,-91,-4,-1,4,7
1499894028190403,1,16,49,108,6,0,-9,-1
1499894028192402,3,-3,-9,-33,-1,1,3,-46
1499894028192402,-24,2,3,36,-3,-5,-6,-26
1499894028205402,11,-10,-16,-5,0,-2,-9,-16
1499894028205402,25,4,-3,-67,2,4,7,33
1499894028207416,-22,-6,17,18,-4,-3,-9,-32
1499894028207416,28,12,-16,-6,-6,-3,4,-23
1499894028228406,8,-6,7,-2,4,1,10,16
1499894028228406,1,0,-4,17,-7,-2,-1,-27
1499894028229405,19,5,-4,18,-1,-2,-21,68
1499894028229405,1,-9,-6,-17,2,2,6,-16
1499894028250404,14,10,-10,-63,-1,3,3,8
1499894028250404,-14,-2,24,39,0,0,3,40
1499894028252406,2,-1,-28,0,-5,-1,-6,3
1499894028252406,6,-4,32,92,5,-5,-9,-10
1499894028265406,-5,-2,-16,-36,-21,-3,2,-4
1499894028265406,-4,1,4,0,8,4,8,-18
1499894028267407,-9,-7,-11,66,3,0,-9,44
1499894028267407,-2,-2,-25,-119,-4,2,-2,-16
1499894028288408,-11,-10,5,127,-4,-11,-16,1
1499894028288408,-16,3,2,-128,-5,2,14,-27
1499894028291411,-30,-12,-23,25,-9,-7,-13,-30
1499894028291411,15,5,26,-51,10,1,-2,26
1499894028313408,3,7,5,-51,-4,-2,-6,1
1499894028313408,0,2,-2,34,5,3,2,-15
1499894028314409,5,5,9,-21,6,5,3,-26
1499894028314409,-17,-11,-13,-44,-15,-9,-1,-13
1499894028325410,43,16,47,103,8,9,21,66
1499894028325410,0,-21,-61,-93,-14,-12,-9,3
1499894028331429,-18,7,51,102,11,8,-9,30
1499894028331429,27,-7,-19,-85,-16,-4,-1,13
1499894028348420,3,-1,16,118,2,-6,-12,-11
1499894028348420,-6,11,6,22,7,3,10,8
1499894028349418,-26,-5,-1,-32,0,-1,-4,11
1499894028349418,-22,9,21,21,1,-1,-2,-24
1499894028370412,-4,-3,-2,6,9,4,5,47
1499894028370412,-7,2,14,43,-5,-6,-2,-29
1499894028372413,14,0,7,-11,2,0,3,21
1499894028372413,8,-1,-29,33,6,3,-1,40
1499894028385415,-27,-1,6,-9,5,2,-1,-71
1499894028385415,9,-5,-4,-26,2,-2,2,61
1499894028391415,-8,0,3,19,-24,-8,-2,-8
1499894028391415,20,-8,-19,-6,2,0,-12,36
1499894028408415,-13,8,-2,-18,3,3,15,-47
1499894028408415,-13,-16,-16,72,-3,-7,-6,-68
1499894028409415,22,-6,-19,-90,-3,-7,-8,-2
1499894028409415,1,5,56,37,8,3,-7,5
1499894028430416,-16,8,-45,23,3,6,7,61
1499894028430416,3,-6,25,-64,-24,-6,-5,4
1499894028432417,21,-2,-13,28,12,5,6,18
1499894028432417,-26,0,21,-26,-22,-13,-8,-99
1499894028445417,20,1,21,-12,7,1,-4,45
1499894028445417,-9,0,-23,-17,3,7,3,-46
1499894028451417,9,-7,15,-1,-8,-12,-4,0
1499894028451417,25,3,-15,-42,-1,3,3,41
1499894028468417,-11,-6,-6,-4,-3,-5,-1,-28
1499894028468417,4,-2,-5,66,-3,-2,-2,24
1499894028469418,11,7,31,18,7,2,0,-17
1499894028469418,-33,-3,-25,-42,-2,3,8,0
1499894028490420,-17,-15,-16,-5,-15,-7,-8,-34
1499894028490420,2,8,3,28,9,5,3,12
1499894028492419,14,2,-1,-9,6,3,-4,6
1499894028492419,-7,-8,1,52,-3,2,8,105
1499894028505419,1,-5,-23,-84,-7,-1,-7,-4
1499894028505419,-9,10,31,18,4,1,2,13
1499894028511421,15,-5,-21,-71,-8,0,5,47
1499894028511421,2,10,24,48,14,6,0,-5
1499894028528422,-8,-16,-17,-38,-10,-8,-4,-20
1499894028528422,-10,2,-11,-5,3,-1,0,17
1499894028529421,11,5,8,-40,2,2,-3,-9
1499894028529421,2,2,5,28,1,-2,1,-16
1499894028550421,7,0,20,-33,0,1,3,16
1499894028550421,-26,-6,-21,-8,0,-2,-5,10
1499894028552424,3,8,-3,1,1,0,-3,-47
1499894028552424,-8,-12,-21,-32,-15,-9,-7,-37
1499894028564423,12,0,-3,38,2,3,4,45
1499894028564423,7,8,17,-38,4,3,-3,-12
1499894028571423,4,0,20,99,-3,-3,2,23
1499894028571423,-7,-5,-49,-59,1,1,-9,6
1499894028588426,8,3,44,74,-5,-7,-7,-10
1499894028588426,-9,-3,-7,-32,2,0,3,-17
1499894028589426,-3,2,-5,41,-3,-2,-3,-22
1499894028589426,-11,-1,-12,-79,1,4,11,30
1499894028610426,-24,1,-6,9,1,0,2,-30
1499894028610426,37,-4,-16,21,-1,0,-2,28
1499894028612428,-34,5,37,29,6,2,3,-63
1499894028612428,-3,-7,-8,23,0,-4,-1,-9
1499894028625428,-7,0,-27,51,4,2,2,-23
1499894028625428,-3,-6,11,-55,-10,-8,-8,-35
1499894028631428,10,7,17,20,8,2,8,67
1499894028631428,-7,-2,0,6,-6,-3,-3,-76
1499894028648428,1,1,-38,-33,2,-1,-12,-70
1499894028648428,13,-1,3,47,1,0,2,-24
1499894028649429,-29,-8,-20,-67,-9,-7,-7,-34
1499894028649429,2,12,45,26,7,5,6,17
1499894028670428,25,-2,5,47,5,-1,-4,-3
1499894028670428,-34,0,-39,-66,-12,1,0,-51
1499894028672429,-17,-8,12,103,7,-1,-1,-3
1499894028672429,23,1,9,-49,-14,-5,1,-7
1499894028684431,-6,-4,-19,-24,-8,-4,-3,33
1499894028684431,7,2,22,22,4,2,5,43
1499894028693432,9,-6,-15,-23,-5,-3,-11,68
1499894028693432,18,0,-6,2,-2,-5,10,79
1499894028708431,-7,7,16,-9,8,9,7,30
1499894028708431,6,-4,-1,55,-11,-6,-9,20
1499894028709431,12,-5,-3,-77,-11,-5,-3,-3
1499894028709431,-3,1,2,45,5,-4,-4,11
1499894028729436,-1,-6,-16,-36,-5,-2,-1,45
1499894028729436,3,-2,4,37,10,2,2,-1
1499894028738433,19,2,-3,1,-1,0,-2,5
1499894028738433,-7,-1,-13,0,-5,-3,-6,-17
1499894028744434,9,5,26,29,3,1,2,20
1499894028744434,-27,-14,-28,-5,1,-2,-3,-33
1499894028753434,-8,-10,-33,-46,-7,-3,-2,-55
1499894028753434,15,6,10,9,4,3,-3,-10
1499894028768435,4,11,54,-43,0,-2,6,37
1499894028768435,7,-3,-39,14,-4,0,-3,-44
1499894028769435,9,-2,-4,22,1,1,5,89
1499894028769435,-39,0,28,16,7,1,-9,-99
1499894028790438,-21,-11,-65,10,-8,-7,1,-5
1499894028790438,10,6,29,-24,0,1,2,57
1499894028796440,-18,0,-18,-23,-3,-1,6,2
1499894028796440,-3,0,12,107,4,-1,-1,-10
1499894028804436,1,-3,-14,-88,-6,-3,-8,14
1499894028804436,-9,0,21,-15,-1,0,2,5
1499894028813447,0,5,14,64,9,2,-10,-45
1499894028813447,-12,-16,-28,53,-6,-5,-2,16
1499894028828438,6,0,4,-81,-7,-2,1,-33
1499894028828438,-14,1,7,11,0,-5,-5,-10
1499894028829439,15,3,18,-8,0,-1,2,20
1499894028829439,-12,-3,-34,-61,1,3,-2,23
1499894028850439,0,-11,-5,102,-9,-5,-2,6
1499894028850439,43,4,6,-102,-4,1,6,50
1499894028852439,-38,5,23,60,9,3,-4,-76
1499894028852439,7,-5,-3,45,-3,-5,-6,21
1499894028864442,-11,-3,-31,-23,-2,-1,2,5
1499894028864442,14,5,24,21,3,3,-4,-7
1499894028873451,12,-5,-11,-81,-4,-5,0,71
1499894028873451,7,-3,-12,11,-10,-4,-8,11
1499894028888442,-20,-3,24,29,1,-1,5,-37
1499894028888442,3,2,13,16,0,-1,-4,9
1499894028889442,-5,1,-18,-36,5,2,0,17
1499894028889442,-30,-4,10,24,-5,-4,6,-44
1499894028910444,17,9,22,25,2,0,-2,4
1499894028910444,-8,-11,-18,25,2,1,2,28
1499894028913445,7,-7,-27,-66,-14,-2,5,77
1499894028913445,22,9,27,36,14,5,5,24
1499894028924447,33,4,11,-33,4,3,-2,14
1499894028924447,-33,-6,-23,-50,-5,0,0,9
1499894028933445,-3,0,-3,41,-3,1,-1,-11
1499894028933445,12,6,9,-30,1,-1,-1,-37
1499894028948446,3,-4,-1,-5,1,0,-5,6
1499894028948446,15,-5,-22,46,11,3,3,-7
1499894028949446,11,5,4,-22,-16,-6,-16,-62
1499894028949446,-1,-13,-23,-72,-8,-1,8,36
1499894028970447,-14,11,0,46,10,3,3,-54
1499894028970447,-2,-5,-7,-15,1,-6,-4,-23
1499894028972447,-32,-7,-12,44,-4,-3,-5,-78
1499894028972447,-18,5,18,1,8,2,-2,0
1499894028984448,-11,-5,0,21,-5,-2,-10,-4
1499894028984448,-39,2,12,0,-3,-4,6,45
1499894029000448,28,2,5,-5,-1,0,1,25
1499894029000448,7,4,1,12,2,0,0,-9
1499894029008449,-17,-10,-15,-62,-6,-4,-1,-8
1499894029008449,7,0,15,84,2,0,-5,20
1499894029009449,-3,-3,6,-6,1,-1,0,-24
1499894029009449,3,0,-24,-10,-3,-1,-3,-7
1499894029030450,-10,4,23,2,5,2,-1,-32
1499894029030450,11,-3,-9,9,-11,-4,-5,-24
1499894029032451,-16,-2,21,-28,-1,-4,-2,-62
1499894029032451,-5,1,1,-8,3,2,-4,-19
1499894029044453,9,7,19,20,7,3,9,23
1499894029044453,-5,1,-1,-56,-7,-2,-3,-34
1499894029053451,1,-1,-18,-22,4,1,6,18
1499894029053451,9,2,32,42,0,0,-3,20
1499894029068452,-38,-15,-32,28,-11,-10,-14,-93
1499894029068452,18,-1,0,23,-3,-2,0,47
1499894029069453,8,-3,-11,-17,-1,-1,0,47
1499894029069453,0,5,16,19,4,0,-2,2
1499894029090454,3,-4,-7,-62,-6,0,6,113
1499894029090454,13,10,15,42,3,0,-8,10
1499894029092455,0,-6,-13,-22,3,2,0,18
1499894029092455,-21,-7,-35,22,-4,-2,2,-4
1499894029113456,17,0,-10,-67,-1,2,-1,39
1499894029113456,7,0,-7,46,2,-3,4,7
1499894029114456,13,7,19,19,5,3,3,12
1499894029114456,-1,-3,3,-18,-4,-3,3,9
1499894029128456,-1,-3,-3,22,2,1,-10,-27
1499894029128456,-9,3,-20,-53,-2,-2,0,6
1499894029129456,11,-4,-6,7,-10,-8,-2,5
1499894029129456,11,-2,-5,-31,-2,0,1,-4
1499894029150456,-4,-5,6,14,3,1,-1,-11
1499894029150456,-1,-4,-17,60,2,1,-2,-22
1499894029152458,43,12,26,-91,5,4,8,101
1499894029152458,-47,-17,-5,26,-11,-10,-9,-28
1499894029173470,14,2,25,12,-7,-6,0,7
1499894029173470,-6,-8,-12,-4,6,5,0,-23
1499894029174458,-23,-10,-3,-63,-8,-5,2,-17
1499894029174458,22,7,20,-15,8,6,-4,13
1499894029186461,7,5,-14,50,1,3,9,33
1499894029186461,-10,-4,17,-60,0,-2,0,-1
1499894029195461,3,1,-2,73,-8,-7,-10,-40
1499894029195461,-18,-3,-13,9,6,5,3,-19
1499894029210461,-4,-5,4,6,-6,-5,-7,-7
1499894029210461,18,4,18,8,-2,-1,6,47
1499894029212463,-36,-1,-11,15,3,-1,-7,-78
1499894029212463,16,4,-12,-29,-4,1,8,36
1499894029232463,-2,2,-4,33,4,0,-1,0
1499894029232463,-6,-7,0,-32,-4,0,4,60
1499894029233462,-30,-1,-3,-11,0,-2,-11,-71
1499894029233462,11,-4,-39,-3,-4,-4,0,20
1499894029246462,-3,-3,11,4,-1,1,1,-24
1499894029246462,-10,-3,9,43,-11,-9,-8,-17
1499894029254464,-4,-2,-18,-48,-2,1,8,30
1499894029254464,25,1,16,-16,0,1,-2,41
1499894029269465,-11,7,-34,18,9,3,-2,-8
1499894029269465,6,1,28,-60,-7,-2,-2,-22
1499894029270464,2,-5,4,61,3,-1,0,-15
1499894029270464,5,-6,-10,-2,3,0,-9,-22
1499894029292465,9,-2,19,-16,1,1,2,17
1499894029292465,12,1,-14,57,0,2,-5,9
1499894029293465,-3,2,-10,-33,-1,-1,-1,-47
1499894029293465,-3,1,21,-18,-7,-4,1,-15
1499894029306467,-8,-8,-23,12,-1,-5,-2,23
1499894029306467,-15,5,4,-14,3,2,-2,-1
1499894029314467,21,2,6,82,4,7,8,113
1499894029314467,-14,-8,-26,-52,-17,-9,-9,-88
1499894029329468,-9,3,21,-18,-2,-4,-4,-24
1499894029329468,4,1,7,20,8,1,1,-18
1499894029330468,2,-2,0,54,4,0,-1,36
1499894029330468,-12,5,14,-44,-2,1,2,-21
1499894029352469,6,-5,-4,22,-6,-1,-2,-23
1499894029352469,-5,-2,-18,-93,-12,-4,-1,-6
1499894029353471,1,2,2,25,8,4,4,-1
1499894029353471,14,-8,-4,49,-9,-10,-13,54
1499894029366471,-2,-2,8,-27,-3,-1,-1,-24
1499894029366471,-3,7,14,-20,4,0,2,-5
1499894029374469,-1,-7,-15,-1,-3,-1,-1,3
1499894029374469,-1,3,-6,-17,2,0,4,11
1499894029389471,-8,-1,-18,-24,-4,0,-1,12
1499894029389471,-4,-5,-28,8,-1,-3,-4,-25
1499894029390471,-5,0,13,33,0,0,1,28
1499894029390471,16,12,27,-4,1,1,-4,-47
1499894029412477,-1,-6,3,-33,-3,-2,0,-19
1499894029412477,-4,0,-2,-8,3,2,3,-21
1499894029413476,-5,-9,-20,51,-8,-5,-3,-2
1499894029413476,-1,-1,-11,-50,6,4,3,-11
1499894029426474,-5,6,6,-11,-1,-1,0,7
1499894029426474,0,-3,2,17,0,0,-6,-11
1499894029434474,-3,-2,-6,-54,0,0,-2,9
1499894029434474,-3,-3,-12,28,-9,-2,-2,17
1499894029449473,-2,-5,0,52,5,3,3,7
1499894029449473,-2,-2,0,-53,-6,-5,-2,-14
1499894029450474,0,1,7,56,5,-3,-5,-13
1499894029450474,-7,0,1,-41,-2,2,-7,-76
1499894029472475,0,7,6,-42,-3,-1,1,-12
1499894029472475,4,-10,-19,101,2,-1,-1,36
1499894029473481,-7,6,12,-92,-3,0,-2,-23
1499894029473481,-6,-5,5,35,-1,-5,0,43
1499894029486477,-10,-3,-1,-30,-5,-3,-2,-4
1499894029486477,-12,-9,-17,10,4,5,1,-65
1499894029495493,19,5,7,-2,1,-1,-2,25
1499894029495493,-3,0,-3,42,6,4,6,83
1499894029509477,5,-4,-18,-52,1,2,0,-15
1499894029509477,2,-3,15,30,-8,-9,-6,16
1499894029511478,15,3,5,-9,1,-2,-1,-46
1499894029511478,-21,-7,0,21,0,-1,2,-15
1499894029532479,-22,6,13,39,6,-2,-6,-34
1499894029532479,-13,-4,-26,31,2,0,-3,-30
1499894029533480,1,-4,9,-99,-18,-6,0,20
1499894029533480,16,10,2,34,7,2,6,33
1499894029546480,0,-3,-5,8,-2,-3,-3,0
1499894029546480,-1,3,7,-17,1,-3,0,-7
1499894029554481,-16,-4,-14,26,0,0,-1,-34
1499894029554481,4,0,3,-15,0,-1,1,14
1499894029569481,1,-4,-21,-8,0,0,-2,-40
1499894029569481,15,11,28,4,4,2,3,49
1499894029570481,-1,-8,15,54,-5,-4,-3,-3
1499894029570481,-3,-5,-13,33,1,-3,-1,-6
1499894029592485,-7,0,8,-72,-5,1,-1,6
1499894029592485,23,2,-50,-34,0,4,11,24
1499894029599483,-11,-3,31,39,-5,-3,-8,-9
1499894029599483,8,0,-2,17,0,0,-2,59
1499894029606489,0,2,21,39,-2,-3,-5,13
1499894029606489,-2,3,13,-23,-4,-3,-2,-17
1499894029614486,-9,-2,-27,-5,5,3,3,7
1499894029614486,3,2,12,-12,-1,3,2,41
1499894029629485,16,-9,-28,0,-13,-6,0,35
1499894029629485,-10,1,18,-27,-3,-1,-5,-5
1499894029631486,-3,-2,-25,-7,2,1,6,22
1499894029631486,-7,-3,-3,63,4,-3,-7,-49
1499894029652486,35,5,1,-15,3,2,3,31
1499894029652486,0,-5,7,-14,-9,0,0,-14
1499894029653487,-8,0,-8,-12,3,-2,-5,-35
1499894029653487,-6,1,1,-1,-2,-1,2,-27
1499894029675487,3,5,12,-4,1,-1,0,16
1499894029675487,-5,-8,-5,51,2,0,-1,55
1499894029676489,6,4,12,19,-2,0,0,11
1499894029676489,0,-2,-37,-61,-2,-1,-2,-25
1499894029690502,-6,-9,2,41,1,-1,-3,-17
1499894029690502,-8,8,38,-12,6,-1,-1,-16
1499894029690502,2,-3,-30,-29,-8,-3,-4,17
1499894029690502,4,-1,-3,33,2,-3,-3,-16
1499894029712490,-6,7,14,-56,0,0,3,20
1499894029712490,-1,-7,-31,24,-6,-4,-5,-15
1499894029713489,3,3,47,8,1,-1,-2,-13
1499894029713489,-5,-5,-12,-33,-3,0,1,13
1499894029726490,-11,0,-5,22,3,-1,-4,-22
1499894029726490,-16,-3,-8,-49,-2,-1,-6,-61
1499894029734494,9,-7,-18,30,-2,-1,-1,-36
1499894029734494,-6,-2,5,-15,-1,-2,6,-52
1499894029749492,13,-4,12,65,1,0,-7,32
1499894029749492,-5,1,-3,-58,-8,-2,-2,5
1499894029750491,-12,4,5,73,-3,3,1,18
1499894029750491,9,-8,-1,-28,-10,-7,-5,21
1499894029772493,3,-7,-17,50,3,-2,0,5
1499894029772493,1,5,32,6,2,-2,-1,-17
1499894029773501,3,-4,-30,-40,4,2,0,29
1499894029773501,-4,-1,-6,-31,-3,0,1,10
1499894029786494,-19,-5,-8,-32,-7,-3,-3,-65
1499894029786494,0,0,-3,56,2,-1,0,32
1499894029794499,3,10,10,-72,-1,1,4,-6
1499894029794499,-15,-4,-16,75,4,1,-7,-61
1499894029809495,20,-3,13,-12,-3,-5,0,52
1499894029809495,-9,3,12,-39,-3,0,6,-17
1499894029811496,1,3,23,75,4,1,-10,8
1499894029811496,-4,-5,-13,-36,-5,-4,-4,18
1499894029832498,-6,1,-15,-6,4,1,2,4
1499894029832498,-1,-10,-11,-11,-10,-3,0,-12
1499894029833497,11,-6,-3,27,6,3,1,19
1499894029833497,-5,8,11,5,-3,-2,-4,-7
1499894029846501,-16,3,14,25,2,0,-5,-18
1499894029846501,13,-8,-25,-33,-7,-3,3,-1
1499894029854497,9,-2,-19,-14,-4,-4,3,36
1499894029854497,1,1,27,-59,1,3,3,9
1499894029869499,-2,-14,-27,61,-6,-4,-2,-32
1499894029869499,-1,5,10,27,9,2,-3,0
1499894029870498,-12,2,3,-21,-2,-1,-3,-18
1499894029870498,5,-6,27,74,0,-3,-1,-2
1499894029892501,0,6,-8,-32,0,2,3,17
1499894029892501,-3,-1,-5,-14,-1,-1,-2,10
1499894029893501,-10,-1,8,2,-1,-2,0,-20
1499894029893501,3,2,4,-6,0,-2,5,22
1499894029906504,-19,-3,-21,13,-1,0,-4,30
1499894029906504,23,-5,1,28,-3,-1,-2,6
1499894029915509,-8,1,-1,-103,-8,-3,0,-34
1499894029915509,-8,2,6,1,1,2,-2,-24
1499894029929501,-5,5,12,-42,1,4,7,32
1499894029929501,6,-8,-34,78,1,-1,-1,74
1499894029930501,-12,-2,3,32,3,-1,-2,-36
1499894029930501,7,-3,-6,17,0,-1,-4,60
1499894029952502,27,4,13,-54,-6,-2,2,31
1499894029952502,-26,5,25,12,7,3,-4,-49
1499894029953505,-2,0,-12,-73,-2,2,1,-10
1499894029953505,0,-12,-26,-2,-5,-2,-1,17
1499894029966505,5,4,21,37,6,3,2,-15
1499894029966505,7,2,7,-1,2,0,-1,3
1499894029974504,-14,-2,-6,5,5,1,-4,-23
1499894029974504,-9,0,-5,38,1,1,9,-46
1499894029989507,4,-1,-3,4,-3,-4,-5,-6
1499894029989507,-7,-3,-2,-20,-3,-2,1,18
1499894029990506,2,-4,-23,11,-2,-5,-7,-23
1499894029990506,6,9,22,-29,-4,1,-1,6
1499894030012528,-12,-16,-34,16,-1,0,-1,-13
1499894030012528,23,10,29,-33,1,3,8,67
1499894030013508,-14,-6,-41,-23,1,-1,3,-37
1499894030013508,16,5,41,40,1,-2,-4,1
1499894030035509,-4,5,7,-9,-4,-5,-4,-17
1499894030035509,2,0,7,77,11,4,0,-22
1499894030036508,3,0,5,-107,-6,3,2,29
1499894030036508,-6,-8,-25,55,-3,-3,-4,-10
1499894030049508,10,0,3,-13,-4,-1,-6,1
1499894030049508,-12,-4,-4,-16,-7,-7,-2,-34
1499894030050509,8,3,14,34,2,1,4,20
1499894030050509,-3,-2,-11,-41,-2,0,-3,7
1499894030072512,-6,-1,5,6,1,0,0,13
1499894030072512,-7,1,-6,47,2,1,-6,-94
1499894030073528,10,-6,-24,-66,-5,-5,6,32
1499894030073528,43,1,9,23,-7,-2,-2,60
1499894030095510,-33,10,15,25,8,3,-3,-103
1499894030095510,-8,-17,-55,-31,-8,-5,-5,12
1499894030096513,2,-1,14,64,4,0,1,-4
1499894030096513,-8,-1,1,-48,0,0,-1,-6
1499894030109513,14,0,-13,-23,2,1,4,23
1499894030109513,-8,6,7,-18,1,4,3,8
1499894030110513,-3,-7,0,-8,-8,-6,-11,-29
1499894030110513,-7,-2,0,5,1,-2,-2,-7
1499894030132513,12,-1,0,33,0,0,-1,-47
1499894030132513,-8,5,17,-35,-3,1,-2,-3
1499894030133515,5,0,3,11,1,1,-2,11
1499894030133515,-12,-9,-10,-24,-5,-5,-2,-20
1499894030155514,-2,0,-11,-1,3,-1,2,14
1499894030155514,3,-4,-12,0,-3,0,5,8
1499894030156515,1,10,31,52,4,0,-9,6
1499894030156515,-12,3,7,-13,5,0,0,-21
1499894030169516,7,-12,-13,18,-3,0,2,48
1499894030169516,-4,2,9,-58,1,0,-2,6
1499894030170518,-9,-4,-8,61,-2,-3,-1,9
1499894030170518,-5,4,-1,-38,5,2,-1,-44
1499894030192518,12,-5,-29,28,-6,-3,-1,71
1499894030192518,-12,1,30,42,2,0,0,-47
1499894030193518,16,-3,-33,-61,-7,-3,-1,45
1499894030193518,-4,1,10,1,2,-1,-6,11
1499894030215519,4,-1,12,-18,4,1,0,-56
1499894030215519,-12,-2,-26,-45,-12,-4,-5,-23
1499894030216519,5,5,33,36,2,0,-2,-20
1499894030216519,-9,-6,-23,-30,-1,1,3,-14
1499894030229519,-23,-7,4,7,-3,-2,-4,-12
1499894030229519,7,2,11,58,2,-2,-1,23
1499894030230520,2,-5,-18,-37,-8,-4,2,-1
1499894030230520,19,8,-1,-47,4,3,2,41
1499894030252521,-10,-4,7,18,-2,-6,-1,-18
1499894030252521,3,2,2,-24,-1,1,-2,-3
1499894030253521,-15,-5,1,72,6,2,1,-1
1499894030253521,4,4,-1,0,0,1,3,55
1499894030275526,4,-1,-12,-90,-8,-3,-3,14
1499894030275526,6,-3,7,31,-3,-3,0,16
1499894030276524,3,0,13,37,0,1,1,15
1499894030276524,-4,-3,-18,14,-2,1,-2,9
1499894030290525,2,8,25,6,5,4,2,1
1499894030290525,2,0,-20,-24,3,-1,-2,-37
1499894030290525,-3,-8,-7,-47,-11,-3,-1,-8
1499894030290525,-12,-8,-7,3,-2,-2,-3,-4
1499894030312525,0,3,15,2,-3,-2,-3,8
1499894030312525,12,3,13,30,6,2,1,13
1499894030313525,-3,1,9,63,-1,0,-2,-13
1499894030313525,-10,-7,-1,-26,-8,-6,-1,48
1499894030335528,10,1,0,6,-4,-3,-5,-22
1499894030335528,-14,-1,3,-6,-1,5,2,-13
1499894030336526,-1,-2,-2,13,1,-4,-2,8
1499894030336526,-2,-3,-17,-9,-3,-1,-1,-7
1499894030349526,-4,-1,-3,25,2,1,1,10
1499894030349526,-1,0,-2,-24,-5,-3,-4,-3
1499894030350527,9,6,-6,-15,1,1,-3,43
1499894030350527,11,0,20,19,5,1,2,-47
1499894030372528,-12,-8,-23,13,-10,-6,-3,-12
1499894030372528,19,-3,-16,-12,-2,-4,-2,6
1499894030373537,-12,-5,-3,-4,2,3,4,14
1499894030373537,5,3,-11,-1,-6,-1,-2,8
1499894030403530,-3,3,2,-8,6,5,-1,2
1499894030403530,6,0,9,-12,1,-2,2,35
1499894030403530,-4,-3,-7,-5,10,5,1,-15
1499894030403530,-17,-9,-1,72,-11,-10,-7,-33
1499894030409530,12,6,15,-66,-12,-4,-1,14
1499894030409530,-14,-14,-44,20,-3,-3,-7,-13
1499894030410530,0,7,17,10,0,-2,0,-4
1499894030410530,-12,4,1,15,7,3,0,-29
1499894030432532,-6,-2,-11,-71,0,1,1,71
1499894030432532,7,-3,-1,48,-3,-7,-1,30
1499894030433532,4,1,7,-11,0,-4,-7,-59
1499894030433532,-7,-1,-14,-17,-2,-1,-4,1
1499894030455533,2,1,22,77,6,-2,2,16
1499894030455533,-9,-3,-8,-38,-1,3,-1,-12
1499894030456535,5,-1,-6,-11,-4,-4,1,12
1499894030456535,1,-3,2,-12,2,1,1,-25
1499894030469534,-20,-5,22,29,0,0,-3,-41
1499894030469534,-4,4,-6,18,4,-3,-1,7
1499894030477538,-4,-6,4,-26,-7,-1,-2,-47
1499894030477538,0,-7,-30,-14,-3,-1,-4,-2
1499894030492535,0,0,-4,-13,0,1,1,-3
1499894030492535,-4,-1,4,-27,-1,0,-3,-23
1499894030493535,14,7,28,13,0,-3,4,20
1499894030493535,-5,-1,-7,-28,3,0,-3,6
1499894030515538,-10,-10,-21,73,-3,-3,-4,-33
1499894030515538,6,3,14,9,-1,-2,-2,-7
1499894030516537,-1,0,-13,-33,1,0,1,13
1499894030516537,11,4,23,-27,-2,0,-1,16
1499894030529538,-2,-3,-22,-12,-3,-3,-4,2
1499894030529538,-7,-1,4,-2,-2,-3,1,7
1499894030530537,0,-10,-14,24,5,5,-1,16
1499894030530537,-21,4,11,30,0,0,0,-55
1499894030560539,11,0,-5,-17,-1,-2,-4,25
1499894030560539,18,5,19,-13,4,-1,1,9
1499894030561540,-2,-8,-22,-17,-4,2,0,45
1499894030561540,-1,-1,12,0,0,-3,-2,-22
1499894030574540,7,7,14,18,3,0,2,41
1499894030574540,-11,-6,-20,-41,-4,-3,-2,6
1499894030575539,-19,5,22,64,2,-1,0,-46
1499894030575539,8,-9,-10,-34,-7,-2,1,14
1499894030589540,-3,-3,1,16,3,-1,-3,-39
1499894030589540,6,5,18,-16,0,4,-3,19
1499894030590539,-6,0,1,-3,-4,-4,5,-19
1499894030590539,2,-6,-34,16,0,0,0,16
1499894030612550,1,-1,-3,-29,-2,1,1,-16
1499894030612550,-7,0,7,28,1,0,-1,9
1499894030613546,11,-5,-10,-24,-8,-4,-3,23
1499894030613546,-4,4,16,-2,-2,-5,0,-12
1499894030634544,11,-3,-11,-47,-1,4,2,7
1499894030634544,-9,0,1,37,3,3,-1,1
1499894030635544,3,1,-7,0,-6,-5,-6,35
1499894030635544,8,-2,3,24,1,-2,2,32
1499894030649546,-1,4,22,-5,2,-2,-4,-13
1499894030649546,3,-2,0,20,-1,1,2,4
1499894030657560,-20,-11,-17,-10,-3,-3,-1,-13
1499894030657560,0,10,19,38,3,5,-3,-25
1499894030672546,0,3,17,33,1,0,2,28
1499894030672546,-4,-3,-13,-57,-8,-4,-3,-52
1499894030673556,2,-8,-7,-24,2,-1,-1,12
1499894030673556,-1,-5,-20,0,-2,-3,-2,-21
1499894030694547,-7,6,8,19,0,0,-2,-20
1499894030694547,7,-2,-1,45,-1,-3,4,23
1499894030695546,-6,-4,-24,-80,-1,-1,-9,-6
1499894030695546,12,3,5,1,-3,-4,-4,-22
1499894030709548,-1,-8,-10,-19,-7,0,2,0
1499894030709548,-9,-2,-2,10,-1,-3,-1,-40
1499894030717547,3,7,7,26,7,6,4,24
1499894030717547,-9,0,17,49,1,-1,-1,12
1499894030732549,-5,-8,-28,-105,-5,-4,-1,-8
1499894030732549,-3,-11,-36,-44,-7,-3,-5,-2
1499894030732549,-2,5,28,44,-5,-2,-1,-10
1499894030732549,3,3,-5,-59,-1,0,-1,24
1499894030754549,-17,2,10,77,3,2,1,-13
1499894030754549,21,3,-6,-6,7,3,-1,6
1499894030755550,28,-3,-7,2,-4,-5,-3,45
1499894030755550,-14,4,24,23,2,1,4,-3
1499894030769551,0,-2,-19,-20,1,-2,1,13
1499894030769551,-8,-3,-7,-61,-14,-5,-5,5
1499894030777551,0,4,-12,9,4,0,1,-32
1499894030777551,2,2,17,-9,1,1,-1,-1
1499894030792552,-2,-5,-8,13,3,-1,-3,28
1499894030792552,-7,4,20,-5,0,1,1,5
1499894030793553,-1,2,-25,29,-1,2,3,11
1499894030793553,14,3,15,-74,0,-6,3,-20
1499894030814559,-2,-10,-15,51,-3,-3,-14,2
1499894030814559,-16,-2,-3,-8,-5,-3,-2,-14
1499894030815553,-6,3,11,24,1,0,0,-40
1499894030815553,7,-5,-12,-23,-5,0,1,29
1499894030829554,5,5,12,-21,-2,-2,2,-13
1499894030829554,7,-9,-13,18,3,-2,-1,0
1499894030837554,-18,3,14,24,-3,-3,-3,19
1499894030837554,0,-6,-17,-4,0,1,-2,-2
1499894030852555,12,0,14,28,-3,-1,1,-11
1499894030852555,-1,1,2,-2,2,1,-1,-2
1499894030852555,-5,-1,7,56,5,0,-1,-11
1499894030852555,1,-5,-26,-89,-8,-2,-3,22
1499894030874557,-14,2,-23,-20,3,3,3,-23
1499894030874557,4,3,18,43,-1,1,3,34
1499894030875557,17,-11,-17,-14,-5,-7,-10,-9
1499894030875557,-17,0,-3,15,-3,-1,-1,-11
1499894030889557,-9,-1,17,0,2,2,-2,-20
1499894030889557,1,1,-6,-4,0,-2,0,0
1499894030897558,-5,-9,-4,-27,-6,-2,0,-4
1499894030897558,-9,3,9,25,5,2,-2,-28
1499894030912560,7,0,-8,-3,-5,-6,-1,-10
1499894030912560,0,1,15,20,3,-1,1,-2
1499894030913560,-11,-1,-6,14,2,5,2,-21
1499894030913560,6,-3,-1,29,-9,-4,1,45
1499894030934565,16,1,8,-2,0,-2,-2,19
1499894030934565,-6,-1,0,-9,-3,-4,-1,-11
1499894030935568,4,-1,5,7,1,-2,4,33
1499894030935568,-10,1,10,43,7,3,-7,4
1499894030949560,-10,-5,-21,-87,-13,-5,-4,-13
1499894030949560,-6,-4,-5,24,3,3,1,6
1499894030957562,5,3,0,-68,-5,-5,0,15
1499894030957562,0,-7,5,91,2,2,-1,-22
1499894030972563,-9,0,-22,-52,-1,0,3,0
1499894030972563,5,5,12,-14,-1,0,-1,31
1499894030973564,-9,-2,-23,-4,0,1,0,-4
1499894030973564,13,-3,-1,-8,0,-3,0,5
1499894030994564,-4,3,17,-27,2,0,-1,-9
1499894030994564,-4,-3,-10,-18,0,2,0,3
1499894030995564,-5,-4,-8,46,-8,-5,-6,-7
1499894030995564,8,1,23,-20,1,1,1,8
1499894031018566,3,-6,-17,54,2,-1,0,1
1499894031018566,-5,6,9,-65,-1,1,-1,-24
1499894031018566,5,3,16,4,3,-1,0,-6
1499894031018566,-9,-5,-33,-15,-3,-1,-1,-9
1499894031032567,0,4,28,52,2,3,2,-1
1499894031032567,-12,-8,-18,-16,-7,-3,-4,-36
1499894031033565,-1,2,6,1,1,1,-1,-9
1499894031033565,5,-1,-4,-10,-3,-1,-2,-7
1499894031054567,9,5,16,8,4,-2,0,8
1499894031054567,3,-4,-4,18,-1,-2,0,9
1499894031055568,-1,0,15,-1,0,1,-1,-29
1499894031055568,-17,1,11,-2,2,-2,1,8
1499894031078569,35,-3,-15,-52,-6,-2,3,78
1499894031078569,-31,-8,1,42,1,-3,-13,-26
1499894031078569,7,3,-12,-11,2,0,1,-3
1499894031078569,3,5,24,19,1,3,3,64
1499894031092571,-5,-2,-18,0,0,-2,-5,-19
1499894031092571,10,-1,7,8,-2,-1,5,17
1499894031093570,-13,-6,2,-3,1,-4,-4,-14
1499894031093570,-2,-3,-11,-33,-2,0,-4,-4
1499894031123585,-5,-2,-11,-19,-2,0,0,-7
1499894031123585,6,-1,-34,22,-3,-3,0,6
1499894031123585,-6,1,21,-45,-5,-4,-2,-8
1499894031123585,4,-7,-38,6,-2,0,0,-20
1499894031137572,-5,3,20,10,0,0,0,-1
1499894031137572,3,-3,-4,-13,-1,0,1,-5
1499894031138572,-5,6,6,25,2,1,0,-13
1499894031138572,-1,-2,-5,-25,-3,-6,-2,-12
1499894031152574,-3,-5,-3,21,2,0,-1,-5
1499894031152574,8,3,-13,-1,-4,-2,-1,25
1499894031152574,-1,0,-8,-35,-3,1,2,-1
1499894031152574,7,2,17,-22,2,1,-1,-9
1499894031174574,-8,-5,-26,71,-5,-2,-1,-38
1499894031174574,7,1,8,12,6,2,-3,-20
1499894031175574,7,-2,3,-34,-4,-3,-4,-1
1499894031175574,6,-6,-22,13,-3,-3,-2,-21
1499894031198576,-19,2,24,-6,2,0,-4,-11
1499894031198576,-5,-1,3,-50,-8,-2,-2,13
1499894031198576,12,-1,10,0,-2,-2,8,6
1499894031198576,-2,1,11,25,2,1,-7,11
1499894031212579,5,2,5,-12,-3,0,3,9
1499894031212579,-9,2,9,25,6,2,0,-40
1499894031213579,-22,-11,-35,-24,-9,-4,-5,-8
1499894031213579,1,-1,7,39,0,-4,2,0
1499894031234578,-5,-5,-12,-6,-2,-5,-2,-6
1499894031234578,6,4,13,-27,-2,1,0,21
1499894031235578,2,3,15,34,7,2,-1,-10
1499894031235578,-5,-6,-24,-3,-6,-3,-1,0
1499894031257579,-5,-1,11,19,2,1,-3,-8
1499894031257579,1,2,-18,-40,-1,0,2,6
1499894031258579,3,0,17,42,1,-1,-3,6
1499894031258579,12,-5,-7,-32,-4,-4,1,31
1499894031272580,-6,-2,18,25,-2,-2,-2,-38
1499894031272580,0,-5,-16,2,1,-3,1,20
1499894031273589,3,6,7,9,3,3,0,-5
1499894031273589,-17,-1,-18,-21,-4,-2,0,0
1499894031294582,16,-3,-22,-3,5,2,1,31
1499894031294582,4,6,28,37,-3,-2,0,3
1499894031295581,-2,-1,1,-21,-6,-2,0,-9
1499894031295581,-23,-1,-3,51,-2,-3,-5,-31
1499894031325583,0,0,-11,-42,-4,-2,-2,4
1499894031325583,-3,-2,-11,17,1,0,0,-16
1499894031326583,-6,3,5,-1,3,2,2,6
1499894031326583,19,-2,1,-53,-2,0,-1,-13
1499894031332583,-5,2,-4,34,-1,-1,1,5
1499894031332583,-10,0,22,28,-1,-4,-1,-18
1499894031333583,19,-2,-9,-7,-4,-3,-6,-27
1499894031333583,-4,1,5,-3,-4,0,1,10
1499894031354584,-2,-10,-3,-24,-1,-4,-6,7
1499894031354584,-1,-6,8,-10,-2,-4,-1,-3
1499894031355584,-11,-3,-27,38,1,3,-1,16
1499894031355584,4,2,6,-1,1,-1,-2,27
1499894031377586,6,1,6,15,-3,0,-1,-5
1499894031377586,0,-2,-11,36,3,1,-1,3
1499894031378586,-4,-3,16,-88,-4,-2,0,4
1499894031378586,6,6,12,38,1,-1,-1,-3
1499894031392587,-12,-8,-5,-25,-5,-2,1,14
1499894031392587,-3,-3,2,4,0,-2,-2,-16
1499894031392587,6,3,3,11,2,-1,0,9
1499894031392587,0,-3,-7,-10,2,1,0,-17
1499894031414593,-9,4,8,-16,-3,-3,-4,5
1499894031414593,2,-5,-27,-4,1,0,-1,-1
1499894031415588,-4,-2,18,73,6,1,1,-45
1499894031415588,-7,2,3,-70,-7,-4,2,49
1499894031437589,-18,1,-6,22,1,-2,-4,-33
1499894031437589,9,4,14,-8,1,0,-2,12
1499894031438589,-5,-2,-2,-4,-2,1,-1,23
1499894031438589,2,-4,-12,34,8,2,2,-2
1499894031452590,-6,-1,2,-10,-5,-2,1,2
1499894031452590,7,1,12,-10,-6,-6,-4,-10
1499894031452590,4,-2,-11,-10,-2,1,-2,8
1499894031452590,-10,4,-6,64,5,3,-1,-22
1499894031474592,7,2,-8,-78,-4,0,2,6
1499894031474592,-3,-5,13,9,-1,0,1,15
1499894031475591,-4,-9,-57,0,-2,-6,-2,12
1499894031475591,-2,-2,20,-13,0,0,-1,-31
1499894031497594,-8,-3,-21,0,0,0,-2,-27
1499894031497594,-1,3,8,-1,-4,-3,-3,4
1499894031498592,-14,5,24,-6,0,0,3,-33
1499894031498592,-7,-6,-40,-20,-4,-3,-6,-18
1499894031512594,7,1,24,-14,0,-2,0,-9
1499894031512594,-7,-2,7,-10,-1,2,1,-3
1499894031513601,1,-6,-12,-2,-10,-2,-3,-7
1499894031513601,-2,3,18,11,2,0,0,-13
1499894031534596,13,1,3,12,1,3,3,85
1499894031534596,-8,-1,-16,25,1,-2,-5,-30
1499894031535595,9,0,4,-21,-3,-5,-2,57
1499894031535595,0,-3,11,-15,-1,-1,-1,21
1499894031557596,0,3,-13,43,1,-1,-3,-15
1499894031557596,4,0,-20,-30,0,-2,2,-4
1499894031558596,4,7,26,85,9,7,2,-16
1499894031558596,-13,-10,-1,-71,-9,-4,-4,-42
1499894031572597,6,-3,-13,45,3,-2,2,-11
1499894031572597,-7,-4,-5,-54,-5,-1,-1,7
1499894031573602,3,3,12,-12,3,-1,0,6
1499894031573602,20,6,23,74,5,0,-4,-1
1499894031594602,-16,2,-9,-11,-1,0,-1,-10
1499894031594602,-1,-5,-14,-6,-2,-2,-2,-16
1499894031595601,0,-2,3,2,0,0,-2,16
1499894031595601,-2,2,8,-18,-1,0,1,5
1499894031617600,2,-3,1,65,2,-3,-1,-5
1499894031617600,2,3,9,-83,-4,4,0,15
1499894031618600,9,-7,-26,-19,-7,-4,-4,4
1499894031618600,-13,1,-3,8,0,-3,0,-39
1499894031631601,-4,1,11,-5,-3,0,-3,-27
1499894031631601,10,2,-8,34,2,2,2,-7
1499894031640605,-3,2,17,-13,0,2,2,5
1499894031640605,2,-6,-34,-22,-5,-1,0,16
1499894031654602,5,-1,1,-6,-1,0,-2,2
1499894031654602,-2,0,17,28,1,0,4,13
1499894031655601,-9,-1,-13,-11,-12,-6,-5,16
1499894031655601,-7,-6,17,28,3,2,3,-25
1499894031685604,2,-1,-2,-9,2,-5,-1,-6
1499894031685604,-12,-2,4,39,1,-1,0,-15
1499894031686605,-1,-1,-2,-43,1,-2,-3,-26
1499894031686605,-4,5,14,24,2,1,1,2
1499894031691604,6,-9,3,-6,-7,-4,-1,9
1499894031691604,-15,1,-20,-46,2,-1,0,20
1499894031699605,3,-6,-27,-37,4,-1,-5,-74
1499894031699605,-6,5,20,75,3,-2,0,14
1499894031714606,-1,-9,-3,-12,-5,-1,-1,-10
1499894031714606,13,5,4,16,0,0,2,27
1499894031715605,-4,0,0,16,-1,-2,1,20
1499894031715605,9,-4,-29,-26,-5,-5,-1,13
1499894031737606,3,2,-3,-2,4,4,0,-8
1499894031737606,0,-6,-2,-2,-3,0,0,-10
1499894031738606,1,1,3,17,-2,0,0,26
1499894031738606,5,-10,-20,-4,-6,-4,-5,1
1499894031760610,-3,3,15,-48,-1,-1,1,16
1499894031760610,10,5,5,60,0,-6,-1,13
1499894031761608,-7,-8,-31,-65,-2,0,-2,0
1499894031761608,-4,4,13,-1,2,1,-3,-33
1499894031774609,-3,2,3,-14,2,3,0,-19
1499894031774609,-22,-5,9,-32,-12,-6,-4,14
1499894031775609,0,2,16,45,0,-3,-1,16
1499894031775609,2,2,-12,-12,2,1,2,-40
1499894031797610,5,-2,-7,12,-5,0,-2,-20
1499894031797610,-22,-6,-1,-13,0,-2,-2,-8
1499894031798611,13,-2,4,34,1,0,0,11
1499894031798611,-6,-9,-21,0,-6,-6,-2,30
1499894031811612,0,5,26,2,2,5,1,7
1499894031811612,2,-1,-26,5,2,0,-3,-26
1499894031819612,-6,-5,-6,8,-2,-4,-1,1
1499894031819612,22,4,6,-20,1,0,-2,23
1499894031835614,22,1,10,43,0,-3,3,58
1499894031835614,4,1,5,-66,-2,0,-5,-1
1499894031835614,-21,-3,-5,38,3,-1,1,-30
1499894031835614,-1,2,-1,-50,-8,-4,2,48
1499894031857613,7,-2,-13,-12,-1,-3,-3,2
1499894031857613,13,2,12,46,5,3,4,2
1499894031858614,1,0,21,11,1,0,0,12
1499894031858614,-14,-5,-13,5,-2,-4,-6,-39
1499894031871615,-15,1,31,-10,1,-2,-3,-33
1499894031871615,7,-3,-46,6,-5,-4,-1,6
1499894031879616,5,1,2,-13,-5,-1,-1,49
1499894031879616,-4,1,3,-15,5,5,2,12
1499894031894616,5,-1,0,25,1,-1,1,13
1499894031894616,2,3,19,22,4,3,1,-11
1499894031895619,1,-1,-9,-79,-7,-2,-2,-2
1499894031895619,-5,-4,13,58,2,0,-1,5
1499894031917618,-8,3,-7,-23,-2,-3,-4,-10
1499894031917618,-4,-9,-2,37,-4,-6,-3,-2
1499894031918617,1,1,-5,-27,1,-1,0,-3
1499894031918617,4,3,-8,-38,-1,3,1,-5
1499894031940618,0,-6,-27,-10,-5,-3,-3,14
1499894031940618,-2,2,10,8,3,1,-6,-11
1499894031941618,-8,-6,5,18,0,0,1,-40
1499894031941618,-3,-1,-12,11,-2,-4,-2,-1
1499894031954618,-4,1,4,-16,-2,2,0,1
1499894031954618,-34,-8,-9,7,-3,-3,-1,-20
1499894031955619,34,3,4,20,-2,-2,-2,60
1499894031955619,-13,2,16,23,-9,-5,-8,-79
1499894031977622,-11,-3,-4,53,3,-1,0,-5
1499894031977622,5,-4,-4,-43,-4,-1,-1,9
1499894031978622,-23,2,22,24,5,0,-1,-27
1499894031978622,-4,0,0,-23,-3,-4,0,42
1499894032000622,21,-1,-9,-24,0,2,-2,1
1499894032000622,9,-5,-4,22,-7,-3,-3,-20
1499894032001622,-5,-2,-11,-40,-11,-3,0,2
1499894032001622,11,0,1,5,2,2,0,26
1499894032014624,-12,4,13,-8,1,0,0,-16
1499894032014624,10,-3,-8,-11,2,-2,-1,22
1499894032015623,-2,4,-4,1,1,1,0,-21
1499894032015623,2,9,22,27,3,0,0,15
1499894032037624,-2,-18,-40,7,-6,-7,-3,11
1499894032037624,12,4,10,-18,-3,3,1,-6
1499894032038623,-17,-5,-20,-14,0,-2,3,-23
1499894032038623,1,-1,-8,68,2,0,-4,-6
1499894032060626,3,10,12,-57,0,0,3,36
1499894032060626,10,-1,2,16,-1,-3,-5,-7
1499894032061627,3,0,14,19,2,-2,-2,-21
1499894032061627,-4,-4,-32,-25,-1,0,3,34
1499894032074627,-20,-4,1,5,-4,-2,-2,-22
1499894032074627,4,-5,-16,-23,-8,-4,1,12
1499894032075626,-13,4,7,20,1,1,-2,-6
1499894032075626,34,0,16,-11,2,0,1,41
1499894032097628,-8,-9,-22,-4,-2,-3,-3,-10
1499894032097628,-19,1,-4,22,6,0,3,-12
1499894032098627,18,6,-1,-7,-10,3,-3,18
1499894032098627,-35,-11,11,-43,-5,-5,1,-7
1499894032120629,5,0,-8,-54,-4,2,0,-12
1499894032120629,5,0,6,36,1,-1,-1,4
1499894032121630,-1,-5,-26,9,5,1,1,4
1499894032121630,4,4,3,-9,0,0,0,-18
1499894032134635,-6,5,22,34,-2,-2,-4,-23
1499894032134635,-15,-7,-6,-9,1,1,0,-13
1499894032135631,3,-5,-3,3,-2,-2,-3,-9
1499894032135631,3,-1,-7,-33,2,2,2,-11
1499894032157631,0,-1,-3,45,1,1,-1,1
1499894032157631,13,3,6,-42,-10,-4,-1,77
1499894032158631,-9,-1,8,1,3,0,-2,-32
1499894032158631,-3,-11,-23,30,-6,-4,-3,-15
1499894032180633,17,3,3,-14,-1,0,2,57
1499894032180633,-2,-1,-5,-15,1,0,-5,-35
1499894032181634,19,5,9,21,0,-3,-6,0
1499894032181634,-6,2,21,-36,3,4,0,-14
1499894032194637,-1,-5,-2,67,2,1,4,-2
1499894032194637,-11,5,19,-81,0,2,0,-4
1499894032195636,4,-7,-23,25,-1,-5,-1,2
1499894032195636,11,2,2,22,3,-1,0,22
1499894032217636,-11,3,6,-22,0,0,-3,-30
1499894032217636,13,-2,-10,60,1,-1,1,12
1499894032218634,-18,0,16,-100,-5,-2,-5,-50
1499894032218634,-4,0,-2,11,-1,0,0,0
1499894032240639,-2,-3,-17,13,-1,-3,-3,4
1499894032240639,-12,-1,-3,9,-6,-3,-4,-27
1499894032241635,7,-6,-7,9,4,1,2,35
1499894032241635,-11,0,-4,-3,-6,0,0,-22
1499894032254636,4,-5,5,-39,-4,-4,2,15
1499894032254636,15,9,13,41,-1,-4,-1,19
1499894032262647,-9,-5,11,14,1,2,0,1
1499894032262647,-1,-2,-37,-16,0,-2,-2,-15
1499894032277640,6,-3,-12,2,0,-2,-2,12
1499894032277640,-9,0,15,-18,-2,-1,-2,-67
1499894032278638,-5,-6,-17,69,3,-2,-3,31
1499894032278638,13,-2,2,-59,-4,-2,1,2
1499894032300638,2,3,6,2,-5,-1,-5,-18
1499894032300638,2,-5,-9,44,3,-1,0,16
1499894032301640,-21,5,8,27,5,-1,-2,-34
1499894032301640,11,-2,1,-3,-4,-1,-2,-14
1499894032314641,-9,4,10,-10,0,5,2,-11
1499894032314641,-4,-3,-5,-21,0,-2,1,18
1499894032322641,6,-2,-14,-6,-2,3,3,14
1499894032322641,1,2,0,33,1,-4,-1,12
1499894032337642,-15,-7,-2,-26,-7,-6,-4,-33
1499894032337642,-1,-5,-8,70,6,3,0,10
1499894032338641,3,6,12,-79,-5,-3,2,-3
1499894032338641,-17,-13,-18,5,-1,1,-1,-10
1499894032360646,15,1,11,0,-1,-5,-9,-13
1499894032360646,-1,1,-9,-8,3,2,3,-3
1499894032361644,-5,-1,-4,11,-2,-3,1,6
1499894032361644,6,9,36,-79,-6,-1,-2,8
1499894032374645,-9,-12,-42,21,3,1,2,-6
1499894032374645,0,-3,-8,-39,-8,-3,-2,24
1499894032375643,13,5,12,39,3,-1,-3,-13
1499894032375643,-24,5,13,-20,4,0,2,13
1499894032397646,4,-4,-6,24,-3,-1,-2,7
1499894032397646,7,3,9,-21,2,4,3,4
1499894032398644,-1,-2,3,-19,-4,-1,-3,18
1499894032398644,-14,-5,-18,30,-4,-8,-4,-7
1499894032420645,7,7,14,-12,6,2,-1,0
1499894032420645,-4,-8,-31,-12,-3,-2,0,-7
1499894032421646,1,-3,16,-5,-3,0,1,2
1499894032421646,8,-4,-5,24,1,1,-3,5
1499894032434647,-5,1,13,40,1,-2,-2,1
1499894032434647,4,9,20,-62,-4,-1,-2,-7
1499894032435647,-17,-8,-20,5,1,0,0,-1
1499894032435647,13,0,-33,-33,-7,-2,1,30
1499894032457648,3,-2,1,33,-2,-5,-1,13
1499894032457648,-1,0,11,21,4,0,-2,3
1499894032458649,-2,2,11,-11,1,0,0,1
1499894032458649,-3,-7,5,24,-1,1,-2,-8
1499894032480649,-2,-2,-20,-49,-6,-1,-1,22
1499894032480649,-14,0,7,49,1,-2,-3,-64
1499894032481649,13,2,0,-80,-1,0,3,38
1499894032481649,-11,-4,3,52,-1,-3,-9,-30
1499894032494653,-2,3,-2,-39,1,-3,-1,6
1499894032494653,4,1,3,75,0,2,1,5
1499894032495653,-11,-7,-14,-36,-5,-3,-1,8
1499894032495653,19,9,24,-3,2,1,-1,38
1499894032517651,-13,-9,-21,-19,-4,-3,1,-20
1499894032517651,3,-3,-1,-7,-3,-4,-1,10
1499894032518652,-4,1,4,4,-1,3,0,-30
1499894032518652,1,-2,-12,4,3,-1,0,11
1499894032540653,-2,3,7,8,4,3,1,-3
1499894032540653,6,8,32,3,3,-1,-1,35
1499894032541653,-1,-15,-73,-8,-11,-6,-4,-19
1499894032541653,9,-4,18,12,-6,-4,-2,-26
1499894032554654,-4,6,16,35,4,2,2,3
1499894032554654,13,-5,0,-6,-2,-1,-6,0
1499894032562656,12,6,9,14,4,-2,1,54
1499894032562656,-3,-5,-17,-31,-5,0,0,-18
1499894032577655,0,6,6,45,6,0,0,-28
1499894032577655,-11,-7,-7,-57,-2,2,1,-1
1499894032578655,-5,-14,-33,-15,-9,-5,-4,0
1499894032578655,5,2,6,-1,-2,0,2,30
1499894032600656,-4,2,-4,-7,-1,-1,-2,-12
1499894032600656,-4,5,-2,2,1,-2,-1,7
1499894032601659,3,2,20,25,-1,1,-3,-26
1499894032601659,-4,-5,-23,-10,1,-2,-3,4
1499894032614657,0,-6,-16,-5,-1,2,1,-1
1499894032614657,-15,-2,8,-5,-3,-5,-2,-10
1499894032622659,-6,8,13,12,1,1,-3,-4
1499894032622659,4,-2,1,20,1,-1,3,-12
1499894032645659,-2,1,21,-40,-3,0,0,2
1499894032645659,4,-4,-17,14,-4,-4,-2,4
1499894032646660,-6,5,7,18,0,-2,-1,-7
1499894032646660,7,5,23,24,4,3,2,-3
1499894032660660,-7,-10,-33,-21,-7,-4,0,-11
1499894032660660,5,4,7,6,2,-4,-1,-9
1499894032661661,-16,3,22,23,4,3,0,-46
1499894032661661,13,3,2,26,4,0,-5,-65
1499894032674661,4,-13,-37,-5,-10,-3,-1,16
1499894032674661,-9,2,17,-81,-6,-1,1,-7
1499894032682663,25,-4,-11,-1,0,-2,-2,16
1499894032682663,3,6,8,-1,1,1,2,14
1499894032697668,-8,-6,5,14,-2,-3,-4,-14
1499894032697668,6,-2,-9,-19,-1,-1,0,10
1499894032698664,-7,-3,-2,8,2,-1,-1,6
1499894032698664,-10,0,14,-6,-3,-4,-1,15
1499894032720663,6,3,-8,-5,2,4,1,-3
1499894032720663,-9,-4,1,52,3,-1,-1,16
1499894032721665,1,-2,6,-33,-6,-1,-2,1
1499894032721665,-9,-2,-6,-12,1,2,0,-15
1499894032734665,4,1,13,-15,-2,-3,-1,27
1499894032734665,2,-3,-16,19,0,0,-2,-11
1499894032742665,-5,2,-3,-5,-3,-4,-2,0
1499894032742665,-20,-12,-27,30,4,1,-6,-86
1499894032757668,9,-1,31,-16,-1,-3,-5,41
1499894032757668,0,-1,-13,-39,1,4,3,0
1499894032758666,3,-3,-17,48,-2,-3,0,-17
1499894032758666,1,-4,-7,-43,-3,-2,1,46
1499894032780668,-4,4,5,29,0,0,0,-13
1499894032780668,8,1,7,-9,-3,0,-2,4
1499894032781668,-2,0,10,26,4,0,-1,-12
1499894032781668,-7,-1,-1,1,-1,-1,0,11
1499894032794668,-2,-5,3,-14,2,0,-1,-20
1499894032794668,-7,1,-6,11,-2,-1,-4,27
1499894032801667,7,5,22,7,2,3,1,18
1499894032801667,-2,-9,-18,-29,-6,-3,0,-18
1499894032817670,-31,-1,-1,-1,1,-4,-8,-66
1499894032817670,30,-1,-10,18,1,-2,0,11
1499894032818670,-2,-2,2,-32,-9,2,-1,15
1499894032818670,-2,-1,12,20,2,0,0,0
1499894032840672,0,1,5,-6,-2,-1,2,18
1499894032840672,-19,-2,-2,17,0,-2,0,-21
1499894032841672,10,0,-1,-1,3,-1,0,7
1499894032841672,11,6,15,26,4,1,1,-6
1499894032862673,-27,-15,-50,6,-6,-3,-1,17
1499894032862673,1,-3,-5,-8,-5,-6,-3,-12
1499894032863672,17,4,4,13,3,2,0,61
1499894032863672,-7,-9,-27,-46,-15,-6,-6,30
1499894032876674,15,8,19,5,4,3,0,5
1499894032876674,-8,-9,-4,-3,-2,-2,-3,1
1499894032885674,-13,-3,1,-8,-1,-2,0,-6
1499894032885674,-1,6,-4,11,-1,0,-1,6
1499894032901673,4,2,29,-10,2,2,-1,3
1499894032901673,-2,-8,-24,-19,-8,-2,-2,-4
1499894032902676,-8,-5,-3,8,3,-2,0,-31
1499894032902676,-5,3,15,40,3,-2,-1,1
1499894032922676,8,-3,-7,-47,-7,-2,-1,23
1499894032922676,-4,2,8,23,6,3,1,-27
1499894032924676,-6,-9,-36,-38,-7,-2,-2,-14
1499894032924676,-6,-2,7,20,-2,-2,-1,-11
1499894032936677,19,3,9,-18,0,1,0,15
1499894032936677,-2,5,21,73,6,1,1,0
1499894032945676,3,-2,-14,-53,-7,-2,-3,3
1499894032945676,-30,-11,-46,-14,-3,-2,0,-16
1499894032960678,22,0,0,-3,-1,-1,-3,9
1499894032960678,-2,-1,-2,0,0,3,1,-2
1499894032961678,-6,-1,2,30,-5,-2,0,-20
1499894032961678,18,3,9,-51,-5,-1,-2,47
1499894032982679,-43,-6,-17,14,-1,-4,-2,-33
1499894032982679,1,1,5,15,3,-1,-2,13
1499894032984679,0,1,0,8,1,0,-2,-8
1499894032984679,2,4,15,1,0,1,1,6
1499894032996680,4,-4,1,4,-4,1,1,0
1499894032996680,-1,1,-3,-34,-3,0,-3,-6
1499894033005679,-3,0,3,25,2,-1,0,-3
1499894033005679,17,6,9,32,7,5,3,27
1499894033020680,0,1,7,-77,-9,-4,1,5
1499894033020680,-4,-2,10,35,-1,-4,0,-6
1499894033022682,-4,-3,-7,-48,-7,-4,-4,31
1499894033022682,6,-5,7,44,7,1,-2,-14
1499894033042682,0,2,4,-36,3,1,0,0
1499894033042682,-9,4,15,-15,-3,1,0,4
1499894033044683,9,-7,-8,-2,0,-4,-1,35
1499894033044683,-3,-4,-8,-9,-3,1,0,-27
1499894033073702,11,1,-3,34,2,0,1,-8
1499894033073702,14,2,8,-13,-8,-5,-3,-2
1499894033074684,-1,-2,6,6,1,-1,-2,21
1499894033074684,-17,0,-6,-23,0,2,3,-12
1499894033080686,-7,-2,3,45,4,0,0,-8
1499894033080686,2,-5,-15,-25,-6,-3,-3,4
1499894033081686,-14,6,7,18,4,3,1,-30
1499894033081686,12,-2,-6,5,-2,-3,-2,-7
1499894033102685,7,1,11,35,-2,-2,1,3
1499894033102685,-13,-4,-15,-38,0,0,0,-22
1499894033104687,-4,-4,-11,30,-4,-3,-2,-1
1499894033104687,-7,3,7,-67,-2,-1,-2,-7
1499894033116689,4,1,-1,17,3,0,1,-1
1499894033116689,-3,-9,-17,-77,1,-3,0,6
1499894033125687,-3,6,28,111,4,3,-3,-38
1499894033125687,-1,-6,-10,-48,-11,-7,-3,10
1499894033140691,6,-2,-11,18,5,3,1,19
1499894033140691,-7,8,27,11,-2,-2,-2,-29
1499894033141689,-2,-9,-36,-16,0,1,2,-13
1499894033141689,-10,-5,-4,-24,-10,-5,-8,-5
1499894033170689,1,2,-14,12,-4,-2,0,2
1499894033170689,-11,-4,1,-20,-5,0,-1,0
1499894033171689,-7,1,28,-1,1,0,0,-4
1499894033171689,1,-1,-9,58,7,0,0,9
1499894033177691,-5,-3,-11,-88,-10,-3,-6,-21
1499894033177691,11,-6,-8,34,-2,-1,-1,24
1499894033183689,-11,0,4,-32,-2,-3,-4,-26
1499894033183689,-1,-1,8,18,0,-1,1,-8
1499894033200692,-1,5,0,15,0,-5,-2,-8
1499894033200692,-33,-2,-6,-10,2,3,0,-1
1499894033201692,13,7,10,30,-1,-1,0,0
1499894033201692,-2,-11,-29,-59,-1,-2,0,-3
1499894033222694,-5,-6,-13,-12,-5,-3,-1,-7
1499894033222694,8,4,7,20,-2,-1,0,-4
1499894033224693,1,-7,-15,-21,1,-1,-1,18
1499894033224693,-1,2,-14,8,-2,-3,-4,-17
1499894033237699,7,-3,8,48,-1,-2,0,13
1499894033237699,0,-4,-16,-16,-3,0,-3,-6
1499894033243695,-3,6,23,-13,-3,-1,-2,-4
1499894033243695,3,-4,6,50,0,0,1,20
1499894033260696,-6,3,2,-66,-2,-2,-1,7
1499894033260696,12,-2,-13,36,1,-1,1,3
1499894033266697,-3,-2,5,-4,-1,-2,1,-7
1499894033266697,-2,7,14,-15,2,1,-1,-4
1499894033282697,1,-2,-2,55,-2,-3,-2,24
1499894033282697,8,2,11,-16,2,0,-2,0
1499894033284696,15,0,-6,-20,-3,-2,-4,19
1499894033284696,2,4,13,6,0,0,2,0
1499894033296703,7,-4,-11,56,0,0,2,17
1499894033296703,-6,7,26,-53,-1,-1,-2,-33
1499894033305697,2,-6,-30,-17,-3,0,-1,-5
1499894033305697,3,3,11,27,2,0,-2,17
1499894033320697,-2,-2,-1,-42,-1,-3,-2,-30
1499894033320697,7,-4,0,19,1,-1,1,8
1499894033321699,-20,-10,-21,2,-3,-1,-3,-7
1499894033321699,5,4,14,2,-1,2,2,-7
1499894033342702,-1,-2,-21,-68,-8,-1,-2,22
1499894033342702,-6,-4,5,26,4,-1,1,-9
1499894033344701,-5,7,9,-12,-1,-5,-2,-6
1499894033344701,21,-2,-11,26,2,0,-2,34
1499894033357709,-14,4,20,11,1,0,-2,-10
1499894033357709,-1,-8,-20,-13,-6,-2,-1,3
1499894033371701,4,-3,15,27,0,0,3,5
1499894033371701,-15,6,-1,-22,-1,-2,-2,-8
1499894033380703,6,-6,13,55,0,-2,-4,14
1499894033380703,-4,2,1,-65,-3,0,0,19
1499894033381702,12,-2,7,6,2,0,1,5
1499894033381702,-4,1,8,-23,-2,-1,-1,-30
1499894033402703,0,-9,-13,17,1,-1,-4,-2
1499894033402703,-1,2,-5,42,-5,-7,-2,2
1499894033404704,11,2,1,-56,0,2,1,3
1499894033404704,-8,0,-3,-13,-3,2,1,13
1499894033416705,-13,-3,-7,33,-1,-1,1,-38
1499894033416705,4,-3,10,-31,-2,3,1,22
1499894033425704,1,-6,-21,28,-2,-4,-3,13
1499894033425704,-5,2,18,4,-2,-2,-3,-36
1499894033440717,-4,-7,-27,32,4,1,-1,9
1499894033440717,0,-2,-32,-50,-4,-3,1,12
1499894033441705,-6,4,21,1,0,1,0,-20
1499894033441705,-18,-4,14,-6,-3,0,1,-10
1499894033462717,11,1,-1,-3,-2,-1,-1,0
1499894033462717,-3,3,8,41,4,1,1,-17
1499894033464707,0,-11,-27,-26,-1,-3,-4,9
1499894033464707,16,-4,8,28,1,-3,-2,-35
1499894033476707,-15,2,-2,-20,-4,-1,0,-17
1499894033476707,5,-1,3,21,1,-2,0,0
1499894033485715,-2,7,11,-12,-2,0,0,-3
1499894033485715,8,-7,-14,14,2,-2,0,6
1499894033500708,-6,-4,-4,-51,0,2,0,-5
1499894033500708,-1,2,-7,52,-1,-2,-4,-7
1499894033501711,8,4,15,-9,-4,-1,-2,41
1499894033501711,2,-3,-6,-15,-3,-3,-4,1
1499894033522710,-3,-1,-14,8,3,6,2,7
1499894033522710,0,-6,21,-21,-6,-3,-3,-45
1499894033524710,-1,-1,-13,4,-1,-2,-2,-4
1499894033524710,1,3,12,-12,2,2,3,12
1499894033536713,2,12,35,82,7,0,1,-18
1499894033536713,5,-11,-63,-87,-9,-2,-2,17
1499894033545712,-3,-4,5,23,1,-2,-2,-11
1499894033545712,-22,-1,-16,-21,-4,-5,-5,-53
1499894033560712,2,1,10,-18,-2,-1,-1,7
1499894033560712,-6,5,4,26,4,2,-1,9
1499894033561713,-3,-5,-8,15,3,2,2,-2
1499894033561713,0,3,-1,-2,2,3,4,16
1499894033582714,-2,-3,7,-14,-5,-5,-2,-9
1499894033582714,-20,-2,9,17,1,2,0,-35
1499894033584713,-19,0,-2,3,-2,0,-1,-57
1499894033584713,19,-1,-1,17,2,-2,1,25
1499894033596717,-5,8,-8,-19,-2,3,6,88
1499894033596717,2,-3,27,21,1,-4,-3,-55
1499894033605715,-2,-9,-39,17,1,-2,-2,10
1499894033605715,-35,-10,4,-12,-4,-5,-3,-27
1499894033620716,0,0,9,-1,-5,1,-4,-7
1499894033620716,-9,1,-11,18,3,-2,1,24
1499894033621717,21,2,7,0,3,1,0,35
1499894033621717,16,-3,9,-52,-10,-4,-4,25
1499894033642718,7,7,-3,14,0,-3,-4,-33
1499894033642718,-2,-14,-16,38,-4,-4,-2,28
1499894033644718,-6,2,13,8,3,1,-1,3
1499894033644718,13,2,-7,12,1,2,2,12
1499894033656718,-3,-2,1,-59,-2,-1,2,-23
1499894033656718,4,1,19,57,3,6,1,4
1499894033665719,10,6,-9,18,-2,-5,-1,18
1499894033665719,-11,-1,4,-73,-5,2,-1,22
1499894033680719,7,-7,2,48,2,-3,-5,18
1499894033680719,-20,0,-26,-77,-1,-1,-2,5
1499894033681720,14,-3,17,14,-6,-4,-4,-9
1499894033681720,-5,7,-11,28,2,0,-1,6
1499894033702722,-7,-5,-11,-7,1,0,0,-22
1499894033702722,1,-2,3,-14,-2,-3,-1,18
1499894033704720,-7,-3,-6,-6,-1,0,1,9
1499894033704720,-20,0,9,4,3,-1,-2,7
1499894033716721,15,-8,-45,-21,-5,3,2,47
1499894033716721,18,3,12,31,-5,-7,-4,18
1499894033725722,-13,-7,-13,-19,2,3,1,-24
1499894033725722,-4,-6,-2,-7,-11,-3,-1,-13
1499894033740723,10,5,31,-13,0,-5,-1,25
1499894033740723,-1,3,-25,3,7,6,1,-12
1499894033741723,4,-1,1,5,-9,-4,-3,23
1499894033741723,9,-1,-6,-44,-1,0,2,38
1499894033762726,-9,-2,11,-10,-3,-5,0,-30
1499894033762726,6,-3,8,46,2,0,1,4
1499894033764725,-8,1,3,-58,-1,0,-2,-20
1499894033764725,1,-4,-28,37,0,2,1,-2
1499894033776725,-4,2,14,-19,-1,-1,-4,-4
1499894033776725,-11,-2,-2,24,-3,-1,-2,-4
1499894033785726,18,2,9,-18,-3,-2,0,-7
1499894033785726,2,0,-7,39,-3,-2,-1,-2
1499894033799726,-6,-3,-2,4,1,-1,-1,-37
1499894033799726,-6,-5,-10,-44,-4,-2,0,7
1499894033806726,0,2,0,-12,1,2,1,8
1499894033806726,6,-2,-4,4,-3,-3,-7,-56
1499894033822728,-18,-3,9,91,4,-3,-1,-21
1499894033822728,9,0,15,-109,-5,-2,0,18
1499894033824727,-29,-10,-41,-79,-9,0,-5,-31
1499894033824727,12,1,12,56,1,-1,4,-18
1499894033845730,1,1,6,12,3,0,-3,17
1499894033845730,2,2,21,5,2,0,-1,-14
1499894033846736,-7,1,0,20,0,1,1,12
1499894033846736,-13,-3,-8,0,-1,-1,-1,-26
1499894033860732,2,-2,-13,-44,-4,1,-1,-7
1499894033860732,-8,5,10,26,-2,-2,-1,19
1499894033861733,7,2,7,22,-1,0,2,18
1499894033861733,0,-6,-4,-44,-3,-1,-3,6
1499894033882731,-2,4,15,-8,0,1,1,-41
1499894033882731,5,-6,-20,14,-3,-5,-5,24
1499894033884732,-11,-3,-2,30,2,0,1,7
1499894033884732,7,1,2,21,4,-2,-3,-2
1499894033905732,-3,8,16,-31,-5,-4,-1,6
1499894033905732,-1,-11,-34,-17,-1,0,-5,-47
1499894033907732,-25,0,2,51,2,-1,0,-3
1499894033907732,2,-2,2,-15,0,0,-2,32
1499894033920732,-3,-6,3,-56,-8,-6,-1,-20
1499894033920732,0,1,-9,25,-1,1,-1,18
1499894033921734,8,1,7,2,0,-1,-2,-3
1499894033921734,-5,5,3,33,5,2,2,4
