timestamp,emg1,emg2,emg3,emg4,emg5,emg6,emg7,emg8
1499894499192097,-5,-5,7,5,0,-3,-1,-2
1499894499192097,-2,4,0,-5,-7,0,-1,-1
1499894499208099,-1,-7,-3,6,1,-2,-2,0
1499894499208099,-1,1,-2,5,-1,-5,-2,-2
1499894499210098,2,5,1,-13,-5,-2,-2,-1
1499894499210098,1,3,4,11,8,0,0,0
1499894499222108,0,-5,-14,-22,-11,2,1,-1
1499894499222108,-3,3,5,-13,-1,1,-1,-1
1499894499229100,-2,-4,-6,-1,1,-1,-1,-1
1499894499229100,0,0,2,-4,-5,-2,-1,2
1499894499245100,-1,2,4,4,-1,-1,0,-7
1499894499245100,-4,-4,-6,0,-4,-6,-6,-3
1499894499247102,3,-2,0,5,8,6,3,2
1499894499247102,0,3,-1,-11,-2,0,-9,-1
1499894499268102,1,-3,0,-3,1,2,5,-2
1499894499268102,-4,-3,0,3,-3,-1,17,-12
1499894499270101,1,-4,3,20,-3,-7,-4,0
1499894499270101,-2,0,-3,-14,0,1,0,-5
1499894499282102,0,6,10,15,7,6,1,4
1499894499282102,3,-4,-1,16,0,-4,-33,9
1499894499289101,-12,-6,-8,23,-6,-3,44,-9
1499894499289101,1,-3,-2,-85,-6,1,8,7
1499894499305119,-3,-1,-1,12,2,-2,-9,-10
1499894499305119,10,2,1,-4,-4,1,5,27
1499894499307106,10,1,0,-33,5,2,-28,4
1499894499307106,-29,-8,5,33,-1,-2,7,-5
1499894499328105,18,7,4,3,5,0,6,17
1499894499328105,-1,-3,2,2,-5,-5,-7,-14
1499894499330108,-6,0,-8,69,3,2,3,13
1499894499330108,16,-2,1,-52,-4,0,6,-9
1499894499342108,-15,-6,-23,-49,-7,-4,-30,4
1499894499342108,3,-4,6,44,-4,-4,19,-9
1499894499349119,-26,3,8,-4,10,1,-8,-19
1499894499349119,-13,-3,-6,58,-6,-1,-5,-9
1499894499365115,-4,5,28,82,-1,1,7,6
1499894499365115,19,0,-3,-85,3,1,-10,-40
1499894499367110,-1,-10,-45,4,-7,-5,1,-9
1499894499367110,11,2,-5,-29,1,-1,-6,11
1499894499388142,-15,-2,-5,-16,-4,-7,-20,-18
1499894499388142,12,7,29,74,1,-2,-21,8
1499894499390113,7,5,15,-8,5,4,18,0
1499894499390113,-25,-3,-12,36,1,-1,-2,-14
1499894499402123,25,-6,-26,-119,-21,-8,-4,29
1499894499402123,-29,-3,-8,-53,2,-2,-7,-29
1499894499409124,12,5,18,79,4,-3,-16,-6
1499894499409124,0,4,24,60,9,8,14,11
1499894499425114,0,2,-2,32,5,1,14,33
1499894499425114,-4,-1,0,-10,-8,-1,1,5
1499894499427110,-1,-8,-24,-49,-13,-8,-6,1
1499894499427110,10,-4,-13,-67,1,1,-3,8
1499894499448126,-40,-3,5,-6,3,0,-19,-16
1499894499448126,1,-1,-11,55,0,1,31,26
1499894499450115,12,10,12,-48,3,5,-7,69
1499894499450115,19,1,15,14,4,0,-21,-57
1499894499462112,-1,-8,-5,38,-2,1,31,-3
1499894499462112,-27,-5,-17,-75,-11,-1,3,-6
1499894499471124,21,-2,23,97,3,-5,-3,-24
1499894499471124,5,1,-3,42,3,0,-2,22
1499894499485117,-21,0,3,-86,-10,-4,-3,-61
1499894499485117,-1,3,1,77,14,1,-1,-49
1499894499487114,3,-7,-24,-48,-11,-1,5,24
1499894499487114,14,6,34,2,-3,-5,-9,36
1499894499508131,9,-4,10,97,6,-2,-17,-98
1499894499508131,-1,-13,-53,-64,-8,0,-9,-10
1499894499510118,-15,14,34,-18,10,3,16,52
1499894499510118,-14,-15,-41,3,-9,-3,-8,47
1499894499522119,46,4,28,4,-6,-5,3,22
1499894499522119,-26,-15,-30,-37,1,-3,-12,2
1499894499531115,8,-5,-33,-38,-2,-1,-18,-89
1499894499531115,-34,5,22,-5,-3,-7,15,-28
1499894499545131,-1,1,9,104,10,8,59,18
1499894499545131,6,6,12,-57,-2,4,1,39
1499894499547121,-31,-8,-23,-34,-8,-2,-1,-35
1499894499547121,58,4,9,20,1,-1,-4,-7
1499894499568134,-1,-6,1,5,2,-3,-10,-16
1499894499568134,28,15,49,36,7,1,-10,57
1499894499570119,-4,-14,-45,-18,-7,-3,2,-6
1499894499570119,-7,3,1,4,-8,-5,-10,-21
1499894499582119,-15,0,-11,-68,-2,-3,-10,24
1499894499582119,19,-7,-13,13,-3,-4,-1,13
1499894499591119,1,8,46,47,12,4,-11,33
1499894499591119,-27,-3,-50,-42,12,8,7,-3
1499894499606129,-33,-19,-19,39,-24,-7,-11,-19
1499894499606129,13,18,30,-16,2,5,4,11
1499894499607121,23,-10,-14,34,-13,-8,-8,-60
1499894499607121,-40,-2,16,13,10,-1,3,2
1499894499628121,12,4,1,-31,-2,-1,3,11
1499894499628121,3,-1,-22,-29,-2,-2,-26,-17
1499894499630124,0,0,22,51,5,2,16,-14
1499894499630124,15,-2,-11,23,-12,-3,26,25
1499894499651124,-9,3,-12,-21,9,3,-6,-13
1499894499651124,-14,-12,5,-16,-22,-12,-3,-31
1499894499652125,5,19,32,26,16,8,-10,17
1499894499652125,6,-19,-35,-42,-7,-6,-10,42
1499894499665123,3,3,6,49,10,4,-10,8
1499894499665123,-2,-5,1,-42,-9,-4,28,29
1499894499667124,-34,-8,8,27,-5,-4,-14,48
1499894499667124,-8,0,6,57,5,0,19,-40
1499894499688145,11,5,-3,-50,-6,-2,-11,-13
1499894499688145,-5,10,12,-15,5,11,26,-1
1499894499690125,15,3,-14,-73,-14,-4,-5,-53
1499894499690125,0,-5,-11,73,2,-2,-20,28
1499894499702126,8,-15,-35,-43,-5,-3,6,70
1499894499702126,-17,6,22,-17,7,1,-7,-8
1499894499711126,-14,-6,-36,7,-4,1,5,-18
1499894499711126,-3,4,11,35,5,-1,-2,-13
1499894499725127,35,5,7,-5,4,2,-1,57
1499894499725127,-12,-11,-16,71,-7,-2,-5,-8
1499894499727129,7,1,16,-40,-3,-2,-6,33
1499894499727129,36,2,18,-46,-2,-2,-6,-19
1499894499748130,-19,-2,-8,57,7,2,-1,15
1499894499748130,4,-9,-29,35,-8,-9,-11,-42
1499894499750130,5,9,18,-81,-2,-2,2,-40
1499894499750130,1,-19,-19,-16,-14,-10,-5,29
1499894499762129,9,10,5,4,9,7,5,-28
1499894499762129,1,6,0,21,0,-2,-2,-9
1499894499771131,1,-1,-6,-35,-4,2,18,44
1499894499771131,0,8,18,-47,3,-1,-43,-16
1499894499785131,-29,-8,-5,20,-2,5,57,50
1499894499785131,37,6,15,-22,6,2,-2,74
1499894499787134,6,0,-5,56,4,0,-3,-22
1499894499787134,-12,5,7,10,-1,8,9,-43
1499894499808132,-10,-7,8,-38,-10,-8,-19,-39
1499894499808132,3,5,5,25,4,-3,8,-25
1499894499810132,-6,-6,-2,32,9,8,0,14
1499894499810132,15,7,0,-21,0,2,2,-34
1499894499822133,1,3,7,13,0,-2,-14,-61
1499894499822133,0,-2,-2,-33,0,-6,2,-40
1499894499831133,1,-3,-8,-23,-6,2,0,24
1499894499831133,2,-4,-12,-61,-1,-2,-3,-7
1499894499845136,-11,-6,1,17,-19,-8,-1,-31
1499894499845136,-8,0,18,80,13,-1,-9,-1
1499894499847135,19,4,-7,-21,-1,-2,5,26
1499894499847135,-7,-2,8,50,0,0,1,97
1499894499868136,29,8,-11,-100,-3,0,-4,-5
1499894499868136,-13,-17,-33,38,1,4,21,7
1499894499870137,-4,1,34,-17,-7,-7,-14,40
1499894499870137,-29,-4,-15,52,0,-1,2,-75
1499894499882136,56,11,5,-82,5,1,-7,-23
1499894499882136,-20,-5,-12,0,-5,0,-6,7
1499894499897138,3,-3,2,-4,-1,-6,-9,-11
1499894499897138,-17,2,7,44,-3,0,2,-97
1499894499906146,-27,0,-8,-20,7,-3,-9,23
1499894499906146,19,-1,-3,-44,-9,-1,-5,-4
1499894499907143,0,-2,6,2,2,-2,3,-15
1499894499907143,-39,-4,-4,-13,-3,0,6,10
1499894499928139,-23,5,25,46,4,2,-3,-47
1499894499928139,-22,-4,-4,-47,2,3,5,-42
1499894499930141,7,-12,-53,91,1,-10,-4,4
1499894499930141,16,6,5,17,8,2,6,29
1499894499950154,-11,-1,25,-64,-16,1,12,31
1499894499950154,-17,-9,-13,85,10,-3,-8,-64
1499894499952140,-5,2,19,-18,-16,-5,0,-6
1499894499952140,6,1,-8,-15,3,-1,5,75
1499894499965141,-2,4,-1,-2,7,-2,-3,58
1499894499965141,-6,-9,-42,-8,-8,-6,-14,-29
1499894499967141,-11,0,15,-5,-2,-2,0,-19
1499894499967141,28,0,-9,-9,-3,-5,3,-21
1499894499988147,16,5,5,88,12,6,-5,-18
1499894499988147,5,-3,23,52,-1,-3,-1,52
1499894499990144,-8,2,-2,-87,-16,-4,-14,-27
1499894499990144,-12,-1,-5,-37,-3,0,-3,10
1499894500010157,8,-4,1,38,4,0,-1,38
1499894500010157,-16,0,-18,83,0,-5,-7,-46
1499894500013144,-6,-5,-13,-2,-1,-3,11,20
1499894500013144,-4,4,16,-41,-5,6,13,33
1499894500025145,-4,-6,-28,-47,-2,-5,-12,-92
1499894500025145,-3,3,29,43,-5,-4,1,38
1499894500032145,-1,5,15,-6,3,4,-10,-9
1499894500032145,-4,-7,6,-53,-7,-7,4,-22
1499894500048160,-30,-14,-31,85,-4,-9,2,11
1499894500048160,20,-1,-11,-45,0,5,3,28
1499894500050147,2,-2,7,56,8,-1,-1,25
1499894500050147,14,3,0,-7,3,0,-1,7
1499894500070153,3,-5,1,-32,0,5,-2,4
1499894500070153,7,10,4,63,-3,-4,-2,31
1499894500072151,2,2,6,-108,-9,-2,-3,5
1499894500072151,10,-6,-14,22,0,-3,-2,-29
1499894500085153,-3,3,10,26,-1,0,5,34
1499894500085153,-18,-6,-7,-59,-3,-2,-7,-80
1499894500092149,-12,-4,2,82,6,1,16,1
1499894500092149,-3,2,10,50,5,3,-11,-66
1499894500108164,-1,0,-1,-33,-9,-4,-6,-39
1499894500108164,5,9,14,12,7,5,14,28
1499894500110150,19,-2,-3,-34,-3,1,-15,-38
1499894500110150,-15,-1,-1,-22,-4,-4,-3,5
1499894500130152,-5,-14,-34,11,-3,1,13,45
1499894500130152,6,6,29,3,3,0,-6,0
1499894500132151,26,-7,-24,-18,-1,-6,-7,58
1499894500132151,7,-3,-11,61,-8,-6,5,30
1499894500145166,7,-2,-5,-89,-11,-2,-13,35
1499894500145166,18,-1,6,-16,1,1,2,-3
1499894500152154,-19,7,8,50,9,7,8,-57
1499894500152154,-5,-6,-15,2,-4,-2,-6,19
1499894500168153,-1,0,0,10,0,-3,-4,9
1499894500168153,-5,-3,-2,-69,-11,-4,-3,27
1499894500170154,-5,8,15,63,10,4,3,36
1499894500170154,16,-11,-18,-113,-10,-2,-6,-21
1499894500190154,-10,4,32,88,-10,-6,0,-17
1499894500190154,-2,-5,-14,-106,-11,-1,0,8
1499894500192155,-14,-7,-1,37,1,0,1,-18
1499894500192155,11,5,5,20,3,0,-2,-61
1499894500205155,-1,1,-10,14,4,2,-3,-19
1499894500205155,-20,1,16,-44,6,2,-1,20
1499894500212162,17,-1,-4,-6,-6,2,-8,1
1499894500212162,-50,1,10,84,5,1,20,-76
1499894500228157,19,1,19,-26,3,-2,-1,-41
1499894500228157,-5,-7,-36,-83,-7,-1,-3,8
1499894500229158,-10,-8,-16,-32,-9,-13,-6,35
1499894500229158,20,15,36,122,14,10,3,114
1499894500250172,23,1,4,-79,-4,-4,-2,8
1499894500250172,2,-2,-19,86,-5,0,-8,-6
1499894500252158,11,-3,-17,-19,0,-1,-2,9
1499894500252158,-8,-5,-3,-40,-4,-2,0,41
1499894500265160,-13,6,22,58,11,3,1,-14
1499894500265160,11,5,5,29,2,2,3,35
1499894500272162,-7,-18,-34,-7,-7,-10,-8,-10
1499894500272162,8,7,25,46,2,2,3,-5
1499894500288161,-2,-8,-31,-91,-6,-1,3,17
1499894500288161,11,9,21,71,6,0,-1,-43
1499894500289161,-22,-2,6,-58,1,4,5,-18
1499894500289161,-4,-5,-5,-16,-6,-5,-7,-8
1499894500310162,-15,-6,-3,102,10,4,-3,5
1499894500310162,0,13,20,-61,-1,0,-3,12
1499894500313167,-10,-8,-3,-13,-1,1,0,-23
1499894500313167,8,-9,-19,-56,-6,-5,-9,24
1499894500325162,1,5,-3,1,0,2,1,-8
1499894500325162,10,0,17,91,11,0,1,74
1499894500331165,-4,8,13,-3,3,6,8,41
1499894500331165,0,-5,-33,-119,-14,-5,-8,-34
1499894500348176,-18,-6,-7,18,0,-5,-5,-3
1499894500348176,-8,-3,0,48,0,-1,-4,-7
1499894500349173,15,4,11,34,2,-3,12,-3
1499894500349173,-8,-2,-19,-59,-10,-1,-6,-3
1499894500370169,4,-2,-1,-14,-2,-5,-2,6
1499894500370169,0,-6,-13,54,1,1,20,51
1499894500372165,-3,6,12,-14,1,2,-5,8
1499894500372165,5,-4,8,24,0,-1,-3,37
1499894500385165,-1,-3,-10,-2,-1,-1,-1,-3
1499894500385165,0,-2,1,-13,-1,-2,-4,2
1499894500391167,-13,4,0,-31,2,2,-3,-38
1499894500391167,10,9,12,-49,0,-4,3,-12
1499894500408167,4,-9,-3,42,-6,0,-4,-2
1499894500408167,4,-2,2,-6,1,-3,-1,-13
1499894500410167,-4,-2,-18,-39,-8,2,2,31
1499894500410167,0,5,17,22,6,0,5,3
1499894500430168,-12,-5,-14,42,0,-3,-2,29
1499894500430168,9,-6,9,-2,-4,-4,-4,10
1499894500432168,8,-2,2,-47,-10,-2,-5,16
1499894500432168,-4,-8,-5,13,-2,0,7,-14
1499894500444170,9,13,13,-26,6,2,5,-1
1499894500444170,-2,-10,-11,-13,-9,0,0,44
1499894500453171,0,-8,-12,100,3,-6,-10,-68
1499894500453171,-15,-2,-6,-79,-2,2,-5,32
1499894500468186,3,7,13,30,1,0,2,26
1499894500468186,0,-8,-35,-63,-6,-4,0,4
1499894500470174,-10,2,9,39,-1,-2,6,-3
1499894500470174,16,2,-8,52,12,4,-3,-1
1499894500490172,6,-1,-16,-12,-6,-3,0,-5
1499894500490172,-12,9,2,-40,-1,2,-7,-40
1499894500492172,-13,-2,7,5,0,0,6,0
1499894500492172,-11,-2,-1,45,4,0,0,-52
1499894500504193,13,-6,-5,-24,-14,-7,-6,21
1499894500504193,-4,0,-11,-18,3,3,9,7
1499894500513173,17,0,3,8,-2,-1,-4,1
1499894500513173,-11,3,8,42,3,-2,-2,-14
1499894500528174,-1,5,24,-35,7,4,3,9
1499894500528174,-11,-10,-45,-25,-12,-9,-16,-63
1499894500529176,15,5,12,71,3,-3,8,-13
1499894500529176,1,-2,-14,-79,-14,2,-4,8
1499894500550240,-9,-7,-3,44,4,-2,-2,3
1499894500550240,7,8,12,-38,-2,1,1,4
1499894500552179,-6,0,-5,31,1,1,-3,29
1499894500552179,8,0,-2,41,-2,-3,-3,-11
1499894500564175,-12,-5,-14,22,-2,4,4,41
1499894500564175,-9,-2,6,-60,0,4,6,-26
1499894500573176,8,-10,-9,-54,-4,-4,-7,22
1499894500573176,-1,11,26,91,6,1,5,45
1499894500588179,-6,-3,-16,-59,-3,-2,-4,-25
1499894500588179,5,2,3,15,3,0,3,101
1499894500589177,-27,1,14,21,2,2,-2,-48
1499894500589177,-9,-12,-9,51,-11,-4,-6,12
1499894500611244,-6,6,22,-50,-1,0,4,-20
1499894500611244,3,-3,18,73,6,-2,-6,-36
1499894500614179,-2,1,-20,-76,-2,0,8,-1
1499894500614179,-9,-9,-19,7,-1,-6,-6,-49
1499894500624200,0,0,3,39,6,3,2,-22
1499894500624200,15,7,4,-30,-7,0,5,14
1499894500633181,2,-7,1,2,1,-2,-14,-56
1499894500633181,-3,3,-4,-56,-3,-1,0,-9
1499894500648249,-8,-10,-23,-6,-8,-5,-6,-23
1499894500648249,-4,-2,-10,-1,-1,-2,-3,12
1499894500650181,13,4,-1,17,1,3,3,80
1499894500650181,-16,-6,6,10,4,1,-1,-20
1499894500670247,-7,-4,-14,-77,-5,-3,-5,-24
1499894500670247,10,2,13,54,-1,-2,-1,-48
1499894500672187,-14,-3,-3,-33,-7,-3,-10,-31
1499894500672187,12,10,14,51,9,-2,6,11
1499894500684182,12,0,24,-71,-1,6,3,28
1499894500684182,3,-3,-19,51,1,0,-1,59
1499894500693190,4,3,16,-33,-3,0,0,19
1499894500693190,10,1,-23,-53,-6,-3,-8,5
1499894500708224,-33,-3,14,73,4,0,9,-29
1499894500708224,-18,-7,-11,14,1,-4,0,-18
1499894500709185,35,3,-12,-46,-4,1,0,-25
1499894500709185,-16,-8,23,-4,-5,-2,-2,21
1499894500730186,5,-3,-22,33,-1,-3,-1,46
1499894500730186,-27,0,13,-32,4,4,0,-46
1499894500732185,-14,-2,-3,-11,2,-2,3,28
1499894500732185,14,-5,-10,21,-9,-2,-4,-30
1499894500744191,16,5,0,-25,-4,0,5,-6
1499894500744191,3,2,11,-6,-1,-2,-3,6
1499894500753189,-32,-5,-14,70,5,0,1,-55
1499894500753189,8,5,-4,-79,-6,0,3,8
1499894500768242,7,-3,7,76,4,-3,-8,-22
1499894500768242,-1,-2,-5,-22,-2,0,0,7
1499894500769206,1,1,3,54,0,0,0,-9
1499894500769206,12,-2,5,-23,2,4,0,1
1499894500790190,-11,-2,-8,48,-4,-4,-5,0
1499894500790190,0,-2,-12,25,0,-2,0,-42
1499894500792189,-5,4,29,-13,-6,-7,-1,28
1499894500792189,-1,-6,-29,-24,4,4,0,5
1499894500804227,34,10,31,67,8,3,-2,12
1499894500804227,-13,-9,-49,-73,-4,-3,-3,-6
1499894500813191,8,-2,4,57,-5,-1,-2,3
1499894500813191,-5,-6,-2,-23,-6,-7,-3,29
1499894500828211,-4,10,18,21,2,0,-1,-10
1499894500828211,14,-5,-9,-51,0,3,0,-4
1499894500829197,-4,-9,-17,68,0,-6,-6,-22
1499894500829197,-12,0,-11,-104,-9,3,-4,19
1499894500850233,13,6,6,54,8,4,-4,6
1499894500850233,-8,-10,-5,-39,-15,-6,-2,1
1499894500852195,15,2,11,-5,5,-3,-1,13
1499894500852195,8,-3,-12,45,5,-1,-4,10
1499894500873210,3,-2,-7,-56,-7,-1,1,-20
1499894500873210,7,12,27,37,4,2,2,10
1499894500874214,-10,-3,-13,-34,1,1,-2,7
1499894500874214,0,-6,0,78,1,-5,3,19
1499894500888200,-11,-6,1,-71,-11,-7,-8,-16
1499894500888200,-5,-3,-3,56,3,-1,4,51
1499894500889198,-17,2,11,-8,-6,-3,-14,-68
1499894500889198,-5,9,30,12,3,4,14,-32
1499894500910259,-14,-11,-25,-33,-5,0,-1,-1
1499894500910259,2,-4,-11,-5,-1,-3,-6,-37
1499894500913196,7,-4,-9,8,6,2,2,23
1499894500913196,-5,9,27,-21,3,3,-1,3
1499894500933216,-10,-10,-47,-18,-10,-6,-7,-33
1499894500933216,-6,-3,15,51,-2,-5,-3,-17
1499894500934218,-11,9,4,-47,7,1,4,70
1499894500934218,-1,-14,-26,-29,-10,-3,-5,-13
1499894500947263,-2,-1,18,78,6,-2,4,14
1499894500947263,-14,-7,5,-20,-6,-4,-7,-54
1499894500954213,11,0,-8,-30,-1,2,3,3
1499894500954213,3,7,19,0,3,0,1,45
1499894500971205,-19,-1,1,20,0,0,5,-54
1499894500971205,4,0,-5,25,-2,0,-5,18
1499894500972199,-5,0,11,10,-2,0,4,-33
1499894500972199,11,8,2,-45,4,2,-3,21
1499894500993222,-24,-11,-14,51,-7,-5,-1,15
1499894500993222,10,2,3,-27,4,1,3,15
1499894500994207,1,-1,-4,3,-5,-3,-2,-59
1499894500994207,-2,-6,-17,50,6,-2,-3,-17
1499894501007230,12,4,9,-49,0,1,-2,18
1499894501007230,12,-1,1,-50,-3,2,2,-5
1499894501014202,-9,7,15,95,6,-1,1,23
1499894501014202,-32,-13,-33,-44,-11,-4,-6,-94
1499894501030206,37,3,11,-42,3,2,-3,41
1499894501030206,-10,-1,7,36,-5,-3,-2,-6
1499894501032203,-3,-7,-9,-51,-1,0,13,10
1499894501032203,17,4,5,2,3,2,-1,18
1499894501053205,-7,-1,-1,56,-2,-5,0,2
1499894501053205,-9,8,27,15,5,4,4,-30
1499894501054216,11,-7,-12,-27,-4,-5,-4,0
1499894501054216,-8,-8,-2,17,-8,1,-2,13
1499894501067239,-3,4,6,3,6,2,0,-16
1499894501067239,1,1,10,33,3,-2,0,17
1499894501074205,11,3,13,36,3,0,-2,70
1499894501074205,14,-1,-12,-22,-4,-5,-2,6
1499894501090208,-16,-8,-31,-46,-4,-2,-3,-28
1499894501090208,18,5,17,-11,-1,2,3,57
1499894501092206,-3,-5,-7,-30,-2,-3,-9,-15
1499894501092206,11,6,28,39,1,-2,3,-17
1499894501113228,-2,-1,-5,10,-3,-6,0,21
1499894501113228,-4,-7,-15,-42,-4,4,-1,5
1499894501114210,0,3,4,-10,-2,4,-5,-19
1499894501114210,-11,-2,-12,11,-3,-6,-4,13
1499894501127212,19,3,20,-34,0,-2,-1,17
1499894501127212,-1,-11,-43,56,-5,-6,-5,-24
1499894501141210,-14,1,-9,-42,-3,0,2,7
1499894501141210,3,1,19,35,-3,-3,-3,-6
1499894501150271,-3,1,11,6,-1,3,4,-65
1499894501150271,-12,1,3,-68,1,0,0,-5
1499894501152210,13,-1,-3,78,-5,-2,-3,19
1499894501152210,-4,2,-7,13,8,-1,0,-27
1499894501173233,1,5,20,-28,-1,0,-2,18
1499894501173233,5,-10,-11,-15,-4,-1,-1,-26
1499894501174232,-1,-6,-32,-3,-4,-2,-2,-27
1499894501174232,-5,3,15,-10,1,-2,0,4
1499894501188213,12,-1,-5,49,6,3,3,28
1499894501188213,-44,5,22,-4,-6,-2,-1,-12
1499894501202221,-8,-7,-20,-38,-1,0,-4,6
1499894501202221,16,-4,-12,20,-6,-5,-7,12
1499894501211225,-20,1,1,0,4,2,1,-5
1499894501211225,22,-5,-15,11,-1,-4,-2,-31
1499894501213218,-4,2,10,25,0,2,-2,-9
1499894501213218,-15,-3,4,0,4,5,4,1
1499894501233220,-2,-2,-11,-52,-8,2,-1,-10
1499894501233220,4,5,9,72,1,-2,-4,15
1499894501234215,8,1,12,-30,-3,-5,-2,-6
1499894501234215,-1,-1,-2,28,5,0,-3,-34
1499894501247270,-5,-10,-16,-6,-7,-4,-4,19
1499894501247270,9,1,-8,-40,1,0,1,11
1499894501254225,2,-5,-4,9,-4,-1,3,13
1499894501254225,-8,4,5,-2,-3,-1,-1,-54
1499894501270291,4,0,1,-14,0,-2,-2,12
1499894501270291,10,0,19,-2,7,2,1,-1
1499894501272217,-6,-2,1,29,-2,-1,7,-10
1499894501272217,-7,-4,-17,5,2,3,-2,22
1499894501293222,21,1,4,1,0,-1,-5,-51
1499894501293222,0,0,5,41,1,-2,1,-3
1499894501294218,1,-1,-8,-31,-2,-6,-2,-10
1499894501294218,-8,7,23,20,6,6,3,12
1499894501308258,-1,-7,-20,7,-3,0,1,47
1499894501308258,1,-9,-10,2,-6,-6,-7,46
1499894501314240,-8,3,0,-18,-1,0,1,31
1499894501314240,6,-3,-8,3,-3,-4,1,18
1499894501338227,-11,-1,-5,-16,4,2,-1,5
1499894501338227,11,12,23,-20,7,7,7,48
1499894501339220,-6,-11,-24,29,-7,-4,4,4
1499894501339220,0,-3,0,-19,0,-5,-6,5
1499894501353224,-3,-6,-6,-23,-7,-4,-2,-2
1499894501353224,-13,0,-1,-12,-1,3,3,9
1499894501354224,19,12,22,36,4,-1,-9,-9
1499894501354224,-15,-12,-41,-70,-8,-9,-2,-3
1499894501367229,14,1,0,49,5,4,0,8
1499894501367229,-21,1,11,2,-8,-8,-8,-43
1499894501375242,11,1,5,7,-2,3,-4,4
1499894501375242,-13,0,10,-14,1,-1,4,3
1499894501390231,-6,-3,0,7,-5,-13,-3,56
1499894501390231,15,-1,-13,-10,2,1,-2,20
1499894501392224,9,-4,-10,-31,-2,3,-2,-69
1499894501392224,5,5,25,-10,-4,1,1,29
1499894501413226,-4,-4,-7,49,3,1,1,0
1499894501413226,-3,-2,-3,-14,-1,-4,-1,-26
1499894501414226,-7,-4,2,-26,-7,-4,-8,15
1499894501414226,11,-2,3,1,0,1,3,7
1499894501426226,-3,5,13,41,3,1,-2,-35
1499894501426226,2,2,3,-6,0,1,1,-4
1499894501435227,-10,-8,-19,-31,-2,0,-6,-1
1499894501435227,1,2,4,4,-2,-4,0,-1
1499894501450293,-3,-4,-6,-8,-4,-2,-6,39
1499894501450293,7,4,11,33,7,0,1,23
1499894501452231,6,-2,-6,-57,-4,1,6,3
1499894501452231,-4,-3,-2,79,2,-3,-3,5
1499894501473233,-20,0,5,-66,-8,0,2,2
1499894501473233,10,-2,-9,-1,-2,-1,-5,-20
1499894501474249,-18,6,24,31,5,2,2,-29
1499894501474249,0,-6,-25,13,0,-4,-2,-2
1499894501487239,0,-4,7,-22,-2,2,-1,-2
1499894501487239,-5,-2,-9,12,2,1,2,-6
1499894501495289,-3,3,26,23,2,1,-3,10
1499894501495289,10,-1,-5,5,-4,-3,9,-25
1499894501511235,-12,-1,-4,-23,2,6,3,-24
1499894501511235,7,0,5,-10,-8,-6,-2,-20
1499894501513232,1,-7,-32,16,2,-1,-3,-2
1499894501513232,-14,7,18,18,4,-1,-4,-14
1499894501533236,6,-3,-11,-52,-8,-3,-2,3
1499894501533236,-16,-7,-18,1,-4,-2,0,-17
1499894501534236,0,1,2,-22,-1,-1,2,-7
1499894501534236,6,9,13,44,7,3,0,33
1499894501546279,4,-7,-5,-37,2,-3,0,-5
1499894501546279,2,-10,-2,14,-13,-6,-2,49
1499894501556243,-11,1,7,9,1,-3,1,-47
1499894501556243,6,-4,-6,-14,-1,3,0,13
1499894501570305,1,9,9,8,3,-1,-2,-22
1499894501570305,0,-3,-17,-26,-3,-3,-1,9
1499894501572238,-9,-1,3,-13,2,4,1,24
1499894501572238,-1,-2,-3,7,-7,-2,-4,-38
1499894501593257,-14,-6,-26,13,-3,-1,3,-18
1499894501593257,13,-2,3,5,6,-2,-10,-19
1499894501594255,0,0,-18,-28,-11,-3,-1,10
1499894501594255,-2,-4,5,15,-2,2,-1,-17
1499894501606260,2,-2,3,-13,-2,0,-1,7
1499894501606260,-6,7,18,27,6,2,2,-12
1499894501615257,-5,3,0,4,6,0,-1,13
1499894501615257,19,-6,-23,-34,-12,-9,-16,-60
1499894501630241,-1,3,19,0,3,-1,-1,24
1499894501630241,-8,3,4,30,3,3,3,-5
1499894501632241,-8,-8,-35,-53,0,-3,-1,33
1499894501632241,8,-2,7,16,-10,-5,1,18
1499894501653240,8,6,-1,62,4,-1,-2,-13
1499894501653240,9,-1,-3,-95,-10,-7,-3,-17
1499894501654243,1,-2,8,43,1,0,-2,9
1499894501654243,-14,-9,-16,-38,4,3,1,8
1499894501666275,6,-1,1,24,-3,-3,1,5
1499894501666275,-3,-1,-15,11,0,4,2,27
1499894501675242,0,2,14,27,-1,-2,-2,-27
1499894501675242,-4,-1,-2,-44,1,-1,-3,4
1499894501690241,5,7,22,9,-5,-2,-1,-8
1499894501690241,7,-4,-2,-5,11,6,-6,22
1499894501692241,14,-2,-10,8,-20,-14,-4,26
1499894501692241,-12,4,7,0,4,5,3,-20
1499894501713244,0,0,1,-17,0,-1,0,4
1499894501713244,-4,5,10,-25,0,0,1,-5
1499894501714244,-6,-1,2,56,11,4,3,-14
1499894501714244,1,-2,-4,-39,-7,0,-1,80
1499894501726243,1,-2,-8,-18,-3,-2,-6,-37
1499894501726243,-9,3,7,13,1,-2,0,-3
1499894501735245,-3,-5,-6,20,-4,-6,-1,-4
1499894501735245,0,-2,3,8,4,5,2,11
1499894501750259,-3,6,11,-20,3,4,1,-15
1499894501750259,2,-12,-30,39,-7,-6,-1,-72
1499894501752245,2,3,13,-54,0,-2,-1,1
1499894501752245,-9,1,10,22,-3,-4,-1,-29
1499894501773246,-6,-7,-24,32,4,-2,0,-10
1499894501773246,-5,-5,0,-23,4,0,-2,-8
1499894501774247,18,8,22,-41,3,7,3,92
1499894501774247,15,-11,-46,-19,-3,-1,1,56
1499894501795248,-8,-4,11,90,-1,-6,-2,-5
1499894501795248,-8,1,-5,-4,-4,-1,0,0
1499894501797248,8,4,3,-18,2,6,3,61
1499894501797248,-5,-1,13,8,-3,-5,-1,15
1499894501810262,-6,-3,1,-45,-8,2,-2,2
1499894501810262,10,-1,9,31,0,-8,-4,0
1499894501812248,-8,-2,-8,30,4,4,-2,-30
1499894501812248,-2,4,4,-49,-2,-3,-3,-60
1499894501833251,-1,2,-9,-22,-5,-2,-1,8
1499894501833251,-6,2,31,49,3,-2,1,8
1499894501834249,-5,-2,-18,-61,-3,3,0,-38
1499894501834249,1,-7,-6,64,-3,-3,-3,14
1499894501855251,7,2,6,-32,1,-1,-2,-13
1499894501855251,2,2,-12,-30,-1,4,1,17
1499894501857251,-15,-4,9,25,-1,-4,-4,-23
1499894501857251,-2,0,10,-6,5,3,4,-6
1499894501870256,2,-3,-13,-15,-6,-2,-2,15
1499894501870256,-4,4,3,26,-2,3,2,0
1499894501872251,-9,-10,-11,-38,-14,-10,2,-32
1499894501872251,7,10,16,30,7,5,-3,-13
1499894501893253,-1,-6,-1,-19,-2,-5,-4,1
1499894501893253,-6,3,-4,46,0,-2,2,59
1499894501894252,16,2,23,-18,0,1,-3,-69
1499894501894252,-17,-14,-50,-44,-9,-7,-4,1
1499894501915255,1,2,5,21,3,2,0,-2
1499894501915255,3,1,3,-4,-2,-2,-2,-16
1499894501917254,-5,-5,-8,0,-5,0,-2,-4
1499894501917254,-4,-5,2,-40,-4,-1,-2,-13
1499894501930254,6,1,-13,9,1,-2,0,22
1499894501930254,-6,-8,-2,-26,-6,-4,-2,-16
1499894501937265,0,2,3,37,5,3,-1,13
1499894501937265,-6,7,17,-2,5,0,1,-5
1499894501953258,-1,-2,0,34,-5,-2,-2,-1
1499894501953258,-1,-4,-2,-71,-5,-2,-1,-1
1499894501954257,-3,2,11,-17,3,0,-2,-1
1499894501954257,16,-8,-12,78,-3,-7,-3,51
1499894501975258,-11,4,11,-54,6,-1,0,-11
1499894501975258,-2,-1,2,33,-5,-3,-2,-9
1499894501977260,2,-3,-18,-27,1,1,-3,12
1499894501977260,-6,4,18,-43,-3,0,-2,-39
1499894501990258,2,-3,-3,20,4,-1,-1,-1
1499894501990258,-10,-3,-12,5,-6,-1,-1,-18
1499894501996258,-5,5,5,39,3,-4,-1,25
1499894501996258,6,-4,-13,-21,-4,-1,5,15
1499894502013260,-6,-1,25,25,-2,1,-3,-19
1499894502013260,-3,-9,-37,-77,-6,-9,-5,-10
1499894502014260,-7,-4,-3,67,1,2,-1,15
1499894502014260,-13,11,20,38,8,3,-1,14
1499894502035262,14,0,-3,-39,-2,-3,1,17
1499894502035262,-15,-8,-24,-19,-4,-2,-5,-21
1499894502037263,-3,2,1,7,-1,-2,0,-47
1499894502037263,-1,-4,2,-13,-3,-1,-3,-14
1499894502050320,-16,1,1,12,-4,1,-2,-35
1499894502050320,27,3,19,15,5,3,-4,-4
1499894502056269,-1,-2,-9,30,0,-5,-3,-1
1499894502056269,-1,6,20,-22,0,4,1,-34
1499894502073281,-6,-8,-20,7,-9,-9,1,12
1499894502073281,2,2,-5,29,3,9,3,5
1499894502074267,3,0,15,-3,-2,-6,-1,-2
1499894502074267,4,-4,-11,30,0,-1,-2,19
1499894502095266,5,5,1,-26,4,6,5,71
1499894502095266,-10,-4,13,93,2,-7,-6,-17
1499894502097265,-8,-1,2,-87,-1,3,-1,2
1499894502097265,4,0,-7,19,-7,-4,2,-6
1499894502110302,10,-2,-2,-3,-1,-4,-1,0
1499894502110302,-6,-8,-26,-8,-2,-1,1,-22
1499894502116266,1,-2,4,-34,0,4,0,15
1499894502116266,-7,0,10,11,5,-1,-2,-16
1499894502133267,-5,1,-11,-3,-1,2,-5,-40
1499894502133267,0,3,1,-47,-1,-2,2,11
1499894502134266,1,-8,-9,62,-5,-3,-2,-8
1499894502134266,-8,-8,-30,-54,-9,-4,-6,-10
1499894502172273,-1,4,7,56,2,5,0,5
1499894502172273,1,1,16,-31,2,2,2,10
1499894502173269,-1,1,-14,0,-4,-3,-2,-1
1499894502173269,18,-2,-1,-4,-1,-6,3,97
1499894502174269,-10,-4,11,80,3,1,0,-3
1499894502174269,3,-4,-8,-101,-12,-4,-2,13
1499894502178269,-4,0,2,15,0,-4,-1,36
1499894502178269,21,9,22,13,7,3,2,-15
1499894502193290,-5,-13,-48,13,-5,-7,-8,-71
1499894502193290,3,3,1,-14,1,6,4,0
1499894502194285,2,-9,6,22,0,-3,2,8
1499894502194285,-16,-1,-13,-52,-4,0,-9,-19
1499894502216288,-6,-4,8,17,-3,-4,3,6
1499894502216288,-18,2,3,7,0,1,-2,-5
1499894502217292,16,6,1,-18,1,0,-3,-15
1499894502217292,-6,3,-2,42,1,0,-6,-25
1499894502230292,-2,-6,-2,-54,-5,-1,-1,5
1499894502230292,-6,-8,-10,14,-2,-5,-2,-4
1499894502236273,-1,-4,-10,14,0,0,-1,37
1499894502236273,-7,0,6,23,1,-4,0,-105
1499894502254281,4,4,9,-26,-6,-2,-1,21
1499894502254281,0,5,0,11,6,0,3,6
1499894502255275,-12,-6,-5,0,-2,-6,-6,-24
1499894502255275,-2,-5,2,10,-5,4,4,34
1499894502275274,1,-1,-6,-47,3,2,-1,-19
1499894502275274,-2,-1,8,-8,-6,-11,-4,20
1499894502277278,20,4,1,36,6,9,-2,5
1499894502277278,-8,-1,-4,-33,-2,-1,-1,-15
1499894502289279,-2,-3,-3,-3,1,1,-1,-17
1499894502289279,3,1,2,64,4,3,2,15
1499894502298277,-4,-4,-6,-65,-8,-6,11,-5
1499894502298277,-3,-3,7,41,-2,4,-1,45
1499894502313289,30,17,16,-18,6,1,-6,-28
1499894502313289,-3,-15,-9,-15,-16,-12,-5,-2
1499894502314281,2,6,9,5,1,3,0,7
1499894502314281,-11,0,10,-3,4,0,-2,-27
1499894502335281,-12,-7,-14,-17,-5,-5,1,20
1499894502335281,11,6,16,29,3,-1,-1,8
1499894502337279,-5,2,4,27,4,4,-1,-33
1499894502337279,3,-2,-1,-68,-6,-5,1,45
1499894502349319,-2,-4,-13,-20,-5,2,0,12
1499894502349319,2,1,18,48,3,0,-2,-25
1499894502359317,-7,-2,-3,-16,-2,-1,0,17
1499894502359317,14,2,2,23,1,1,2,-4
1499894502372286,14,-4,-3,2,1,-3,-3,39
1499894502372286,4,8,12,-22,-1,2,3,22
1499894502373301,-17,-11,-29,-30,-7,-3,-3,-24
1499894502373301,4,6,13,46,2,2,1,15
1499894502403283,-17,-4,-11,52,6,-1,-1,-52
1499894502403283,5,-3,-7,-49,-8,1,-2,12
1499894502404286,-2,6,10,28,-1,0,-2,-8
1499894502404286,-1,-4,3,-79,0,-3,-2,-18
1499894502417304,-8,-7,-1,73,-3,-1,0,9
1499894502417304,1,8,11,3,6,6,1,-2
1499894502418283,-10,-7,-14,-54,-10,-4,-2,-6
1499894502418283,7,-3,-9,-22,-3,-5,-1,25
1499894502432289,0,5,19,-7,5,1,3,-6
1499894502432289,-2,-4,-11,4,1,-3,-2,-9
1499894502433283,3,0,7,36,5,1,0,7
1499894502433283,-3,-7,-14,-9,-10,-5,-3,12
1499894502455285,-9,-1,12,8,-2,-1,-1,-15
1499894502455285,-2,2,-8,-8,-1,3,-1,-30
1499894502455285,-5,-3,2,5,-1,-4,-5,-61
1499894502455285,-5,0,0,42,2,-1,-2,-5
1499894502477302,-2,1,14,-4,-5,-3,0,16
1499894502477302,0,-8,-29,-32,-5,-2,0,-2
1499894502478289,21,-2,-12,-9,-1,-1,-2,35
1499894502478289,-19,6,5,60,5,1,5,60
1499894502492291,-2,-3,-4,-89,-5,-3,-2,-12
1499894502492291,-1,2,23,40,0,2,4,10
1499894502493290,0,0,-26,-19,-10,-11,-4,4
1499894502493290,7,-6,6,13,4,10,0,7
1499894502514293,-10,2,15,45,3,-1,-1,30
1499894502514293,-13,-2,-2,-41,-5,-7,-4,-20
1499894502522309,-4,0,5,-58,-3,8,1,10
1499894502522309,2,-1,-4,20,-2,-8,-3,-37
1499894502537291,2,-1,-1,-23,5,2,0,7
1499894502537291,0,-1,5,19,5,2,0,3
1499894502538291,-1,0,-2,-12,-8,-6,0,-2
1499894502538291,-4,-1,-5,-18,-2,-1,-2,-4
1499894502552311,8,-2,-9,2,-1,-1,-1,2
1499894502552311,2,-1,1,62,3,-3,-2,3
1499894502553292,1,1,3,-21,0,0,1,1
1499894502553292,-8,-7,-24,-17,-1,0,-5,-19
1499894502575293,4,-2,-14,-21,-5,-4,-3,11
1499894502575293,-5,-3,-7,20,3,0,-2,-24
1499894502575293,-4,1,2,-13,5,0,-1,-3
1499894502575293,-12,-5,0,25,-10,-11,-5,-39
1499894502597357,4,0,-4,-40,-2,3,0,10
1499894502597357,2,3,1,25,4,3,-5,13
1499894502598294,3,-5,20,-32,1,1,1,13
1499894502598294,-7,-1,-18,19,1,0,1,-17
1499894502612300,4,3,0,7,-3,-5,-2,-45
1499894502612300,-3,3,0,1,2,3,1,36
1499894502613297,2,-3,3,13,-7,0,-1,-6
1499894502613297,2,1,-2,-26,0,-2,-2,-4
1499894502635299,36,-4,-9,29,0,0,2,77
1499894502635299,1,-1,1,-22,3,-2,3,-9
1499894502635299,-8,1,9,13,-4,-1,0,-6
1499894502635299,3,-2,6,-11,2,2,1,2
1499894502657298,-3,4,-8,7,-1,-8,-2,13
1499894502657298,2,0,-1,-3,-3,1,0,-6
1499894502658297,0,-3,12,54,4,-4,-4,9
1499894502658297,7,-1,6,-40,4,6,6,8
1499894502672316,-13,0,-7,38,-7,2,0,0
1499894502672316,10,-2,1,-39,-9,-5,2,16
1499894502673301,-6,-3,-6,4,-3,1,-8,-16
1499894502673301,2,5,12,2,6,3,1,0
1499894502695308,-15,-3,12,17,5,5,1,-34
1499894502695308,-1,-7,-8,-38,-13,-8,-2,-2
1499894502695308,-8,3,-3,63,5,-3,-3,14
1499894502695308,2,0,-7,-63,-8,-4,1,29
1499894502717301,-3,-2,1,-23,4,-1,-4,-15
1499894502717301,-6,0,4,23,3,2,0,0
1499894502718300,2,0,-17,43,3,-1,0,15
1499894502718300,-7,-4,-3,-3,-4,-3,-4,-16
1499894502732320,-10,-7,-32,-32,0,3,1,-4
1499894502732320,-8,-6,1,-17,-5,-6,-8,-38
1499894502733302,20,12,16,-7,1,3,2,1
1499894502733302,-7,-6,-19,50,1,-3,0,-2
1499894502755303,8,4,4,-98,-8,0,-3,-43
1499894502755303,-8,-6,14,54,9,-1,0,-2
1499894502756316,0,-3,3,-26,-3,0,10,59
1499894502756316,4,0,-2,10,-2,-2,-12,-68
1499894502777324,4,1,3,-13,0,-3,1,26
1499894502777324,-4,5,-6,-4,1,-3,2,6
1499894502778325,5,3,5,27,-1,7,-2,-16
1499894502778325,-6,-8,-9,21,3,-1,1,14
1499894502792306,-11,-7,-10,-14,-3,-4,-1,-3
1499894502792306,8,1,4,-26,-5,-2,-5,-27
1499894502793324,-1,2,4,35,5,1,0,-10
1499894502793324,5,-6,2,-29,-9,-7,-1,11
1499894502814306,-1,7,9,41,6,4,-3,-11
1499894502814306,5,-7,-5,10,-1,1,2,15
1499894502815306,-6,-3,-9,-37,-4,-4,-1,6
1499894502815306,7,1,-1,28,2,1,-2,27
1499894502837335,-5,1,7,-12,-4,-3,0,10
1499894502837335,6,5,6,16,0,1,1,21
1499894502838310,4,-2,8,20,0,-1,-2,34
1499894502838310,-1,0,-6,-17,-2,-8,-4,-40
1499894502852341,-22,-9,-11,7,-1,4,-2,-25
1499894502852341,14,4,-3,-28,1,0,-2,1
1499894502854323,-8,-9,-15,-3,-4,-5,-5,-31
1499894502854323,3,6,9,-5,-1,-4,1,16
1499894502875311,-4,-7,-2,7,0,0,11,2
1499894502875311,-7,-3,-2,26,-1,4,-5,-21
1499894502876330,-5,4,11,-3,3,0,-2,-13
1499894502876330,7,1,-7,-51,-3,4,0,17
1499894502897384,-2,-4,-3,40,-3,-6,-4,18
1499894502897384,-8,-2,0,-18,0,5,3,12
1499894502898311,20,-6,-15,-24,-2,-5,-1,-56
1499894502898311,-11,4,20,15,1,3,-1,-19
1499894502912317,3,-3,5,1,-4,0,-3,-1
1499894502912317,-14,0,-1,13,4,-6,-1,7
1499894502913313,-4,-7,5,-43,-3,-1,-4,-4
1499894502913313,-1,5,-14,-14,-4,2,2,10
1499894502934332,0,-5,9,52,-6,-7,-9,29
1499894502934332,-3,-1,-9,-55,-2,-1,0,-16
1499894502935319,2,0,-14,19,4,1,4,-22
1499894502935319,-7,-2,12,15,3,1,-2,11
1499894502957320,11,3,5,-22,-4,-13,-1,10
1499894502957320,-9,-9,-24,-11,-4,7,-3,1
1499894502958320,-1,2,5,24,-3,-1,-2,0
1499894502958320,3,-1,0,3,-4,-4,0,3
1499894502972316,-2,2,6,18,3,4,-3,-23
1499894502972316,-5,3,-7,0,2,-3,-1,-3
1499894502973320,-7,-2,-4,-28,-6,-4,0,3
1499894502973320,-3,-6,-18,-30,0,6,-1,-7
1499894503003318,-5,-1,15,12,-1,-5,-2,2
1499894503003318,9,3,3,12,-1,0,0,2
1499894503004321,-5,-2,-7,7,-2,-2,-3,25
1499894503004321,9,-4,-15,-14,-1,-3,-1,9
1499894503017324,-6,2,-6,-5,-1,2,0,-16
1499894503017324,-1,-4,-2,21,-1,-1,0,5
1499894503018318,-1,0,1,-17,-5,-4,0,13
1499894503018318,5,5,28,16,5,3,1,3
1499894503032339,1,-14,-37,-31,-4,1,-2,7
1499894503032339,0,4,4,-2,-4,-4,-1,0
1499894503033318,-1,8,10,37,10,3,0,-2
1499894503033318,-8,-8,-12,-58,-12,-11,-3,-10
1499894503063323,-2,4,7,8,0,7,1,-2
1499894503063323,-2,-5,-2,25,3,-11,-2,-2
1499894503063323,5,-3,4,-70,-1,8,-1,-4
1499894503063323,-3,4,16,61,4,0,1,18
1499894503086328,-1,-2,-5,1,4,-1,1,-12
1499894503086328,2,-4,-18,-42,-8,-4,-1,2
1499894503086328,-30,1,15,29,3,-6,-3,-25
1499894503086328,0,-8,-25,67,2,2,-2,24
1499894503094325,15,4,13,-67,-10,-2,-1,-17
1499894503094325,-5,-3,15,22,3,3,-3,-7
1499894503094325,-2,0,-20,-34,-6,-5,-2,3
1499894503094325,-9,-4,-2,28,-3,-3,-1,-3
1499894503114327,-7,-5,3,21,2,-3,-1,-1
1499894503114327,2,5,12,10,2,5,3,2
1499894503115324,-3,-13,-33,27,-1,-5,-3,2
1499894503115324,6,4,-5,-45,-5,-5,-2,-4
1499894503137342,7,3,-4,-34,0,9,3,6
1499894503137342,2,-2,2,4,1,0,0,-15
1499894503138331,-1,6,23,41,7,1,-1,3
1499894503138331,-2,-3,-12,-21,-6,1,1,10
1499894503152360,2,-7,-13,-12,-2,-8,-5,-21
1499894503152360,-2,3,1,12,0,-2,-5,-29
1499894503153328,7,0,17,35,2,1,1,11
1499894503153328,-2,-1,3,28,2,0,1,-1
1499894503175330,-7,5,2,17,3,-1,2,-8
1499894503175330,-4,-2,-16,-59,-3,0,0,11
1499894503175330,2,0,5,-19,-12,-7,-6,-1
1499894503175330,-6,5,26,12,2,1,0,-21
1499894503197390,4,-7,-29,24,4,5,2,13
1499894503197390,14,-2,-5,0,-3,-4,-4,26
1499894503198332,-2,-5,-20,-16,-3,1,-1,1
1499894503198332,1,9,15,-33,2,0,1,1
1499894503212350,-9,-2,1,66,0,-8,-1,-3
1499894503212350,-3,-7,-1,-15,-11,2,-2,8
1499894503213333,2,1,8,4,3,0,-1,-8
1499894503213333,0,-4,-16,-32,-8,-4,-3,-14
1499894503234354,1,6,14,7,5,2,1,9
1499894503234354,-9,2,-13,-18,1,-4,0,-3
1499894503235347,2,-6,-4,-26,-2,1,2,6
1499894503235347,-3,-3,3,35,1,1,-1,-16
1499894503257336,-4,4,6,15,1,-3,-2,-6
1499894503257336,0,-5,6,-15,-4,-4,-3,-54
1499894503258334,9,-2,-22,-37,-9,-6,0,15
1499894503258334,-8,1,4,40,9,5,-1,-7
1499894503272337,-7,-1,0,-7,-1,-1,-3,-1
1499894503272337,4,3,6,-1,1,2,2,37
1499894503279336,-1,1,4,-9,2,-1,0,-6
1499894503279336,3,-6,-9,-27,-5,-8,-1,-16
1499894503295343,-3,-7,-28,-10,-6,3,-2,14
1499894503295343,2,3,10,19,4,5,2,1
1499894503295343,3,-5,3,28,2,-3,0,3
1499894503295343,-2,3,-1,-47,-11,-4,-2,9
1499894503317335,1,2,12,-40,1,-2,-2,4
1499894503317335,-8,-2,-4,37,6,0,4,-14
1499894503318335,-6,0,-26,-68,-9,3,-2,-13
1499894503318335,4,-7,-1,38,1,-2,1,-7
1499894503331355,-2,0,12,3,0,-3,-4,24
1499894503331355,3,2,3,13,-2,-5,1,-1
1499894503340338,-23,4,9,-6,-1,1,-4,-50
1499894503340338,-2,-3,-8,-7,4,1,0,-5
1499894503355338,2,-3,-7,-30,-3,-2,-2,8
1499894503355338,-16,0,4,-8,-6,-2,-4,-20
1499894503355338,-3,1,11,63,4,-1,-1,3
1499894503355338,5,-4,-5,-51,-7,-8,-4,17
1499894503377359,-4,1,3,29,1,3,-1,-21
1499894503377359,3,2,1,10,4,0,0,1
1499894503378358,-5,-4,-17,-1,-5,-5,-3,-13
1499894503378358,-2,-2,8,28,3,3,0,-1
1499894503391359,-8,-3,5,37,-1,-7,-3,14
1499894503391359,3,0,2,-50,-7,0,-2,3
1499894503399380,12,-4,-1,-11,-2,0,-4,18
1499894503399380,3,5,6,5,2,-5,-2,0
1499894503414363,-1,2,-9,12,4,4,2,-4
1499894503414363,-4,-2,-6,-3,0,2,-2,11
1499894503415344,-5,1,3,6,1,0,1,1
1499894503415344,-1,-2,4,23,1,3,0,-1
1499894503437361,7,0,2,-21,-4,-3,-2,-6
1499894503437361,0,-3,-9,9,-3,-5,-2,12
1499894503438342,6,4,6,-14,3,0,0,1
1499894503438342,-3,-2,-5,7,-1,0,-2,-3
1499894503451401,2,1,-5,15,1,-11,-2,-2
1499894503451401,0,-2,0,-76,2,9,2,7
1499894503460409,0,-2,3,103,-2,-3,-3,3
1499894503460409,0,4,-3,-49,-2,3,0,0
1499894503474344,-3,-9,-8,-1,-7,-2,-2,-6
1499894503474344,0,-3,-6,22,0,-5,1,0
1499894503475343,1,0,0,-26,1,-1,-1,6
1499894503475343,-4,1,8,15,2,2,-1,-6
1499894503497411,6,0,-12,-27,-3,1,0,10
1499894503497411,1,-1,-2,44,1,-5,-2,3
1499894503498352,1,1,0,-80,-1,3,-2,25
1499894503498352,-12,-2,-3,36,1,-4,-1,-10
1499894503511346,1,0,13,-19,-1,1,-3,-9
1499894503511346,-13,-2,-1,22,1,0,0,-7
1499894503519389,-1,-3,-4,-9,1,-2,0,-20
1499894503519389,4,8,3,-6,4,0,-5,-25
1499894503534370,-3,-6,-5,-18,-10,-5,-3,-18
1499894503534370,1,1,17,35,-3,-4,-3,-2
1499894503535348,0,-4,-17,-2,-1,5,1,-8
1499894503535348,-4,-8,-5,-5,-2,-3,0,8
1499894503557354,3,5,4,21,3,2,1,0
1499894503557354,6,1,-2,-51,-2,-4,-3,2
1499894503558360,-2,3,7,13,-3,-5,-1,21
1499894503558360,6,1,5,-21,-1,4,3,29
1499894503571398,-4,-8,-25,22,-4,-4,-6,-12
1499894503571398,-3,1,10,21,3,2,-2,-1
1499894503580351,-3,-5,-14,-6,-1,-3,-2,1
1499894503580351,1,3,-5,8,1,2,1,-1
1499894503594353,-10,3,20,-5,-2,-2,0,-18
1499894503594353,-1,1,3,-9,-2,0,2,6
1499894503595351,-6,-14,-29,-56,-9,-6,-9,-82
1499894503595351,-3,-8,-6,40,-5,-3,-5,-8
1499894503617389,3,6,6,-12,1,1,2,9
1499894503617389,4,-2,-10,23,-1,1,-1,4
1499894503618370,-5,2,4,-3,2,1,2,12
1499894503618370,-7,-4,-5,3,2,-2,0,-2
1499894503631353,5,-2,5,27,0,-2,-4,9
1499894503631353,-9,1,-4,4,2,-1,-2,-12
1499894503639355,14,3,13,9,1,0,0,26
1499894503639355,-5,-1,3,-37,-8,-1,-3,-10
1499894503654377,6,6,20,31,1,-1,1,24
1499894503654377,-9,-11,-41,-13,-7,-3,-2,-12
1499894503656362,0,1,9,3,2,5,2,5
1499894503656362,1,-2,-4,48,5,1,1,0
1499894503677359,-1,4,15,-12,1,-2,1,-3
1499894503677359,0,1,5,-38,-8,-4,-2,-15
1499894503678358,1,1,0,9,2,-3,-2,3
1499894503678358,-3,-4,-3,0,-2,0,-2,7
1499894503700423,-14,1,2,-31,1,-2,-3,-26
1499894503700423,4,5,13,16,4,2,1,-2
1499894503701408,-5,-5,-23,-7,-3,-2,-1,5
1499894503701408,4,3,9,-29,-1,-3,-1,2
1499894503714362,5,-2,-12,-21,-1,2,0,-7
1499894503714362,0,-3,9,48,3,-4,-1,10
1499894503722379,1,0,21,6,0,0,-3,-1
1499894503722379,9,-1,-6,-27,-8,-3,-3,34
1499894503737361,1,-3,-21,-26,-9,-1,1,-6
1499894503737361,5,1,9,-10,-1,-2,-2,12
1499894503738366,-9,4,10,20,3,-1,2,7
1499894503738366,3,-2,-16,12,-3,-8,-2,-6
1499894503760424,5,3,15,-4,2,7,4,37
1499894503760424,-7,-6,-15,-9,0,0,-1,-1
1499894503761366,0,-2,-3,6,-4,-3,-1,9
1499894503761366,-5,-1,4,-4,-1,-2,-1,-11
1499894503774361,0,-1,-2,-10,1,1,-1,1
1499894503774361,0,-5,-4,-3,-1,-3,0,-6
1499894503775362,-2,2,6,19,0,1,-2,-1
1499894503775362,10,1,1,8,1,1,-3,-13
1499894503797406,-6,-4,-9,-27,-1,-1,0,-20
1499894503797406,2,-2,-5,-27,-4,-1,-1,13
1499894503798380,0,5,12,37,-1,0,0,-4
1499894503798380,-3,-8,-13,-2,-2,-3,-2,5
1499894503820418,1,-1,8,53,0,-1,-3,-3
1499894503820418,1,3,-1,3,1,2,-1,-2
1499894503821365,-1,-3,8,-73,-3,-3,-2,1
1499894503821365,1,4,0,41,2,-1,0,10
1499894503834365,-4,-12,-11,31,1,1,2,-2
1499894503834365,1,-1,-7,-70,-6,-2,2,4
1499894503836375,5,7,15,35,9,2,4,0
1499894503836375,-12,-9,-18,-66,-6,-6,-4,-24
1499894503857373,-1,-1,-16,50,-1,-3,-3,-14
1499894503857373,-4,-1,11,17,2,-1,1,-16
1499894503858367,-13,-1,-3,9,2,3,-2,-30
1499894503858367,-3,-7,-14,-33,-3,-1,-1,-13
1499894503880371,7,4,14,-16,-4,-4,-3,22
1499894503880371,-3,-3,0,7,0,-3,-2,-11
1499894503881366,-1,-6,-12,-3,-5,-6,-2,4
1499894503881366,-2,4,6,-4,2,3,0,5
1499894503894374,-3,-5,-9,8,0,1,-2,-7
1499894503894374,2,1,7,-47,1,5,1,13
1499894503895369,1,1,-2,5,-4,-6,-2,8
1499894503895369,1,4,12,15,1,0,2,5
1499894503917434,-1,-6,-12,-25,-2,1,1,3
1499894503917434,1,2,-8,5,-1,-3,-2,-13
1499894503918376,-2,-8,-9,21,-5,-6,-3,-1
1499894503918376,-6,-2,7,32,1,-1,-2,-9
1499894503940378,-2,4,8,-30,0,1,1,1
1499894503940378,0,-3,-9,8,-1,1,-3,6
1499894503941371,1,1,-6,-14,-1,1,-1,2
1499894503941371,1,3,3,9,-1,-3,-2,-6
1499894503954383,-2,0,-8,-34,-4,-4,-1,1
1499894503954383,0,-1,3,23,-1,1,0,5
1499894503955374,4,1,0,16,0,1,1,2
1499894503955374,-1,-4,8,-22,-6,-1,0,4
1499894503977373,-1,-2,-10,-17,-4,-4,0,-11
1499894503977373,-2,-2,-5,-3,-2,0,0,3
1499894503978394,0,0,-1,14,-2,0,0,1
1499894503978394,-1,2,4,-3,2,3,1,3
1499894504000439,-2,2,2,-5,1,0,0,-2
1499894504000439,0,0,-2,20,2,-1,-1,-1
1499894504001381,-1,-3,-1,-19,-1,3,2,1
1499894504001381,0,-1,-3,-3,-4,-2,-2,0
