timestamp,emg1,emg2,emg3,emg4,emg5,emg6,emg7,emg8
1499894122096550,-26,-4,-4,-74,-18,-6,21,-1
1499894122096550,-11,-7,-26,39,0,-1,-1,-7
1499894122097541,-26,-7,-11,21,-5,-5,-13,34
1499894122097541,-9,-3,-3,7,0,-1,-12,-20
1499894122111552,4,-4,17,22,-3,-6,-17,-4
1499894122111552,-9,5,-5,-21,-3,0,16,17
1499894122112544,-7,-3,-3,-32,3,3,-4,-79
1499894122112544,4,-1,-6,32,2,-4,-6,-1
1499894122134546,-15,5,-16,-84,7,7,5,-6
1499894122134546,-22,-5,8,49,-2,-6,-9,-21
1499894122135544,-6,3,8,52,3,4,16,53
1499894122135544,52,5,13,-27,-10,-8,-15,-66
1499894122157544,-27,-2,20,43,9,-1,1,-42
1499894122157544,3,-1,-25,14,9,0,-1,19
1499894122157544,6,-1,9,-12,-1,-2,6,14
1499894122157544,-14,-9,-16,-55,-17,-8,-20,21
1499894122171545,3,3,22,37,10,6,10,23
1499894122171545,2,1,-29,1,-11,-4,-8,-38
1499894122172546,7,-3,-1,-42,3,-1,-10,9
1499894122172546,-22,-3,13,78,5,3,12,-11
1499894122194555,9,-3,-6,-23,-9,-8,-22,20
1499894122194555,4,4,12,67,7,1,6,58
1499894122195553,13,4,23,62,5,2,-6,-53
1499894122195553,-60,-10,-15,-113,-21,-9,-17,24
1499894122217549,-11,2,-10,76,4,1,39,3
1499894122217549,15,-3,1,-1,5,2,-16,-17
1499894122217549,-2,-7,-26,-26,-8,-6,-1,9
1499894122217549,19,5,7,31,8,9,4,-18
1499894122232548,-7,-1,6,10,-3,-3,-18,-6
1499894122232548,-3,4,4,-32,-3,-1,3,20
1499894122233549,44,6,4,-40,4,-1,5,41
1499894122233549,-15,-8,-29,-8,-8,-1,16,4
1499894122254550,15,2,12,23,-7,-6,-23,-60
1499894122254550,-11,4,14,-3,5,7,13,-61
1499894122255549,-17,-11,-44,-17,-7,-5,-10,34
1499894122255549,-6,4,9,17,5,-1,5,-24
1499894122277557,19,3,-5,18,2,0,2,32
1499894122277557,11,1,-1,38,2,-4,-28,39
1499894122277557,-43,-7,16,-65,-3,1,-3,-28
1499894122277557,18,-7,-29,8,-14,-12,-1,84
1499894122291553,8,-3,-16,-26,6,5,3,45
1499894122291553,-8,2,1,-86,-9,0,4,-15
1499894122292551,6,-10,-15,101,-7,-11,-20,27
1499894122292551,24,6,13,-50,0,4,25,44
1499894122314553,0,2,0,4,4,1,-3,-5
1499894122314553,13,-7,-9,44,-5,-7,-2,41
1499894122315555,-2,5,12,-63,-3,6,22,-2
1499894122315555,22,5,5,41,10,3,-6,-87
1499894122337564,-10,-3,-30,-113,-9,-5,-6,-16
1499894122337564,2,-3,11,49,10,-3,-18,-26
1499894122338560,2,-9,-4,18,-12,4,32,-58
1499894122338560,3,10,54,107,8,-5,-1,24
1499894122350554,9,-4,-20,-74,-3,-2,-1,-49
1499894122350554,-14,-6,-20,57,-3,-4,-1,-27
1499894122358557,3,4,-2,-69,-8,-2,-6,-1
1499894122358557,-12,2,17,38,8,3,-2,25
1499894122374558,-16,-4,9,10,-7,-4,2,52
1499894122374558,15,5,-6,-64,-1,2,14,11
1499894122375558,-32,-8,-8,108,-1,-5,-15,-63
1499894122375558,-36,-2,6,-31,0,2,9,-8
1499894122396556,4,-3,-1,2,7,-1,-9,20
1499894122396556,-15,-14,-39,30,-19,-11,-13,-53
1499894122397557,4,12,20,-19,7,4,20,18
1499894122397557,-22,-6,-10,-110,-9,2,-5,-1
1499894122411560,-2,4,9,37,2,1,0,-30
1499894122411560,-7,-1,0,-26,-1,-2,12,1
1499894122413559,12,11,29,-22,8,2,-22,15
1499894122413559,17,-6,-37,77,-9,-9,-5,40
1499894122434560,0,3,4,24,1,-1,-22,-30
1499894122434560,8,1,3,-26,2,7,48,2
1499894122435560,-11,-5,13,8,-6,-5,-14,35
1499894122435560,39,1,-5,-50,3,0,9,45
1499894122456562,-28,-2,1,-23,-6,-3,-2,30
1499894122456562,-27,-1,-2,-27,-1,0,-6,-39
1499894122457562,29,-2,0,122,-3,-4,-8,48
1499894122457562,6,5,5,-99,3,4,-1,-33
1499894122471562,-1,-4,13,99,-2,-1,4,-11
1499894122471562,0,1,-7,-76,-7,0,-10,18
1499894122472564,-9,-4,-13,-24,1,-1,4,-10
1499894122472564,6,4,8,42,2,0,-5,-45
1499894122494563,19,1,3,48,1,-2,-10,9
1499894122494563,-32,-12,-43,-111,-3,6,4,-15
1499894122495563,-11,-4,19,75,-4,-4,-6,-76
1499894122495563,1,-2,-13,27,0,-2,5,-37
1499894122516568,-2,7,7,34,12,6,3,18
1499894122516568,22,-1,-9,13,-10,-6,-6,-25
1499894122517564,-21,-6,-16,-15,-10,-9,-12,-43
1499894122517564,5,-6,-5,21,1,-5,-16,1
1499894122530567,-36,1,15,-44,6,-1,14,6
1499894122530567,11,-5,0,39,-1,-2,-11,2
1499894122538568,7,-5,-19,-65,-5,-4,1,85
1499894122538568,-10,-1,6,29,2,-2,-6,-14
1499894122554569,-5,-4,4,10,-4,-3,0,-95
1499894122554569,10,8,24,-7,6,1,-2,37
1499894122555568,-2,-9,-24,12,0,-1,-4,6
1499894122555568,-16,0,3,-43,-2,2,1,-30
1499894122576569,0,2,4,16,-1,-4,-7,-48
1499894122576569,-4,-13,-29,-29,-4,-2,2,10
1499894122577568,7,11,26,0,-1,2,-2,-83
1499894122577568,-23,-4,-9,-29,3,0,2,44
1499894122590570,4,3,-6,-28,-4,6,8,-9
1499894122590570,0,5,24,127,1,-5,-12,6
1499894122598569,16,-8,2,-53,0,-1,-6,57
1499894122598569,1,1,-2,-14,1,1,3,44
1499894122614575,-9,-1,-13,34,5,1,0,26
1499894122614575,10,6,36,-55,3,0,3,16
1499894122615576,1,1,-13,13,-8,-2,5,27
1499894122615576,10,3,9,10,3,0,-7,-8
1499894122636573,20,-13,-18,60,-11,-3,2,47
1499894122636573,17,2,-5,-24,3,-1,3,37
1499894122637572,-15,0,15,27,8,0,-6,-48
1499894122637572,-1,-9,-24,-71,-11,1,23,41
1499894122650574,-21,-4,-13,-43,0,0,2,57
1499894122650574,23,3,9,53,-2,1,-3,20
1499894122658573,17,7,-6,-52,9,1,-2,-29
1499894122658573,11,-5,23,34,-1,-3,3,53
1499894122674574,12,4,-1,-69,0,4,-3,-5
1499894122674574,-11,-6,-6,-3,-14,-2,2,11
1499894122675574,-3,-1,-7,35,13,4,5,22
1499894122675574,-3,5,-4,16,-2,-1,-6,-42
1499894122696576,10,-8,-28,-51,-5,-4,-7,60
1499894122696576,11,3,5,-15,-7,-4,-2,-15
1499894122697575,-35,-7,9,-9,1,1,1,-4
1499894122697575,-3,-9,-11,-20,-12,-6,-10,-103
1499894122710576,6,1,7,36,4,1,-2,4
1499894122710576,-16,-2,-4,-39,-2,0,0,-26
1499894122718577,0,0,1,32,-1,-2,2,36
1499894122718577,6,-1,21,11,5,1,0,23
1499894122734579,15,1,-11,57,-3,-6,-1,-7
1499894122734579,-1,-6,-15,-60,-13,-4,-3,-2
1499894122735584,-3,-4,-3,25,-5,-3,-6,-6
1499894122735584,-1,5,6,4,8,7,16,75
1499894122756578,-4,-5,-9,7,-3,-7,-4,-14
1499894122756578,-6,5,1,58,12,5,1,-13
1499894122757580,-1,5,11,-48,-1,3,8,-27
1499894122757580,19,0,-14,-4,-2,-5,-12,-29
1499894122770579,2,-8,-6,87,0,-2,2,66
1499894122770579,-2,-2,7,-62,-7,-3,-2,65
1499894122778580,-11,-3,-8,-22,4,3,8,32
1499894122778580,-7,7,27,75,-1,-2,-2,-30
1499894122801581,-10,-19,-45,-12,-6,-7,-11,-10
1499894122801581,16,5,10,-43,5,3,-6,12
1499894122802580,-2,2,26,29,-2,-2,-3,25
1499894122802580,-9,-3,-43,-47,0,-2,-9,12
1499894122816584,-18,-13,4,72,0,0,9,-10
1499894122816584,13,2,0,-66,-9,-5,3,-36
1499894122823583,40,5,4,-12,3,3,6,59
1499894122823583,-14,1,8,12,-1,-2,-8,-91
1499894122830585,0,7,6,-31,-4,-2,1,-1
1499894122830585,-31,-2,-5,-2,16,6,4,-13
1499894122838582,6,-4,-11,13,-11,-3,-2,-16
1499894122838582,12,1,12,3,0,0,7,59
1499894122854583,-9,1,-1,-33,-11,-6,-10,-70
1499894122854583,-7,-2,17,66,3,-2,5,-43
1499894122855585,16,3,-5,3,5,0,-6,-19
1499894122855585,5,-7,-24,-33,-4,0,2,24
1499894122876610,1,7,18,-53,3,4,-2,-7
1499894122876610,10,5,25,60,3,0,3,-25
1499894122878586,-49,-12,-34,-6,-10,-9,-4,-29
1499894122878586,1,-1,-3,-10,-4,0,5,60
1499894122899588,3,0,34,-5,2,-4,-1,-34
1499894122899588,-4,0,-6,5,-3,-2,-4,-1
1499894122901588,10,2,-12,4,-6,3,3,3
1499894122901588,10,-3,-1,-29,2,-1,4,-18
1499894122913588,-25,5,1,-34,-10,2,1,5
1499894122913588,2,-18,-19,-40,-15,-15,-10,-5
1499894122922590,4,6,25,-4,3,2,8,17
1499894122922590,7,-4,-16,13,-4,-3,-11,0
1499894122936590,14,8,12,17,10,6,5,-25
1499894122936590,2,4,3,50,6,4,7,-5
1499894122938589,-26,-15,-36,-27,-9,-9,-14,-34
1499894122938589,-1,2,11,-40,-1,-2,-2,-60
1499894122959604,7,-1,13,22,1,-5,-4,19
1499894122959604,-6,-5,-24,12,5,1,-5,12
1499894122961590,7,-1,10,-24,-3,0,-4,8
1499894122961590,3,1,-7,1,2,1,4,50
1499894122973591,0,-9,-16,-15,-7,-4,-9,20
1499894122973591,2,3,15,30,11,3,0,15
1499894122982592,18,3,-6,35,2,0,-4,71
1499894122982592,-4,-2,-10,43,1,-3,-3,-78
1499894122996593,17,-1,-2,-93,-8,-3,11,6
1499894122996593,6,0,14,74,1,-1,-9,-2
1499894122998592,7,0,-11,18,8,0,2,8
1499894122998592,-11,-6,-14,26,-16,-3,-8,4
1499894123019594,-5,-5,10,-57,-6,-3,-3,0
1499894123019594,-2,4,2,0,1,0,3,3
1499894123021595,4,0,2,-29,-1,-4,-6,-92
1499894123021595,-4,5,25,36,7,1,3,-8
1499894123033595,-16,3,-44,-19,3,5,2,49
1499894123033595,10,-14,-6,-88,-19,-10,-4,38
1499894123042597,-1,2,21,32,-3,-6,-4,65
1499894123042597,1,3,-6,-43,7,3,0,-41
1499894123056596,-17,-10,-10,48,-2,-3,-3,-5
1499894123056596,0,3,-15,-21,4,5,3,2
1499894123058596,-17,2,20,34,-3,-4,-2,-64
1499894123058596,6,-7,-1,-46,-4,-4,-2,58
1499894123079599,34,14,35,117,13,5,11,35
1499894123079599,-42,-13,-22,-75,-16,-6,-4,-46
1499894123081599,-13,-1,-7,-35,-6,6,5,-76
1499894123081599,-10,-12,0,36,-8,-7,-2,-1
1499894123093597,2,0,3,-8,1,0,2,-27
1499894123093597,7,9,6,71,5,2,-1,8
1499894123102598,-7,5,6,-25,4,2,2,35
1499894123102598,-3,0,18,54,3,-1,-2,71
1499894123116601,8,-6,-20,-45,-3,-1,2,69
1499894123116601,17,2,-8,23,1,0,-1,18
1499894123118601,9,-3,-14,-50,1,0,2,25
1499894123118601,-11,-1,-26,-1,-5,-2,-2,-17
1499894123139604,-6,6,22,-12,4,1,-4,-23
1499894123139604,-2,4,13,69,2,-3,-1,74
1499894123141601,12,-4,-6,46,6,0,6,36
1499894123141601,-6,2,6,-47,-4,-1,2,-14
1499894123153602,7,-3,-19,-32,-15,-4,5,-11
1499894123153602,7,-5,0,28,0,-2,-5,-20
1499894123160602,-44,9,14,5,8,3,9,14
1499894123160602,1,-5,-10,8,1,3,0,-1
1499894123176618,-23,-5,-9,1,-2,-4,-15,-112
1499894123176618,-11,3,15,-25,-2,-3,0,-34
1499894123178603,19,-2,-23,-15,-3,-5,-6,-25
1499894123178603,-20,-4,-13,-1,-2,-1,0,-33
1499894123199604,10,0,38,38,0,1,-1,51
1499894123199604,1,1,-21,-8,3,0,-3,-15
1499894123201604,3,-5,2,-35,-11,-5,-8,-3
1499894123201604,-5,8,3,37,1,1,0,-16
1499894123213606,5,-15,-8,-81,-6,-3,5,29
1499894123213606,3,2,18,44,6,3,2,16
1499894123220606,-3,0,4,40,5,2,1,-5
1499894123220606,8,4,-8,-71,-2,1,-3,22
1499894123236609,0,-1,-5,35,0,-3,-3,-12
1499894123236609,-7,-3,-14,-39,-1,4,0,-5
1499894123238606,15,-10,8,-10,-7,-9,-6,56
1499894123238606,-1,1,13,-5,-3,-2,-7,-9
1499894123259608,23,8,3,69,8,1,-7,16
1499894123259608,-34,-8,-6,-60,-3,0,11,-30
1499894123261608,8,3,-3,25,3,5,-4,-30
1499894123261608,4,1,2,9,3,0,10,47
1499894123273609,-28,1,10,-22,-2,-2,-16,-82
1499894123273609,6,1,-4,30,4,-1,-2,-24
1499894123280609,-6,-9,-7,6,-5,2,9,67
1499894123280609,6,7,24,10,7,1,-3,5
1499894123296611,-9,-7,-22,-32,-11,-4,1,-12
1499894123296611,-1,5,-2,-30,-1,-1,2,40
1499894123298612,1,1,16,20,-1,-2,-5,-13
1499894123298612,-2,-12,-21,-22,-3,-3,-2,-18
1499894123319614,6,6,10,32,2,1,5,54
1499894123319614,7,5,0,-37,2,-3,-4,7
1499894123321611,1,1,-9,54,-1,5,1,-8
1499894123321611,2,-13,-16,-73,-19,-10,-6,-18
1499894123333612,19,5,-9,-28,7,2,1,1
1499894123333612,5,-6,22,111,1,0,0,40
1499894123340612,6,12,22,-7,11,1,1,-35
1499894123340612,-7,-7,-33,26,-6,-2,-4,-17
1499894123356612,-18,-5,-7,26,-5,-2,-3,-16
1499894123356612,11,3,4,-37,-1,2,1,3
1499894123358613,-1,-4,-14,34,-5,-6,-5,14
1499894123358613,10,1,5,17,4,2,0,2
1499894123379616,10,3,1,-35,1,-2,-2,12
1499894123379616,-5,-5,-2,9,-1,-2,-6,-20
1499894123381614,-20,-2,-9,-53,-2,-4,-14,-94
1499894123381614,-12,7,9,30,7,3,9,20
1499894123393617,5,-9,-13,-30,-7,0,4,30
1499894123393617,2,-1,5,21,-2,-2,2,-13
1499894123401615,-1,-4,-7,-24,-8,-5,-4,17
1499894123401615,-4,4,20,17,4,-2,-1,2
1499894123416629,-15,-2,5,2,5,3,-3,-2
1499894123416629,10,-6,-11,-33,-1,2,-3,21
1499894123423619,0,-4,-24,25,-2,-3,3,11
1499894123423619,3,5,16,-10,-5,1,-2,-17
1499894123439628,-13,0,14,-6,5,-2,1,31
1499894123439628,-38,-9,-18,16,-4,-3,-6,-95
1499894123441620,7,1,16,36,2,0,-1,38
1499894123441620,1,-6,5,-84,-7,-7,-3,69
1499894123453617,1,-7,-29,11,3,1,-4,-33
1499894123453617,16,10,13,-24,5,1,2,20
1499894123462620,-9,-8,-6,58,-4,-4,-3,-5
1499894123462620,3,-4,-13,16,-11,-4,1,-13
1499894123476621,1,0,5,25,1,-1,-3,-4
1499894123476621,-8,-2,-9,-8,-4,-6,-5,7
1499894123478620,6,3,10,-12,7,5,7,15
1499894123478620,7,-2,4,27,8,1,-2,-5
1499894123500621,-6,-2,-5,0,-10,-5,-2,-51
1499894123500621,9,-2,7,6,-4,-2,3,6
1499894123501621,-18,6,10,-77,1,0,-4,-3
1499894123501621,2,-5,-26,0,-9,-3,-6,-46
1499894123513622,7,2,-5,31,5,3,0,5
1499894123513622,-9,-12,-7,1,-4,-5,-3,69
1499894123529625,-6,2,-1,-28,-10,-6,-9,-42
1499894123529625,-1,7,16,41,8,1,4,13
1499894123536624,-35,-3,11,40,4,-1,3,-7
1499894123536624,4,-5,-15,-4,-8,1,1,33
1499894123538625,10,4,1,-39,-2,1,6,-17
1499894123538625,-5,-8,-29,25,3,0,-5,9
1499894123559625,11,1,12,-51,1,-1,1,48
1499894123559625,5,5,4,37,-5,-1,-4,-24
1499894123560625,7,-7,-2,33,4,-3,6,39
1499894123560625,9,8,1,-25,-7,0,0,-13
1499894123573625,4,-10,8,-16,-2,-4,0,35
1499894123573625,-8,1,-1,11,8,4,-2,-26
1499894123582627,18,2,16,-61,-5,2,4,18
1499894123582627,-19,-9,-29,10,4,1,-2,-43
1499894123596628,20,1,-7,11,-12,-5,-2,-2
1499894123596628,-4,4,9,-14,-1,0,1,-8
1499894123598629,0,-5,8,35,-3,-3,-3,-7
1499894123598629,9,4,21,-18,4,-2,0,75
1499894123619629,-3,-2,-21,-23,-2,6,-1,-25
1499894123619629,5,0,10,19,5,-3,-3,-32
1499894123620628,-4,-2,-32,-23,-4,-1,-5,5
1499894123620628,-3,-1,34,43,7,3,4,-9
1499894123633630,-3,1,-13,-78,-12,-4,-1,-43
1499894123633630,-5,-7,8,9,-5,-4,10,14
1499894123641628,-5,-5,-13,-32,1,2,-1,24
1499894123641628,0,5,7,22,-1,-2,0,-3
1499894123656629,0,0,2,22,4,2,-3,-23
1499894123656629,0,1,10,7,2,-1,-1,-26
1499894123658631,-13,-4,-5,-3,1,2,2,-14
1499894123658631,-9,-4,-13,-4,-2,-2,-4,-81
1499894123679633,-8,-1,-3,-1,-4,-3,-3,10
1499894123679633,3,1,-14,-24,-4,-2,-2,19
1499894123680633,5,2,2,15,0,-1,-5,41
1499894123680633,9,5,8,34,4,0,0,21
1499894123693638,-5,0,5,-28,-6,-2,0,-32
1499894123693638,6,-3,-3,18,1,0,-4,25
1499894123702634,-7,-5,-8,-23,-7,-6,0,-1
1499894123702634,5,1,14,43,5,3,1,-11
1499894123716636,3,1,-4,-53,-6,-3,-3,32
1499894123716636,-2,-8,-24,-1,-3,0,-1,4
1499894123718634,6,-2,-11,-15,-2,1,2,-36
1499894123718634,-10,-2,0,24,-1,-1,-4,-3
1499894123739635,-5,-4,0,-13,0,-3,-1,-24
1499894123739635,-24,-1,-11,7,3,-5,-6,-13
1499894123740636,25,0,1,5,-10,-1,-1,22
1499894123740636,-6,-5,4,-23,-5,-3,-1,-70
1499894123753635,-1,0,4,33,6,0,0,31
1499894123753635,-4,-4,-14,-16,-3,0,0,6
1499894123762636,14,6,13,-2,6,3,-5,12
1499894123762636,-56,-4,-13,-11,-1,-1,7,-3
1499894123776638,21,3,8,-21,-7,-2,-3,37
1499894123776638,-9,-4,6,30,2,0,-3,-86
1499894123778638,8,5,-5,13,1,1,-3,-52
1499894123778638,9,-7,-7,-37,-7,-3,-3,11
1499894123799640,-10,-1,-10,18,2,2,1,6
1499894123799640,6,-1,-6,-15,2,1,1,70
1499894123801643,-5,5,13,-5,0,0,4,-19
1499894123801643,9,-4,-8,18,-1,-1,-6,15
1499894123821642,-9,0,4,-23,1,-2,-1,-36
1499894123821642,11,6,6,16,1,1,1,13
1499894123823640,-3,0,2,58,6,2,3,3
1499894123823640,0,-4,-24,-102,-11,-4,-4,4
1499894123836642,-3,-5,4,80,0,-2,10,1
1499894123836642,-4,5,20,-27,3,3,4,1
1499894123838642,5,-7,8,13,-3,-3,-7,-17
1499894123838642,-2,1,-12,-22,3,-2,-1,-12
1499894123859655,12,-1,-2,41,0,3,2,-7
1499894123859655,13,1,-3,-19,-4,-1,3,75
1499894123860642,-20,-7,-18,18,-2,-5,1,-6
1499894123860642,17,5,25,-37,0,0,1,51
1499894123881644,-9,2,2,73,6,1,-2,-22
1499894123881644,3,-6,-4,-16,-10,-5,-3,36
1499894123883645,-13,-4,-23,-24,1,-2,-1,6
1499894123883645,8,4,38,51,0,-1,-7,30
1499894123896646,-53,-7,-25,-9,-6,-4,1,-20
1499894123896646,-3,0,2,8,2,2,-4,-19
1499894123903644,-8,10,15,2,1,3,0,-9
1499894123903644,-18,-23,-56,-31,-10,-8,-10,-23
1499894123919647,20,1,19,-17,5,-2,0,21
1499894123919647,0,1,7,22,-1,0,-2,-17
1499894123920647,-1,-5,-13,-24,-1,-1,3,34
1499894123920647,13,4,3,-37,0,7,9,37
1499894123941647,-2,3,0,-10,3,0,-5,-29
1499894123941647,-39,-4,-25,-12,-9,-5,-5,-38
1499894123943647,50,6,10,-11,3,0,5,82
1499894123943647,-6,-8,10,81,8,1,3,78
1499894123956647,4,-4,-4,-63,-11,-1,-3,19
1499894123956647,-6,8,17,-57,5,4,5,-54
1499894123958649,-18,-6,-3,86,-6,-5,-3,-7
1499894123958649,-2,-2,-10,-79,-15,-5,-4,-27
1499894123979651,8,6,4,42,5,-1,-7,-9
1499894123979651,14,-4,-3,-2,3,0,-6,-6
1499894123981650,-27,0,-4,-26,-2,-1,-3,-41
1499894123981650,8,5,6,53,6,3,3,-19
1499894124001650,0,5,15,-37,2,0,-3,-19
1499894124001650,13,-8,-11,1,-7,-3,3,20
1499894124007651,-5,-5,9,1,5,0,-7,-26
1499894124007651,6,10,23,42,1,-2,-1,0
1499894124016655,2,-4,-16,10,-2,-1,0,30
1499894124016655,-5,-1,-11,-66,-8,-3,1,0
1499894124023652,5,-5,9,-40,-2,0,-3,0
1499894124023652,-4,2,-4,31,3,1,3,-16
1499894124039654,-4,5,19,-41,-5,0,0,-5
1499894124039654,16,-5,1,12,-9,-6,-5,4
1499894124040654,-2,-3,-15,-33,-3,-3,-1,-13
1499894124040654,-20,5,15,24,5,2,-1,-53
1499894124061655,8,-8,-15,37,3,-4,-5,-8
1499894124061655,4,1,6,-22,-4,-2,-5,3
1499894124063654,9,2,1,27,1,2,7,21
1499894124063654,-26,-3,-3,59,9,2,-6,-56
1499894124076656,-3,-1,-14,-54,-4,3,1,-28
1499894124076656,-30,-10,-19,-38,-11,-8,-6,-54
1499894124083655,2,4,14,-2,4,-4,0,2
1499894124083655,8,4,-1,-36,-4,1,0,20
1499894124099656,-1,2,18,23,3,0,-1,8
1499894124099656,10,0,-2,14,8,2,-2,-7
1499894124101663,-8,-6,-13,-53,-12,-2,-2,-13
1499894124101663,6,-6,-13,44,-1,-6,-3,3
1499894124121657,1,0,-1,-40,-3,-1,0,5
1499894124121657,2,7,12,32,6,7,6,5
1499894124123658,-8,-7,-18,13,-2,-6,-7,-25
1499894124123658,10,-2,-7,-60,-6,1,0,50
1499894124136662,-1,-4,-10,36,-5,-3,-7,61
1499894124136662,0,-4,7,27,0,-1,-3,6
1499894124142669,-2,-2,1,8,1,0,-2,-18
1499894124142669,8,-1,-2,-75,1,0,-2,1
1499894124159660,6,-6,13,100,-5,-8,-2,7
1499894124159660,-4,7,3,-10,1,1,-1,-44
1499894124160661,-3,-1,10,9,-2,2,-2,24
1499894124160661,11,0,-6,-2,-2,-4,-3,-10
1499894124181661,-22,-4,-1,-35,4,3,2,-6
1499894124181661,17,-2,5,34,-2,1,3,12
1499894124183661,-8,-4,-6,-23,-10,-4,0,-16
1499894124183661,-11,-1,17,18,1,-4,-1,-16
1499894124196661,7,3,-2,69,3,4,2,48
1499894124196661,-5,3,9,-59,4,-3,1,-47
1499894124202662,-4,-4,-14,6,-1,-1,8,2
1499894124202662,10,1,-6,-9,0,2,2,1
1499894124219662,2,2,8,15,-1,0,2,-9
1499894124219662,8,-3,-18,21,6,4,3,59
1499894124221665,-20,-2,-7,-8,-5,-3,-2,-23
1499894124221665,19,-5,4,47,-1,-6,-1,17
1499894124241664,11,1,2,-75,-2,1,2,5
1499894124241664,-4,-6,-17,-21,-9,-7,-5,25
1499894124243664,3,5,8,19,5,2,-1,15
1499894124243664,-9,-6,-4,26,-7,2,0,1
1499894124256664,11,0,-22,-91,4,3,5,69
1499894124256664,-6,0,27,119,-2,-7,-8,-69
1499894124263666,2,-8,-22,-35,-3,-2,-4,5
1499894124263666,0,7,5,-62,5,2,1,0
1499894124279667,-1,-6,-2,47,-6,-6,-2,-20
1499894124279667,8,2,-16,-31,2,2,1,77
1499894124280668,2,1,6,-34,0,1,1,-37
1499894124280668,-13,-6,8,28,-5,-7,8,43
1499894124301667,13,-4,-16,-2,0,-1,0,-1
1499894124301667,-6,0,7,-2,1,2,0,9
1499894124303667,4,3,1,32,7,1,1,87
1499894124303667,-3,2,-6,-26,-2,1,2,11
1499894124324669,-14,-12,-3,-38,-12,-8,-6,-17
1499894124324669,-12,-1,-2,15,3,2,3,24
1499894124326679,18,1,5,-23,-2,0,2,3
1499894124326679,-3,0,-15,6,-1,-1,-5,-24
1499894124339670,-7,4,19,23,3,-2,-1,-39
1499894124339670,-1,-4,-17,7,1,3,3,-22
1499894124340671,-8,3,22,-4,-8,-5,-2,-28
1499894124340671,23,-6,-14,7,-5,-2,-3,20
1499894124360672,-24,6,12,42,5,0,-3,-78
1499894124360672,1,-4,-3,-27,-2,1,-1,1
1499894124369673,-7,4,17,24,6,3,0,4
1499894124369673,2,-2,-16,-65,-3,1,0,-13
1499894124375673,-5,-12,-8,16,-1,-2,-5,10
1499894124375673,13,3,0,34,0,-5,-4,-7
1499894124384673,4,-1,0,-15,-6,-3,12,54
1499894124384673,-11,-3,-4,-7,2,2,-1,-29
1499894124399674,-11,1,-22,-28,-3,2,-2,-12
1499894124399674,-7,-8,4,14,-10,-8,-6,1
1499894124400673,0,-2,-4,16,1,-5,-4,-5
1499894124400673,-13,-4,-18,-15,-2,2,2,8
1499894124421675,2,3,11,33,6,4,2,19
1499894124421675,8,-2,2,7,-1,-2,0,-13
1499894124423675,6,-4,-7,-29,1,-1,-5,9
1499894124423675,-6,-3,4,43,-1,-3,-3,4
1499894124435677,17,5,10,-44,0,0,0,-9
1499894124435677,13,-1,-5,21,-9,-1,4,88
1499894124444676,-5,-2,-14,12,4,-2,-8,-65
1499894124444676,-2,3,5,20,3,0,-1,5
1499894124459678,2,5,24,-6,-5,2,2,-2
1499894124459678,-3,-11,-26,-36,2,0,0,19
1499894124460677,-20,-7,-4,7,-6,-2,-2,-31
1499894124460677,15,5,2,-16,0,2,1,-55
1499894124481678,1,14,8,58,9,2,0,-2
1499894124481678,-11,1,3,-64,-1,-5,3,-31
1499894124483679,5,-8,-9,15,-5,3,-7,25
1499894124483679,1,4,17,1,6,3,0,2
1499894124495680,1,-8,-5,18,-6,-5,1,34
1499894124495680,-5,3,8,25,3,-1,-4,-32
1499894124504679,2,6,8,39,6,-1,0,-8
1499894124504679,3,-7,-13,-60,-15,-6,-3,2
1499894124519681,5,1,9,28,8,2,-4,13
1499894124519681,-23,-9,-13,-25,-10,-3,-3,-47
1499894124520683,17,3,14,-2,-1,-4,-8,-53
1499894124520683,10,-2,3,59,4,0,-3,-32
1499894124541682,5,-1,-19,-75,-7,-2,2,-17
1499894124541682,-8,1,10,-2,5,-1,-7,-30
1499894124543682,-6,-15,-47,-55,-9,-2,0,7
1499894124543682,-15,-1,17,31,-8,-8,-7,-14
1499894124555682,-4,-12,-24,26,0,-5,-4,-23
1499894124555682,7,7,-4,-27,6,8,4,6
1499894124564686,-6,1,7,-29,-7,-3,0,14
1499894124564686,9,-6,-6,-20,-5,-8,-6,38
1499894124579684,-7,-4,-7,-32,-5,2,2,-3
1499894124579684,10,2,9,34,1,-1,-3,71
1499894124580684,-13,4,-3,-19,7,1,-3,-44
1499894124580684,-13,-1,3,51,-2,-1,-3,7
1499894124601685,-3,-2,38,39,-4,-4,-2,-15
1499894124601685,16,-2,-24,-16,0,0,1,89
1499894124603686,6,-1,5,1,4,6,9,59
1499894124603686,2,2,0,-43,-4,-2,-3,-10
1499894124615690,-1,5,-14,-58,-1,0,1,-12
1499894124615690,-3,-3,4,62,-2,-6,-5,-16
1499894124624687,-1,3,1,-43,-4,0,0,44
1499894124624687,-9,3,8,2,6,4,5,-22
1499894124646688,11,-4,-15,21,0,1,0,47
1499894124646688,-12,-3,-12,-25,-8,-8,-4,-55
1499894124648688,12,11,26,16,4,4,4,-15
1499894124648688,0,-9,-29,-13,-2,2,2,33
1499894124661689,-19,-3,8,6,4,-5,-11,-68
1499894124661689,-17,0,-2,14,-6,2,1,30
1499894124667690,6,0,8,15,0,-4,-6,-26
1499894124667690,-11,5,18,17,2,3,3,50
1499894124675691,-5,-4,-25,13,-1,-1,-2,-47
1499894124675691,18,-2,10,8,5,0,-1,26
1499894124684690,-13,0,5,7,-6,-2,-3,-31
1499894124684690,-4,1,16,15,4,1,0,22
1499894124699690,3,1,-12,-1,-2,-3,-7,-63
1499894124699690,-2,-9,-3,-54,-5,-4,0,4
1499894124700692,-18,-4,-16,-13,2,0,1,15
1499894124700692,7,-6,-16,32,-3,-4,0,-12
1499894124721692,-1,7,10,-7,-2,1,3,5
1499894124721692,17,2,12,-19,4,3,-1,-12
1499894124723692,4,-9,-31,31,-4,-1,-4,-7
1499894124723692,-1,-1,-9,-19,-2,0,2,3
1499894124735699,1,3,18,-10,1,3,8,77
1499894124735699,-9,7,13,3,11,4,5,-31
1499894124744695,11,-11,-30,-15,-17,-11,-13,12
1499894124744695,-8,-2,0,-9,7,4,-1,-54
1499894124759694,-1,0,7,46,0,-4,-1,33
1499894124759694,-1,5,7,-39,-6,2,-2,-8
1499894124760700,2,0,3,56,8,3,4,-6
1499894124760700,-14,-6,-8,-14,-4,-4,-3,-7
1499894124781697,-11,-2,0,-15,-5,-3,-3,-11
1499894124781697,1,3,2,28,2,3,-1,-10
1499894124783696,-11,0,17,-10,7,5,5,-17
1499894124783696,6,-5,-35,-60,-7,-5,-6,-56
1499894124804696,-5,-3,5,22,1,-1,1,9
1499894124804696,5,0,3,11,-4,-3,-4,23
1499894124805699,1,-1,-10,-19,2,0,2,29
1499894124805699,11,5,25,41,4,0,-2,8
1499894124819698,-21,-7,-13,-14,-7,-1,1,0
1499894124819698,-8,2,5,19,5,0,-1,-52
1499894124820698,4,-2,6,-21,-11,-4,-4,-5
1499894124820698,0,-3,5,15,-1,-2,3,81
1499894124841700,2,-6,-20,-30,-3,-1,-3,13
1499894124841700,-6,-3,3,16,1,1,3,3
1499894124843699,-9,7,13,-2,7,2,1,47
1499894124843699,0,1,1,-14,-4,-5,-1,4
1499894124864703,16,0,12,33,3,4,1,3
1499894124864703,-4,-4,-12,-9,-1,-2,-2,-40
1499894124865706,3,0,6,49,1,-3,-1,17
1499894124865706,-6,0,-3,-92,-13,-5,-1,-18
1499894124879703,6,0,13,-9,3,-1,-4,-7
1499894124879703,-6,-8,-36,10,-4,-3,-2,-9
1499894124880703,3,0,4,-4,0,0,0,-29
1499894124880703,-2,3,-8,-15,4,3,1,-1
1499894124901702,-9,-5,6,73,-5,-4,-4,-65
1499894124901702,-8,1,11,-34,-2,-3,-4,-10
1499894124903703,8,-3,-8,4,2,1,2,-7
1499894124903703,-1,-2,2,8,1,-1,-3,5
1499894124924704,11,5,-8,-56,-1,-3,1,40
1499894124924704,-2,-4,0,58,6,2,-1,-28
1499894124926712,12,2,9,-70,-7,0,0,43
1499894124926712,-12,-9,-10,37,-2,-4,-7,-46
1499894124938709,31,0,-11,-41,-7,-1,3,72
1499894124938709,-7,6,11,42,2,1,2,-17
1499894124945707,-4,-10,-19,-17,-11,-8,-3,15
1499894124945707,-1,0,-10,-2,3,5,-3,-37
1499894124961708,-3,-3,-1,3,0,-2,0,19
1499894124961708,13,5,8,-19,-1,0,2,20
1499894124963708,-1,5,7,41,1,3,-1,-19
1499894124963708,2,1,8,-48,-8,-5,0,18
1499894124984708,-4,-11,-22,42,0,-3,-5,7
1499894124984708,1,2,6,-43,-3,-2,-2,11
1499894124985709,-18,2,6,54,10,3,3,-21
1499894124985709,8,-2,-7,2,-1,-3,-6,-44
1499894124998708,-2,2,4,-30,4,3,-1,-36
1499894124998708,-2,-1,-6,9,-5,-3,-2,-7
1499894125005708,0,0,10,-16,-4,-3,-2,8
1499894125005708,2,-12,-35,4,0,0,1,46
1499894125029710,-14,4,8,-52,-1,1,-3,-37
1499894125029710,-7,-4,0,81,1,-7,-6,-47
1499894125031711,1,4,5,-42,1,0,1,5
1499894125031711,-16,-2,-4,-48,-3,-4,-5,-3
1499894125044711,4,1,6,-38,1,-3,-3,29
1499894125044711,14,-6,-1,31,-7,-2,-1,48
1499894125050710,-4,-2,-1,7,3,3,0,-10
1499894125050710,15,6,10,6,4,2,2,9
1499894125058711,-10,-4,-8,-5,-5,-2,-2,18
1499894125058711,-1,4,10,-26,2,0,-2,-3
1499894125065713,0,0,3,6,0,0,-1,-18
1499894125065713,3,-1,7,32,-5,-1,2,13
1499894125081713,-5,-1,-15,-37,-6,-1,0,-33
1499894125081713,1,-1,-1,-29,0,0,3,12
1499894125083713,-7,-2,-2,32,1,-1,-3,-20
1499894125083713,-13,8,25,19,5,0,-2,-53
1499894125104714,-12,-5,3,49,-4,-2,-3,-1
1499894125104714,-4,-4,-1,-55,-3,-1,1,-14
1499894125105714,4,-4,-20,9,-5,-5,-7,-47
1499894125105714,2,4,17,67,10,-2,0,12
1499894125118717,-3,-7,-11,-68,-11,-6,-5,39
1499894125118717,-6,2,7,12,3,1,1,-20
1499894125125716,1,-2,-8,20,0,-2,-1,5
1499894125125716,4,-3,3,-6,-3,-2,-1,22
1499894125141716,3,5,5,36,5,-1,-1,-22
1499894125141716,-5,-3,0,-26,-2,5,2,14
1499894125143717,-1,-3,6,10,-5,-2,0,73
1499894125143717,-1,0,-11,-43,0,2,0,-32
1499894125164727,7,-1,-5,6,4,0,3,27
1499894125164727,-8,0,-10,-4,-6,-5,-6,-29
1499894125165720,-5,-5,-10,-21,-6,-2,2,5
1499894125165720,7,2,17,23,0,-1,2,-20
1499894125178719,-1,-3,-4,50,2,0,1,1
1499894125178719,1,0,-8,-67,-1,1,1,3
1499894125185718,-2,3,11,-22,8,6,2,-8
1499894125185718,11,-2,11,21,-13,-5,-1,39
1499894125201719,7,2,-5,-7,2,-2,-2,-5
1499894125201719,-10,-3,-2,34,1,-2,-2,4
1499894125203720,0,0,-14,-36,-3,-3,-3,-15
1499894125203720,-8,-7,-11,-1,-3,2,1,9
1499894125224722,-11,-2,2,66,-1,1,3,42
1499894125224722,23,3,-2,-20,-8,-4,0,3
1499894125226721,8,0,25,28,-1,-8,-5,14
1499894125226721,-8,-6,-31,-23,0,1,-3,-8
1499894125238721,-1,5,17,8,7,3,3,47
1499894125238721,-12,-6,-6,48,3,-1,-2,-11
1499894125245724,-8,-3,6,-46,-1,-1,-1,-20
1499894125245724,3,3,4,31,-15,-5,-2,28
1499894125261727,1,-3,-1,9,1,1,-2,-28
1499894125261727,9,5,12,33,3,2,4,21
1499894125263728,-13,-3,-29,-43,-3,-2,-1,-40
1499894125263728,-3,-5,7,0,8,3,0,4
1499894125284725,-7,-3,-18,0,-1,-1,-1,-30
1499894125284725,-6,-6,-5,-7,-3,-5,-1,-16
1499894125286730,-4,5,8,-9,-2,3,1,-62
1499894125286730,-1,1,5,5,1,-1,-2,-17
1499894125297725,-7,-3,-4,-35,-2,-3,-5,-91
1499894125297725,-3,-4,-4,15,-4,1,-1,8
1499894125306726,-5,-3,-3,30,-1,-2,-1,20
1499894125306726,1,-1,6,12,1,-4,-2,27
1499894125329728,5,0,4,-28,4,-2,0,-9
1499894125329728,-4,-2,-2,-7,-4,3,-1,-2
1499894125330727,-5,-10,-19,13,-2,-2,-2,-24
1499894125330727,-11,1,-7,24,2,-3,0,-2
1499894125344730,6,3,6,25,4,5,4,-3
1499894125344730,6,-1,-13,-112,-4,-4,-4,-14
1499894125345728,-11,-6,7,57,-5,-4,-3,13
1499894125345728,7,2,-3,-25,3,1,1,23
1499894125357729,-14,6,14,16,3,-1,2,18
1499894125357729,-2,-14,-48,38,-8,-3,1,25
1499894125366740,21,6,9,-19,-3,-3,-4,20
1499894125366740,0,-4,0,-29,0,0,2,-3
1499894125381730,-3,-2,-2,1,-2,-2,-1,5
1499894125381730,1,8,29,7,4,3,2,14
1499894125383731,-1,-3,-22,3,-2,-1,-3,7
1499894125383731,0,-2,-2,-14,-4,1,-1,31
1499894125404732,0,-3,-1,-20,-3,-1,-1,-16
1499894125404732,1,4,11,43,2,-4,-1,-13
1499894125410733,5,-5,-1,35,-2,1,-2,18
1499894125410733,-3,7,21,-6,3,3,1,-15
1499894125417736,0,-6,-30,-13,-2,0,-1,-16
1499894125417736,2,-12,-29,-15,-2,-3,-2,59
1499894125427733,5,5,16,-16,8,2,1,-36
1499894125427733,-8,-6,-3,47,-9,-5,-3,-15
1499894125441734,2,5,19,-5,-5,-2,0,5
1499894125441734,-2,2,-10,-75,-2,-2,-4,-67
1499894125443734,-5,1,4,-2,1,1,-1,-19
1499894125443734,12,-3,-21,2,5,-1,-4,1
1499894125464741,-18,5,19,35,5,2,0,-31
1499894125464741,6,0,6,52,-1,-2,0,-8
1499894125465739,-8,-7,-4,-29,-11,-3,0,3
1499894125465739,4,2,15,-51,-4,-3,-2,-9
1499894125486736,7,0,-7,2,-3,-2,-2,17
1499894125486736,-4,2,19,-8,3,2,-1,4
1499894125488737,-5,-1,2,28,0,-1,0,-4
1499894125488737,-21,-2,-4,12,3,0,4,9
1499894125501737,12,-5,-8,0,-6,-4,0,4
1499894125501737,-10,5,7,11,1,0,-3,-25
1499894125503737,6,-6,-13,-52,-8,-2,-3,0
1499894125503737,2,1,2,13,2,0,3,12
1499894125524741,-2,-2,11,27,-1,0,-1,-6
1499894125524741,3,-2,4,10,-2,-3,-3,-7
1499894125526744,-14,-3,6,-37,1,-4,-3,-4
1499894125526744,-2,-7,-13,9,-3,-2,0,47
1499894125537742,3,-2,-5,18,0,-2,-1,5
1499894125537742,-3,-1,0,-66,-10,-1,0,6
1499894125546739,4,6,9,15,4,2,1,-8
1499894125546739,1,-3,0,64,-1,-3,-4,-4
1499894125561741,-3,-2,-1,-69,3,-1,-3,6
1499894125561741,7,7,12,14,-1,1,0,12
1499894125563742,7,0,-2,17,7,4,3,33
1499894125563742,3,-3,-6,-38,-8,-3,-3,-13
1499894125584744,-12,-7,-5,18,-3,-4,-8,-74
1499894125584744,-1,3,-4,-7,2,-2,0,15
1499894125585743,-2,2,6,27,4,-4,-3,26
1499894125585743,-2,-1,-9,-41,-2,0,-1,-23
1499894125597744,6,1,13,17,-5,-2,-2,20
1499894125597744,-14,-9,-28,21,3,1,-1,-19
1499894125606743,-1,4,4,-68,-4,-3,-2,-20
1499894125606743,-2,-1,-6,-4,-6,-2,-4,-15
1499894125621745,8,-2,0,-23,-2,-3,-2,26
1499894125621745,-2,-6,-2,15,-3,-3,-1,8
1499894125623744,0,-1,-4,18,1,1,2,19
1499894125623744,0,3,11,-3,4,0,-2,-37
1499894125644747,6,5,6,2,-4,0,-1,6
1499894125644747,1,-3,4,30,5,0,0,-2
1499894125645745,-1,-7,-23,-41,-6,-4,-3,-22
1499894125645745,-1,1,12,19,1,-2,-1,1
1499894125657746,2,-3,-14,-41,-2,-1,1,3
1499894125657746,4,-4,-3,-21,-5,1,3,34
1499894125666748,7,7,8,39,2,1,-1,-13
1499894125666748,0,-9,-26,4,-2,-1,-1,16
1499894125681748,0,2,6,30,4,0,1,14
1499894125681748,-2,2,6,-33,-3,1,1,14
1499894125683748,-7,-5,1,33,-2,-4,1,5
1499894125683748,9,0,13,13,-1,4,0,-21
1499894125704748,3,-4,-16,14,2,-2,-1,-30
1499894125704748,-6,3,15,-10,-1,1,-3,-18
1499894125710750,-6,-3,-17,16,-4,-2,-2,0
1499894125710750,-2,2,4,-9,2,-4,-4,-9
1499894125726752,0,-2,-13,-1,2,0,1,15
1499894125726752,4,-2,3,8,-4,-6,-5,-39
1499894125728750,7,-3,-12,-10,-1,2,-1,16
1499894125728750,-7,3,7,23,2,0,0,8
1499894125741750,-5,3,14,68,4,3,0,-14
1499894125741750,-9,-10,-20,-77,-13,-7,-3,-9
1499894125743751,-1,2,3,20,3,0,1,9
1499894125743751,3,-3,-8,-21,0,-1,1,13
1499894125764765,-4,1,4,8,0,-2,-2,-2
1499894125764765,0,4,11,41,11,3,3,-14
1499894125765753,-1,-8,-17,-27,-9,-4,-2,16
1499894125765753,2,3,-3,-15,-1,-2,1,-19
1499894125786758,16,-5,-2,-35,-2,-1,1,56
1499894125786758,7,3,-8,54,1,0,-1,20
1499894125788755,16,-4,16,5,-3,3,5,62
1499894125788755,2,6,-1,-14,-1,1,0,-8
1499894125801754,-4,-5,7,-5,-5,-1,-1,12
1499894125801754,-6,0,-8,-55,0,0,-1,-11
1499894125803755,-3,0,6,59,1,-3,-1,0
1499894125803755,3,-1,-3,36,2,-3,0,-3
1499894125824757,-15,1,-5,-97,-7,-2,0,-24
1499894125824757,1,3,6,20,4,2,2,19
1499894125826767,-5,-2,0,-5,0,1,-1,-31
1499894125826767,-8,0,2,20,3,0,-1,-1
1499894125846757,-19,5,-10,-28,2,0,-3,-2
1499894125846757,1,-23,-23,39,-19,-11,-7,-3
1499894125848759,2,3,21,14,5,-1,2,21
1499894125848759,-15,-8,-14,-34,-1,-4,-5,-23
1499894125861759,6,-3,-16,28,0,3,2,20
1499894125861759,-4,3,5,-18,2,2,-1,23
1499894125863759,-8,-3,5,11,-1,0,-3,-23
1499894125863759,-1,1,2,-27,-5,-2,1,18
1499894125884761,-1,-2,1,-5,-4,-1,1,-9
1499894125884761,0,4,7,4,5,-5,1,-18
1499894125886766,-2,2,-1,16,2,6,-2,-23
1499894125886766,-2,-1,-3,6,-2,0,-1,1
1499894125906760,3,0,0,-32,-7,-5,-5,-7
1499894125906760,-5,-9,-11,55,-2,0,-1,3
1499894125909762,-3,4,11,-54,-5,-6,-2,-5
1499894125909762,-6,-10,-31,-1,-5,-3,-2,-2
1499894125921762,0,1,1,-15,0,-1,3,1
1499894125921762,3,-2,13,25,2,3,-1,15
1499894125927762,5,4,3,-5,0,-1,-3,-2
1499894125927762,2,1,3,22,0,3,0,9
1499894125944762,16,-5,-6,-34,-11,-3,-1,-9
1499894125944762,-18,3,10,11,3,-3,-4,-38
1499894125945763,2,-1,-12,-8,-2,-3,-2,7
1499894125945763,-2,5,26,-6,2,2,1,-1
1499894125966765,-3,-6,-24,47,3,2,-3,-36
1499894125966765,1,3,4,-18,3,7,4,44
1499894125968765,2,-4,-17,-37,-4,0,-1,13
1499894125968765,5,0,-4,38,-1,-4,-1,19
1499894125981767,-5,-2,-4,16,-1,1,-3,-7
1499894125981767,3,-2,3,-24,-2,-3,-1,1
1499894125987766,-7,-2,-11,-18,-6,-7,-3,-37
1499894125987766,4,4,20,-8,2,4,2,7
1499894126004766,-3,-5,-5,-1,-2,-1,0,8
1499894126004766,-1,1,-5,3,4,4,-1,-6
1499894126005766,-9,-3,-15,18,2,-1,0,19
1499894126005766,-17,-2,9,-4,-3,-4,-4,-29
1499894126026768,-6,2,13,-25,-3,-1,-2,-40
1499894126026768,16,1,-6,-11,2,-1,-2,15
1499894126028768,4,1,-1,25,0,1,1,0
1499894126028768,3,-2,-3,30,0,1,1,1
1499894126041767,-8,1,4,-18,0,-1,0,8
1499894126041767,-4,0,4,0,0,-3,-4,-3
1499894126047770,1,-4,-12,6,-2,-1,-2,-10
1499894126047770,0,-5,-13,-47,-6,-2,-1,19
1499894126064770,4,4,16,44,7,-1,-1,6
1499894126064770,6,-5,-25,-19,-5,-5,-6,-19
1499894126065773,-6,-3,11,22,-6,-3,-4,8
1499894126065773,2,-2,-3,7,2,-1,1,-12
1499894126086780,2,5,14,-18,5,-2,3,7
1499894126086780,2,-3,-13,11,1,1,-1,4
1499894126088772,-4,-2,-12,-28,-7,-4,-2,-6
1499894126088772,0,0,6,-6,-2,-1,-2,8
1499894126101771,-2,-3,-4,-2,-4,-1,-2,-56
1499894126101771,1,4,19,44,4,1,2,-3
1499894126107772,1,3,6,-16,4,3,1,-5
1499894126107772,-3,-10,-29,-36,-10,-5,-5,-27
1499894126124773,-1,2,7,24,-1,-2,-1,26
1499894126124773,-2,-2,-2,-24,0,2,2,-3
1499894126126778,-9,5,11,20,1,-1,1,-49
1499894126126778,6,-1,-3,-1,3,1,1,18
1499894126146775,20,-7,-4,15,-11,-6,-7,41
1499894126146775,-9,-1,-21,-104,-12,-5,-1,-6
1499894126148776,3,7,26,4,7,4,3,13
1499894126148776,-9,-13,-31,8,0,-4,-4,-8
1499894126161778,-6,-7,-13,-15,-5,-2,-1,6
1499894126161778,-1,2,9,15,-4,-2,0,-13
1499894126167776,3,-1,7,-2,-1,-1,0,23
1499894126167776,-1,9,21,16,3,4,-2,-14
1499894126184777,-4,-4,-16,-5,8,-1,-3,7
1499894126184777,3,-1,-5,-7,-7,-3,-3,-10
1499894126185777,-9,-11,-30,-42,-8,-1,-3,-1
1499894126185777,2,2,12,15,4,-1,0,6
1499894126206779,1,-4,-13,-73,-7,-2,-1,-5
1499894126206779,-2,2,6,26,6,-1,1,-20
1499894126209779,-2,-4,-1,13,0,-3,-6,3
1499894126209779,1,3,7,-11,-2,-1,-1,-4
1499894126220780,0,0,6,26,2,2,0,7
1499894126220780,-9,-1,-3,18,0,-1,-1,-8
1499894126229780,2,-2,8,-45,-8,0,1,-15
1499894126229780,3,-6,-20,-26,-8,-4,-2,22
1499894126244780,-14,4,9,19,3,-1,1,0
1499894126244780,8,-1,8,25,2,0,-3,16
1499894126245780,-4,-5,-9,12,-1,-4,-2,-8
1499894126245780,-6,2,-3,-30,-3,0,0,25
1499894126266786,-10,-3,-9,22,0,1,0,-3
1499894126266786,8,2,-2,-30,2,0,-1,-1
1499894126268782,1,-1,0,22,-2,-2,-1,0
1499894126268782,0,-4,-6,64,6,1,1,-27
1499894126280785,-7,1,9,-72,-3,1,1,-4
1499894126280785,-2,-3,1,14,-6,-7,-2,12
1499894126289784,6,2,4,-2,4,2,-3,4
1499894126289784,-4,1,7,8,-2,-1,-1,-12
1499894126304783,1,4,5,13,5,2,1,-3
1499894126304783,-3,-9,-23,-35,-11,-6,-3,3
1499894126305785,-2,0,12,50,4,-3,-3,-24
1499894126305785,8,-3,1,-61,-1,-1,0,1
1499894126326785,-2,8,17,51,3,2,-1,-11
1499894126326785,-2,-3,-1,-43,-1,2,0,3
1499894126328785,-5,-7,-12,16,0,0,0,8
1499894126328785,2,4,9,-22,5,-1,-2,-49
1499894126340786,2,-1,0,77,-3,-2,-1,1
1499894126340786,-3,1,8,-17,-4,-4,-1,6
1499894126349786,6,1,-10,-13,3,-1,-3,-8
1499894126349786,-7,4,12,-6,-3,0,0,-3
1499894126364808,-6,-8,-12,-12,-5,-4,0,2
1499894126364808,-5,0,4,-28,-3,-1,-3,-24
1499894126365792,1,2,8,-4,4,2,1,6
1499894126365792,1,-2,-4,-4,-3,-2,-1,6
1499894126386800,-1,-1,1,25,0,-2,-2,0
1499894126386800,-1,-1,5,18,2,1,1,3
1499894126388789,-4,-4,-17,-42,-6,3,0,5
1499894126388789,-1,4,11,31,1,-1,-3,-7
1499894126400789,-2,-6,6,17,-4,-4,-4,-1
1499894126400789,-1,1,6,49,5,2,3,23
1499894126410790,0,1,-2,28,1,-5,-3,-2
1499894126410790,-14,-5,-11,-79,-14,-3,-2,7
1499894126424792,18,0,-12,79,-1,-1,-2,27
1499894126424792,-3,0,1,-42,-2,1,0,-8
1499894126426812,-1,0,2,31,0,-1,0,-4
1499894126426812,1,-1,9,21,5,-1,1,12
1499894126447792,-4,-1,-6,-29,1,-5,-2,1
1499894126447792,3,-1,1,25,-4,2,-3,4
1499894126452792,0,1,0,-15,-1,-2,-2,2
1499894126452792,-2,-5,-5,-18,-4,-2,-1,-1
1499894126460793,13,2,6,1,2,1,-1,5
1499894126460793,-12,-4,-12,-40,1,0,1,-8
1499894126475796,-6,-4,-5,2,-6,-6,-3,-6
1499894126475796,-5,2,10,72,4,-3,-4,-17
1499894126491794,4,-3,-16,-85,-6,3,-3,-10
1499894126491794,-4,2,4,10,3,0,-2,-9
1499894126493795,3,1,-5,-18,-6,-1,-4,4
1499894126493795,12,-8,-10,39,3,-3,-3,31
1499894126506795,-7,2,4,-39,-6,0,3,-6
1499894126506795,-3,1,10,38,5,2,-1,-5
1499894126508796,2,-2,-13,-28,-2,-1,3,-10
1499894126508796,5,3,-4,-14,-2,1,-1,3
1499894126520796,-4,1,5,0,1,-1,1,-4
1499894126520796,-2,-1,-1,-20,-5,-2,-2,-9
1499894126529797,-1,-1,8,52,-1,-1,2,7
1499894126529797,-2,-7,-9,-9,-5,-1,-3,-11
1499894126544798,-6,-3,-21,-29,1,2,0,-1
1499894126544798,0,1,10,-3,-4,-4,-4,-3
1499894126545797,-3,-3,2,42,6,3,1,7
1499894126545797,-6,-4,-3,-76,-16,-5,-3,2
1499894126566801,9,0,0,19,5,-2,-1,17
1499894126566801,4,3,5,23,4,1,-3,6
1499894126568800,3,-2,-4,-8,-2,-1,-2,1
1499894126568800,1,3,5,30,5,-1,0,-16
1499894126580800,1,-3,-5,-45,-2,4,0,18
1499894126580800,-5,1,5,82,2,-2,1,18
1499894126589800,15,0,5,-5,-1,-3,-2,-20
1499894126589800,3,-1,2,2,1,-1,3,8
1499894126604800,-10,-3,-9,-10,-4,-4,-2,-28
1499894126604800,3,-1,-6,-5,-1,1,1,-7
1499894126605800,-8,0,-6,-44,1,3,0,12
1499894126605800,-3,-1,7,47,-1,-1,0,-3
1499894126626803,9,-1,3,-2,-3,-5,-2,41
1499894126626803,2,-1,-4,-8,1,0,1,3
1499894126628803,-6,0,0,9,-3,-5,0,-2
1499894126628803,0,1,3,-57,1,4,0,4
1499894126640803,-9,-6,-4,98,3,-2,-3,-16
1499894126640803,0,-5,-16,-20,-2,-1,-1,13
1499894126649804,-8,9,24,-36,-4,0,-2,-18
1499894126649804,-5,-8,-34,18,-1,-4,-3,-12
1499894126664815,-6,-2,1,-29,-6,-4,-1,-6
1499894126664815,1,-4,-1,26,4,-3,0,24
1499894126665805,-4,0,1,-25,-1,4,0,-25
1499894126665805,1,6,7,37,4,2,-1,11
1499894126686806,-3,0,13,-47,0,1,-1,-8
1499894126686806,3,-2,-22,-8,-3,-3,-3,-3
1499894126688816,-1,-2,4,50,-2,-1,1,15
1499894126688816,-7,-3,-7,-15,-3,0,-1,-20
1499894126709807,1,-1,1,6,0,-1,-5,13
1499894126709807,11,-2,-6,-31,-2,0,-2,-16
1499894126711811,-11,-1,-2,-19,1,-3,-4,8
1499894126711811,0,2,0,17,3,1,2,18
1499894126722807,-5,1,9,26,2,0,0,-34
1499894126722807,1,-5,-5,-30,-4,-2,-1,-10
1499894126731811,7,-2,-16,-32,-4,-3,-1,35
1499894126731811,9,1,6,-9,-1,-2,-3,-1
1499894126746812,-2,6,10,17,0,2,1,-9
1499894126746812,-2,-4,8,-8,-2,-1,-2,-15
1499894126748809,-1,-4,-7,39,0,-2,-1,4
1499894126748809,-3,2,5,-9,3,0,0,-12
1499894126769813,1,-1,-9,-47,-7,-4,-3,-9
1499894126769813,-10,-2,-5,12,1,-1,-2,-10
1499894126770811,0,-1,-3,-5,5,-1,1,-10
1499894126770811,-11,-4,2,-16,-5,5,2,1
1499894126784814,-3,-5,-3,38,-7,-6,-4,-18
1499894126784814,-6,-1,3,-16,-5,-1,-1,-4
1499894126785813,-4,-2,-3,6,-1,-2,0,1
1499894126785813,10,3,1,28,6,0,1,36
1499894126805815,-1,-4,-4,-67,-6,1,0,-5
1499894126805815,-6,1,11,-4,-1,-2,-1,-2
1499894126814815,-4,-2,-11,3,-4,-1,-2,-19
1499894126814815,3,2,12,31,1,-2,-1,-5
1499894126829814,-5,-5,-10,-22,-1,-4,-1,-5
1499894126829814,4,-1,-5,2,-2,1,-1,3
1499894126830815,-3,0,5,-4,0,4,0,6
1499894126830815,-7,3,0,-21,-3,-3,1,-27
1499894126843816,9,0,3,34,4,4,1,-7
1499894126843816,-2,-3,-2,27,-1,-3,-2,-18
1499894126850816,-14,-2,3,-13,-6,-2,-4,0
1499894126850816,-8,-4,-6,-20,-2,-5,-5,-8
1499894126867815,10,5,-1,-14,1,0,1,25
1499894126867815,-2,0,7,51,0,1,0,9
1499894126868817,1,-5,-16,-28,-3,-2,0,-16
1499894126868817,6,-3,-6,-8,-3,-2,0,11
1499894126889817,-6,1,-1,13,-1,0,-2,3
1499894126889817,3,3,18,22,5,2,1,10
1499894126890817,-1,-1,-14,-43,-3,-2,1,9
1499894126890817,1,0,9,31,4,-1,-2,-2
1499894126903819,-5,-6,-15,-36,-5,0,1,-1
1499894126903819,3,-2,0,-40,-9,-5,-3,-12
1499894126910820,8,1,14,32,3,1,-4,-13
1499894126910820,6,1,2,1,0,1,2,37
1499894126926824,-6,-1,1,37,4,1,0,-13
1499894126926824,-5,1,-9,-45,2,1,0,-2
1499894126928820,-5,0,12,30,-3,0,-1,6
1499894126928820,0,-5,-3,-11,-5,-5,-2,5
1499894126949821,-3,-3,3,24,2,1,1,7
1499894126949821,-2,-2,-16,-43,-10,-4,0,18
1499894126950822,4,1,4,10,1,-2,-2,-19
1499894126950822,-7,-5,-5,22,-1,-2,-1,-13
1499894126963826,-4,-4,-10,-23,-1,-3,-2,-5
1499894126963826,-6,-1,-6,13,-1,-1,-2,-13
1499894126970823,0,2,4,-21,0,-2,-2,7
1499894126970823,4,2,7,-6,-3,-1,-2,-2
1499894126986825,1,2,-4,14,0,-3,-2,-2
1499894126986825,5,0,14,12,3,1,0,11
1499894126988823,0,-4,-20,-1,-3,0,0,22
1499894126988823,-5,0,-4,-12,-1,-1,-2,-9
1499894127009832,17,0,13,22,-1,1,-1,3
1499894127009832,-18,-3,-6,5,1,-1,0,-1
1499894127011825,0,-2,7,1,0,0,3,8
1499894127011825,-3,4,5,26,5,3,-2,-18
1499894127023826,1,-3,-21,-102,-17,-7,-2,-1
1499894127023826,0,-4,3,42,5,2,-1,-6
1499894127030827,3,1,4,13,3,3,2,3
1499894127030827,3,0,-1,-21,-2,-4,-2,8
1499894127046829,-4,2,3,5,1,5,-1,0
1499894127046829,-8,-5,-7,20,-1,-4,-4,-15
1499894127048830,-1,-3,1,-8,-4,-4,-2,-2
1499894127048830,0,0,2,-25,-3,1,-1,-20
1499894127069829,-5,-1,6,6,5,0,0,-4
1499894127069829,-9,-1,-10,-1,-6,-4,-5,-29
1499894127071831,4,-3,-4,3,-2,0,-3,19
1499894127071831,-4,-5,-13,-14,-6,-1,0,3
1499894127083829,1,1,7,26,4,-1,-2,7
1499894127083829,6,2,-4,17,0,1,2,-1
1499894127090830,0,-1,2,-29,-8,-5,-2,-11
1499894127090830,-2,-3,-3,-4,1,1,1,3
1499894127106831,-4,-7,-1,14,-2,-3,-2,-1
1499894127106831,6,5,8,10,8,7,2,14
1499894127108832,-3,-2,-3,18,-4,-3,-3,-3
1499894127108832,1,2,2,-15,0,-2,-2,5
1499894127129831,-6,-8,-10,26,-3,-1,-2,-2
1499894127129831,2,-2,-7,-34,-5,-2,0,-5
1499894127130832,1,2,7,4,4,3,0,-7
1499894127130832,0,1,-1,-3,1,1,-2,0
1499894127143837,1,5,13,9,7,1,2,-2
1499894127143837,-6,-3,-9,-44,-13,-4,-2,-2
1499894127150834,9,4,3,-12,-3,-1,0,6
1499894127150834,-3,-9,-18,29,-2,-4,-1,1
1499894127166835,5,4,5,-3,1,2,0,13
1499894127166835,-3,0,-4,5,0,-1,-1,1
1499894127168836,0,0,-7,10,3,1,0,-3
1499894127168836,-4,-2,8,-13,-1,-1,-2,-2
1499894127189835,-1,-4,-7,0,-4,-3,-3,-3
1499894127189835,3,2,14,-2,-2,-1,-2,-18
1499894127190838,-4,-2,-9,-8,1,-2,-3,1
1499894127190838,0,-5,-7,7,-4,1,0,-3
1499894127202850,-7,1,0,18,2,1,-1,-8
1499894127202850,5,2,12,6,-1,-2,-2,11
1499894127211836,-4,-5,-5,6,1,1,-4,-32
1499894127211836,-2,0,-8,-15,2,0,1,-4
1499894127226854,5,-3,-6,-13,-4,-8,-2,10
1499894127226854,3,3,1,23,1,5,1,7
1499894127228838,-3,-6,3,-25,-3,-4,0,11
1499894127228838,-2,-2,-2,-17,-5,-2,-2,2
1499894127249855,-2,0,2,-11,2,1,2,-16
1499894127249855,4,4,-3,45,3,0,-1,19
1499894127250843,-8,-6,-3,-48,-6,-2,-2,-29
1499894127250843,7,1,7,18,-1,-1,-1,5
1499894127262844,-2,0,1,-12,-3,-1,-1,2
1499894127262844,-3,-3,-16,-6,-1,-1,0,-10
1499894127271843,-3,4,17,-12,0,2,1,3
1499894127271843,2,1,-15,-4,0,-1,-2,16
1499894127287842,-3,-6,4,58,-3,-2,-2,10
1499894127287842,5,-2,-2,-69,-1,2,1,-4
1499894127293846,-8,1,3,28,-1,-2,-1,-2
1499894127293846,-7,2,9,-18,0,-3,0,-42
1499894127309843,2,1,-4,-4,3,4,-1,18
1499894127309843,-5,-3,-13,26,0,-5,-4,3
1499894127311843,0,-2,-5,6,-2,-1,1,6
1499894127311843,-2,1,9,15,-1,0,-2,-3
1499894127322856,-3,-1,-2,6,0,0,-2,-10
1499894127322856,-1,-4,4,13,-1,-2,0,-9
1499894127331845,3,0,-8,-41,-2,1,-1,5
1499894127331845,-1,5,6,48,4,0,1,6
1499894127346844,-1,-8,-11,10,-2,-4,-2,-8
1499894127346844,-1,1,10,-40,-7,0,-2,3
1499894127348845,2,0,-3,48,5,0,1,6
1499894127348845,-4,-6,-15,-70,-8,-2,-3,1
1499894127376846,-1,5,9,-3,1,-1,2,-10
1499894127376846,0,1,4,16,1,1,-1,11
1499894127378847,0,-2,-13,9,-4,-1,-1,0
1499894127378847,2,-4,0,6,-2,-1,-8,-5
1499894127382847,-5,0,1,23,0,3,10,-20
1499894127382847,3,-3,-8,-76,-8,-4,-5,-5
1499894127391849,-1,-3,3,63,4,-1,-1,12
1499894127391849,5,-1,-2,-64,-2,1,-1,3
1499894127406864,-15,-2,-27,-27,-8,-6,-4,-10
1499894127406864,-1,0,12,24,5,1,0,4
1499894127408849,6,-3,-9,-13,-3,-3,2,-8
1499894127408849,0,1,7,34,5,3,3,2
1499894127429849,2,1,12,-2,2,0,0,-2
1499894127429849,-4,0,-11,-26,-6,-6,-3,-18
1499894127430850,0,-1,-5,40,-2,2,-5,4
1499894127430850,-1,-7,-4,-60,-6,-5,0,0
1499894127442860,5,3,10,-14,-1,0,-4,19
1499894127442860,-1,0,9,15,3,-1,0,5
1499894127451854,-12,-7,-17,-25,-5,-3,-3,-10
1499894127451854,4,4,0,18,-1,1,1,1
1499894127466854,-4,-4,-2,-8,-2,-1,-2,-3
1499894127466854,-2,2,-1,19,1,-1,1,-3
1499894127468852,0,-1,-2,-42,0,-1,-1,5
1499894127468852,-6,-4,-1,44,0,0,0,3
1499894127489854,4,1,-4,34,2,-1,-3,10
1499894127489854,2,3,7,-92,-8,-1,0,-5
1499894127491853,-9,-6,-11,-14,-3,-1,-3,-5
1499894127491853,2,-4,3,52,-1,-2,8,-12
1499894127502868,17,2,-1,2,0,-1,-1,35
1499894127502868,-6,1,9,44,8,4,1,-9
1499894127511855,-1,-1,-14,-41,-7,-4,-2,-7
1499894127511855,-6,0,4,-6,-1,0,-3,-6
1499894127526857,-4,-4,-1,-14,1,-3,-3,-2
1499894127526857,5,-2,-9,42,-4,-1,-1,-13
1499894127528854,-7,3,10,-7,-3,1,1,1
1499894127528854,-1,-3,-3,-34,-5,-2,-4,-1
1499894127549871,-4,-1,-2,-36,-1,-1,-3,-18
1499894127549871,0,-6,-3,65,0,0,-3,9
1499894127550856,1,3,3,-34,2,0,1,-5
1499894127550856,-3,2,-6,22,-1,-1,-3,4
1499894127562858,-6,-1,8,-23,-3,-1,-1,-9
1499894127562858,0,-4,-17,28,-1,-3,-2,13
1499894127571857,6,3,15,-6,1,2,-1,10
1499894127571857,-2,1,-6,14,2,-1,0,-22
1499894127586923,-2,2,5,-19,-3,0,1,4
1499894127586923,0,-4,-6,38,2,-1,-2,17
1499894127588860,5,4,7,-29,4,2,1,-21
1499894127588860,-11,-4,-9,-16,-7,-5,-6,-9
1499894127609861,6,-2,5,51,1,-3,0,-2
1499894127609861,-2,-3,-11,-33,-4,-4,-2,1
1499894127611859,-2,4,15,3,-1,-2,-2,-17
1499894127611859,-2,-4,-10,33,2,1,-1,3
1499894127631877,-2,-1,8,-17,-1,3,1,-7
1499894127631877,-6,-1,-10,28,2,-3,-3,-4
1499894127633864,6,0,-6,-53,-3,-2,-1,25
1499894127633864,0,-4,-2,-2,-2,0,0,5
1499894127646900,-2,0,-15,17,0,3,-1,-4
1499894127646900,0,-4,10,-20,-2,-3,0,0
1499894127648866,-3,-3,-13,27,0,-3,-2,-4
1499894127648866,2,2,4,2,0,-4,0,15
1499894127669883,3,2,-3,-43,-1,3,0,5
1499894127669883,-13,-5,3,25,-2,-2,-2,-32
1499894127670863,-4,-6,6,62,-6,-8,-6,-15
1499894127670863,-1,-1,-4,-19,2,2,-8,9
1499894127691909,-4,-2,-13,17,1,-2,2,-5
1499894127691909,3,-8,-25,-90,-6,0,-1,8
1499894127693864,2,0,2,28,-2,1,1,0
1499894127693864,0,1,10,17,1,-2,-3,-10
1499894127706911,0,2,2,-1,1,-2,1,-15
1499894127706911,-13,4,7,-25,1,4,1,12
1499894127708868,7,-3,8,51,1,-3,0,8
1499894127708868,2,1,-1,-28,-1,0,3,-13
1499894127729887,0,0,0,4,-2,-3,-2,9
1499894127729887,-3,-2,8,24,0,1,0,-7
1499894127730866,-1,1,-2,-18,2,-1,-2,8
1499894127730866,5,0,1,3,-3,1,2,5
1499894127750868,-3,-1,-2,-7,-4,-1,-2,3
1499894127750868,4,2,12,15,3,0,0,-5
1499894127759869,-4,-6,-10,-45,-7,-3,-2,-1
1499894127759869,4,1,9,-2,3,-2,0,16
1499894127766872,-4,-8,-25,4,-3,-1,-2,-4
1499894127766872,4,4,4,18,2,-1,0,7
1499894127772869,-2,2,1,11,0,2,-1,0
1499894127772869,-3,0,1,-17,-4,-2,-2,-1
1499894127789907,-2,-1,11,16,1,-4,-5,-2
1499894127789907,1,2,6,-54,-5,-1,-1,-15
1499894127790873,-2,-6,-7,60,2,-3,-2,5
1499894127790873,1,0,-8,-27,-2,1,1,14
1499894127811871,-3,-2,5,-10,0,2,-2,-18
1499894127811871,-3,-5,-15,5,-4,-4,1,3
1499894127813872,11,4,9,-12,0,3,1,16
1499894127813872,-6,-3,-1,-9,-1,-3,0,-5
1499894127826877,-5,-1,1,-23,-8,-4,-2,-2
1499894127826877,10,-3,-14,6,2,-1,0,5
1499894127832876,-21,-2,-5,26,2,1,2,-27
1499894127832876,1,3,3,-37,-1,-1,-1,1
1499894127849907,8,-3,-6,15,1,-3,-1,-1
1499894127849907,7,3,9,-5,3,0,1,4
1499894127850876,-2,-3,-19,-30,-8,-2,-1,1
1499894127850876,-4,-1,9,13,2,1,0,-10
1499894127871930,-9,-6,-9,-5,-6,-2,-3,1
1499894127871930,-1,1,5,15,-1,-1,-1,2
1499894127873878,6,0,7,24,7,1,0,12
1499894127873878,-3,-3,-15,-7,-3,-1,0,-12
1499894127886874,0,0,5,-30,-4,-3,-1,17
1499894127886874,-3,-3,1,10,-5,-2,-3,-3
1499894127892946,-2,2,9,13,4,0,1,3
1499894127892946,0,-4,-9,-28,-6,-3,-2,-19
1499894127909884,1,-2,-3,-6,0,1,1,-3
1499894127909884,-5,-4,-7,14,2,1,1,-4
1499894127911877,1,-1,3,-3,0,-3,-1,16
1499894127911877,-3,0,1,19,-1,-1,-2,4
1499894127931878,6,3,5,13,1,1,1,1
1499894127931878,-2,-1,2,-22,-1,-2,-2,0
1499894127933879,-6,-6,-21,-40,-4,-2,-2,-31
1499894127933879,6,-1,5,73,2,-3,-2,7
1499894127945894,1,2,5,9,2,4,1,-4
1499894127945894,-2,1,1,-56,-5,0,0,1
1499894127952943,-3,-3,-6,3,-2,-2,-2,-7
1499894127952943,-1,3,-5,-21,2,2,0,9
1499894127969881,-3,1,10,41,0,-4,-3,4
1499894127969881,-10,-9,-12,19,0,-2,-1,4
1499894127970880,9,4,4,-47,-4,0,-1,2
1499894127970880,-3,-3,-7,-16,-5,0,1,-8
1499894127991956,0,1,5,-3,0,1,1,-3
1499894127991956,-4,2,0,35,1,-5,-1,2
1499894127993881,3,1,4,-41,-1,1,-2,18
1499894127993881,-2,-2,-6,14,5,-2,-1,3
1499894128005928,-3,-2,-6,-14,-3,1,0,2
1499894128005928,1,-1,2,3,-2,-1,-1,-5
1499894128014889,-1,0,3,29,-1,-3,-1,-7
1499894128014889,-3,0,10,-4,0,-1,-3,6
1499894128029884,-2,3,-1,-10,-1,-5,-1,1
1499894128029884,-3,-6,-14,-24,-2,3,0,-16
1499894128030885,-1,0,7,37,2,-1,0,1
1499894128030885,2,-2,-5,-48,-7,2,1,-5
1499894128051940,-2,-2,8,47,2,-4,-1,-5
1499894128051940,2,1,2,-20,-4,-1,0,2
1499894128053886,-1,1,0,4,1,2,1,4
1499894128053886,0,-3,-1,12,1,0,-1,4
