timestamp,emg1,emg2,emg3,emg4,emg5,emg6,emg7,emg8
1499895314305899,2,0,28,-48,-2,-2,-2,-1
1499895314305899,-9,-2,-43,19,9,3,4,12
1499895314306900,-6,4,12,14,1,1,-3,-17
1499895314306900,7,0,10,7,3,-2,-4,-6
1499895314328922,0,-9,-28,-12,-12,-2,-4,-1
1499895314328922,8,11,27,26,8,4,0,2
1499895314329906,-3,-3,6,-43,-11,-5,6,-6
1499895314329906,-14,-4,-30,-15,1,-2,-4,4
1499895314342901,15,2,16,101,4,-1,-4,-4
1499895314342901,-38,-5,0,-126,-1,-2,-15,-20
1499895314350903,-1,-1,-6,-7,-4,-2,10,-2
1499895314350903,1,0,6,-45,-1,-3,-3,-12
1499895314365905,-10,-3,-13,63,-6,-2,-3,37
1499895314365905,19,-4,-7,-12,2,2,-6,-3
1499895314366903,-7,4,6,40,7,5,2,-33
1499895314366903,-16,-5,-6,19,-3,0,-2,-28
1499895314388904,-8,-2,-14,-86,1,-1,-1,2
1499895314388904,2,-2,11,23,-2,-6,-3,-37
1499895314389904,10,-4,-11,-12,-3,-4,-1,21
1499895314389904,-12,7,31,1,3,-2,-2,-2
1499895314404907,-32,-12,-35,13,-8,-1,3,-6
1499895314404907,5,-4,5,-50,-5,-4,5,10
1499895314411912,12,3,3,63,3,-2,-11,35
1499895314411912,-12,-7,-11,-64,2,-1,1,-28
1499895314425909,19,10,13,-47,-6,-2,5,-12
1499895314425909,-50,-1,7,15,-7,-2,1,-12
1499895314426908,35,4,27,83,6,1,4,0
1499895314426908,-20,-5,-26,-16,-7,-3,-21,6
1499895314448922,10,-6,-5,14,0,1,28,25
1499895314448922,24,1,2,66,3,0,-1,16
1499895314449913,-51,-6,-20,-87,-5,-2,-8,-18
1499895314449913,-3,2,13,53,3,1,4,3
1499895314462908,7,4,1,-55,3,1,-14,-19
1499895314462908,17,-1,-20,28,-2,0,5,12
1499895314471920,-5,-6,11,16,-1,-4,-3,17
1499895314471920,15,3,-7,-10,-7,1,1,5
1499895314485910,-10,-5,-5,-89,-3,-1,-6,1
1499895314485910,0,-5,11,56,-1,-1,2,55
1499895314486909,0,1,-15,24,3,1,5,-31
1499895314486909,31,0,-15,-102,-7,3,2,-6
1499895314509912,-27,-11,0,55,1,-3,1,29
1499895314509912,6,8,-2,26,8,6,-3,-11
1499895314510912,18,-4,-17,-102,-16,-8,-10,-11
1499895314510912,34,0,21,54,4,-4,8,53
1499895314531914,-35,1,-10,-8,-2,-1,-6,-38
1499895314531914,-5,-5,3,28,-2,-2,2,-16
1499895314532913,-17,-13,-28,-52,-7,-3,-6,4
1499895314532913,10,2,7,4,0,-2,2,37
1499895314545913,11,4,23,26,4,-1,-11,-31
1499895314545913,0,8,-11,-69,3,3,7,13
1499895314546913,1,-1,4,96,-7,-3,-3,24
1499895314546913,-15,-9,-21,-3,-8,-3,2,-17
1499895314568917,14,4,5,-11,0,-2,-5,3
1499895314568917,-5,2,4,-26,4,1,0,-5
1499895314569918,11,4,0,52,3,0,-1,17
1499895314569918,-43,-11,-3,-70,-16,-8,-7,-21
1499895314591920,-15,6,14,34,8,2,-5,-11
1499895314591920,25,1,-4,-5,-1,1,7,-21
1499895314592916,-27,-9,4,-31,5,0,-2,-11
1499895314592916,11,0,-3,69,2,1,-3,-11
1499895314605917,12,-1,0,-55,-9,1,5,16
1499895314605917,-11,1,2,-22,-3,-3,-4,-16
1499895314606917,-6,-1,5,-5,-10,-10,-5,-15
1499895314606917,8,-1,-7,30,12,6,-1,-21
1499895314628918,25,4,-24,4,4,2,-1,42
1499895314628918,-8,-9,-1,10,-11,-8,-3,7
1499895314629918,4,-4,-31,-4,-1,-1,0,11
1499895314629918,-7,6,12,9,0,0,4,-6
1499895314651919,-18,-7,-10,-64,-6,-5,-7,-10
1499895314651919,-2,-3,1,109,3,1,-1,-13
1499895314652920,2,3,11,-85,-5,1,0,-16
1499895314652920,10,1,-13,-50,-2,-3,-9,-22
1499895314665935,14,-2,0,36,3,0,2,-37
1499895314665935,-1,-3,15,51,-6,-6,-1,19
1499895314666919,-5,-1,-3,-49,-2,4,1,4
1499895314666919,13,-1,-1,4,-1,-5,-3,22
1499895314688922,-1,4,10,5,2,2,-2,-13
1499895314688922,-17,-7,-13,-50,-6,-1,0,13
1499895314689923,35,-3,4,73,-7,-4,-5,-9
1499895314689923,6,8,-9,-104,-3,1,-1,5
1499895314711922,2,-1,24,111,8,-3,0,-10
1499895314711922,7,3,-2,10,-1,0,0,29
1499895314712933,-47,0,-8,22,9,3,-2,-45
1499895314712933,-21,-5,13,52,-2,-5,-2,-17
1499895314725924,3,-9,-27,-80,-14,-4,-2,2
1499895314725924,1,8,-2,-47,3,3,5,-19
1499895314726928,14,11,32,49,8,4,1,-29
1499895314726928,-5,-9,-3,-23,-10,-5,-3,4
1499895314748926,-3,1,-4,16,6,2,2,-13
1499895314748926,14,-5,3,-42,-10,-4,-3,5
1499895314749926,-23,5,-9,-31,3,1,2,-5
1499895314749926,5,1,2,41,4,2,2,11
1499895314771932,15,1,21,25,-7,-1,-2,20
1499895314771932,-4,5,3,-10,7,2,-1,-20
1499895314772928,10,-9,7,16,-3,-2,-2,42
1499895314772928,-14,0,-5,-29,1,2,-1,-69
1499895314785927,-4,-8,-29,19,0,-2,2,-1
1499895314785927,-20,-3,-9,-62,-4,-5,5,-22
1499895314786926,-23,4,16,-36,-2,0,-5,13
1499895314786926,7,-1,-5,77,-2,-3,-2,26
1499895314808928,-5,3,6,-25,1,3,3,-35
1499895314808928,3,2,9,34,-1,0,1,3
1499895314809930,8,-4,-2,-62,-4,0,5,9
1499895314809930,0,1,31,76,4,-3,0,40
1499895314831934,26,10,25,9,5,1,-3,3
1499895314831934,-7,-5,-16,30,-5,-1,1,11
1499895314832932,14,-5,-46,-106,-12,-3,1,3
1499895314832932,-3,1,16,46,0,0,-4,-27
1499895314845937,-8,0,4,30,5,1,0,12
1499895314845937,9,-4,9,16,-3,-3,-5,3
1499895314846930,7,3,-22,-68,1,4,3,-11
1499895314846930,-15,-9,-7,56,-6,-3,0,-14
1499895314868937,8,-1,14,7,-3,-5,-2,43
1499895314868937,-3,3,-9,34,9,1,-5,-10
1499895314869931,1,0,14,-4,-7,-4,-1,31
1499895314869931,-4,-1,-9,-14,5,4,1,3
1499895314891933,-9,-3,-6,-29,-12,-9,-4,-3
1499895314891933,8,-10,-16,5,1,5,-3,4
1499895314892934,4,-3,12,22,2,-2,2,2
1499895314892934,-1,-1,7,-36,-1,-4,-1,12
1499895314905949,14,-2,-24,67,0,-1,-3,3
1499895314905949,-10,-4,-6,-111,-12,-5,-7,-14
1499895314906934,16,3,3,82,12,-1,-4,-7
1499895314906934,7,0,-4,-5,-2,1,4,-2
1499895314928940,-15,-3,8,60,-1,-2,-4,-20
1499895314928940,0,-2,-2,-79,-3,-3,1,34
1499895314929935,22,5,-6,-13,0,3,4,22
1499895314929935,-29,-5,-20,-5,3,-2,-1,-46
1499895314951936,-1,1,4,-29,0,-2,0,18
1499895314951936,0,-2,0,19,-7,0,-1,-5
1499895314952937,-4,1,16,-7,-5,-2,0,10
1499895314952937,4,5,-10,19,6,4,2,4
1499895314965952,4,-8,-8,-74,-6,1,1,46
1499895314965952,-15,-3,10,102,5,-5,-4,-2
1499895314966937,-1,-1,0,-14,-5,-3,-3,0
1499895314966937,5,-1,-1,-27,0,-1,-1,8
1499895314988939,-16,1,-9,-18,-4,3,4,-15
1499895314988939,13,-1,-7,19,4,-1,-1,33
1499895314989938,-5,-5,1,-9,4,-1,-4,-31
1499895314989938,-41,-15,-21,10,-10,-4,-2,16
1499895315011941,8,7,15,-32,3,1,3,-32
1499895315011941,-24,4,17,3,4,1,2,-32
1499895315012947,5,-8,-28,59,0,-2,-2,-11
1499895315012947,-4,1,7,-29,-7,-5,-2,1
1499895315025942,-2,4,9,3,1,0,-1,-22
1499895315025942,-11,-5,-10,0,-2,-3,-4,-37
1499895315026942,-6,1,4,39,5,2,0,5
1499895315026942,3,4,17,-49,-3,0,-2,-39
1499895315048942,4,-4,-12,14,-3,-11,-7,26
1499895315048942,10,-8,-16,-48,-10,4,-1,-4
1499895315049942,-12,0,18,63,5,3,1,-17
1499895315049942,20,-1,-14,-33,-6,-1,0,47
1499895315071948,1,3,8,-11,-3,-3,-6,-40
1499895315071948,2,3,20,31,3,-1,-1,-8
1499895315072945,-11,-13,-44,-49,-6,-4,-4,0
1499895315072945,6,0,19,102,10,2,1,14
1499895315085948,-15,-5,-10,-94,-10,-2,-1,5
1499895315085948,5,2,4,13,0,0,2,3
1499895315086944,5,2,11,-6,3,0,-2,20
1499895315086944,5,3,4,15,6,0,2,5
1499895315108962,8,0,-11,-17,-4,-1,0,2
1499895315108962,-4,-8,0,-7,-6,-5,-6,-23
1499895315109946,34,2,-1,-10,-1,-2,1,38
1499895315109946,-7,-4,-28,-42,-2,-2,-2,-36
1499895315131951,6,1,17,30,5,5,0,12
1499895315131951,8,0,-8,25,-4,-6,-5,20
1499895315132949,-2,1,10,-8,0,0,1,-8
1499895315132949,-21,-1,0,16,-7,-3,-3,14
1499895315145971,33,-1,3,45,3,1,1,14
1499895315145971,3,3,-3,15,2,-2,2,-8
1499895315146953,-10,0,-1,26,1,2,1,-7
1499895315146953,8,3,18,-27,-4,-1,-1,4
1499895315168965,-30,-12,-49,11,0,-1,-1,-17
1499895315168965,6,2,13,26,4,-1,0,2
1499895315169952,-10,-5,-18,-30,0,-1,-2,-18
1499895315169952,9,0,-3,-25,-4,-1,2,9
1499895315191950,-8,0,7,52,-2,-1,-5,-7
1499895315191950,6,3,-6,-13,6,2,3,-18
1499895315192952,-3,-5,-4,11,-6,-5,-1,11
1499895315192952,1,-3,-10,-4,-2,0,-3,-34
1499895315205993,-5,-3,11,11,2,0,0,3
1499895315205993,2,7,6,-25,-3,-2,-1,10
1499895315213994,8,-3,6,49,3,2,-2,11
1499895315213994,-5,-2,-11,-63,-3,-3,-1,-18
1499895315228972,0,-1,14,18,-5,-1,1,56
1499895315228972,-26,-2,-20,-35,-2,2,-4,-21
1499895315229957,10,-1,-4,11,-3,-4,-3,19
1499895315229957,9,-4,0,-4,3,1,-2,-4
1499895315251985,-5,-2,-3,2,2,1,0,-3
1499895315251985,-13,0,9,-36,-5,-1,-2,-31
1499895315252975,-15,3,-3,18,-1,-3,1,-20
1499895315252975,5,-4,11,47,2,-1,-2,18
1499895315265997,-7,3,-20,-49,-5,-2,-1,-3
1499895315265997,6,-10,5,-16,-7,-4,-5,27
1499895315273976,15,-1,-11,-4,0,1,-2,12
1499895315273976,6,6,16,-1,2,2,2,11
1499895315288956,-6,-1,-11,13,-1,0,-6,-72
1499895315288956,1,-10,-15,9,-8,-5,-1,11
1499895315289956,-4,0,2,7,-3,-1,1,1
1499895315289956,15,3,-6,-22,1,-2,-1,17
1499895315318958,1,1,11,52,7,1,2,-1
1499895315318958,6,0,-11,-75,-9,0,-1,13
1499895315319957,-33,-1,21,35,-3,-5,-4,-19
1499895315319957,-9,-2,-2,-12,-4,1,0,2
1499895315325998,-17,-1,-3,18,0,-4,-6,-72
1499895315325998,5,-1,8,4,2,0,1,25
1499895315333964,-12,-5,-18,-30,-1,-1,0,17
1499895315333964,-3,0,-13,62,2,2,1,-19
1499895315348961,-2,-1,-5,-68,-15,-4,0,21
1499895315348961,29,3,27,24,7,0,2,40
1499895315349961,-13,1,14,24,3,-1,-3,-29
1499895315349961,5,3,-20,-33,-4,0,0,13
1499895315371962,-2,-5,0,-25,-3,-3,-1,14
1499895315371962,0,0,-4,30,-5,-1,0,-8
1499895315372981,1,3,8,8,2,0,-1,9
1499895315372981,-2,1,11,29,7,1,0,-20
1499895315394966,-4,-3,-17,-76,-10,1,1,-10
1499895315394966,-13,0,-4,47,-2,-7,-5,-17
1499895315394966,-2,-1,-6,-13,0,-3,0,-13
1499895315394966,0,1,12,23,-4,1,-2,-4
1499895315409004,-2,2,-12,-15,5,1,2,-18
1499895315409004,19,2,0,2,4,5,2,29
1499895315409965,-4,-1,-5,-33,-4,-4,-2,-11
1499895315409965,-6,0,16,20,8,-1,-2,15
1499895315431969,5,-5,-4,-14,-10,-5,-2,33
1499895315431969,-15,-5,-16,44,6,0,-5,-90
1499895315432985,9,2,3,-29,-1,0,1,14
1499895315432985,-2,-3,-7,-61,-6,-2,-2,14
1499895315445965,-3,5,26,98,14,-1,1,0
1499895315445965,4,-2,-4,-31,0,-1,1,13
1499895315453983,-5,0,3,-6,-7,-3,-5,-32
1499895315453983,-1,-2,-9,3,2,-1,0,-16
1499895315469008,7,-1,10,-30,-5,-2,-2,-6
1499895315469008,-5,-1,0,41,4,1,0,-29
1499895315469973,0,-3,-1,-94,1,0,1,10
1499895315469973,-2,-1,-14,60,-5,-2,-2,21
1499895315491970,5,-1,-3,2,0,0,-3,3
1499895315491970,-3,4,25,-44,-1,-1,1,24
1499895315492969,-7,-2,-7,55,0,4,2,-5
1499895315492969,-18,-7,-20,-23,-1,0,-2,-24
1499895315514969,2,2,7,3,-2,-3,1,13
1499895315514969,-14,1,-2,-26,-2,-1,0,-6
1499895315515969,6,-1,5,52,-2,-2,-3,10
1499895315515969,13,5,21,-9,-1,1,2,21
1499895315528971,-8,-10,-20,-83,-6,-1,0,19
1499895315528971,16,0,-8,31,1,-2,-2,8
1499895315529988,-1,1,-14,-66,2,-1,-1,2
1499895315529988,-6,-8,23,84,-3,-5,-3,-22
1499895315552012,3,3,8,13,-2,3,-1,4
1499895315552012,-11,-8,-18,6,-6,-6,-2,-2
1499895315552991,-6,0,-5,-34,1,2,-1,-22
1499895315552991,7,-3,-2,7,6,-2,-2,14
1499895315573972,6,6,21,-48,2,-1,0,4
1499895315573972,-14,-4,-11,15,1,2,1,-8
1499895315574972,16,-1,1,-5,-6,-4,-3,14
1499895315574972,-6,1,-2,1,3,-1,-1,9
1499895315588973,-7,-2,16,16,-1,-1,-1,-17
1499895315588973,-4,-1,-7,-24,-2,-1,0,0
1499895315589974,-2,-2,-7,22,3,0,1,-7
1499895315589974,-2,4,-6,-22,1,-6,-2,3
1499895315611975,5,-4,1,35,6,6,-1,3
1499895315611975,2,3,2,-56,-4,-1,0,7
1499895315612985,-5,0,29,28,0,-3,-2,-38
1499895315612985,2,-6,-12,-5,-9,-4,-4,6
1499895315633995,4,6,4,38,7,-2,-2,19
1499895315633995,0,-5,-3,12,0,2,-2,-1
1499895315634976,1,-10,-26,8,-1,0,0,13
1499895315634976,3,2,17,-54,-9,-4,-1,6
1499895315648977,-15,5,8,-53,-2,-3,1,-13
1499895315648977,16,-1,-1,3,-2,-1,-4,2
1499895315649979,6,0,-13,31,2,1,1,11
1499895315649979,-6,-1,-5,-33,0,3,2,-9
1499895315671984,-19,-11,-20,32,-5,-5,-4,-19
1499895315671984,-5,6,10,-15,1,-3,0,4
1499895315672982,-5,-1,17,20,-1,0,0,-7
1499895315672982,6,1,-14,-40,1,4,-2,-11
1499895315694005,4,-4,1,72,-1,-3,-3,12
1499895315694005,-7,2,-12,-50,-5,-3,-2,-28
1499895315694980,-4,-2,2,10,-9,-2,-1,5
1499895315694980,-5,-4,0,13,2,-2,0,-4
1499895315709022,11,-1,7,45,1,0,-1,3
1499895315709022,-3,-2,-2,23,3,-1,-2,-14
1499895315709982,12,-1,-28,-46,2,1,1,25
1499895315709982,-7,-1,-3,-4,-5,-1,-3,-25
1499895315731982,12,2,-2,52,4,-1,1,26
1499895315731982,-6,-1,2,-71,-3,1,0,6
1499895315733003,-5,-5,7,-3,-6,-4,-3,-2
1499895315733003,1,-6,-14,36,3,-2,-3,12
1499895315754021,-6,1,-3,5,4,-1,0,-7
1499895315754021,14,5,5,-42,-1,3,3,53
1499895315754984,-28,-5,-2,41,1,-4,-3,-45
1499895315754984,10,2,1,-54,-5,0,0,6
1499895315769023,-9,-10,-30,-11,-4,1,-2,-5
1499895315769023,-2,-2,7,116,3,-3,-1,5
1499895315769983,-3,6,16,-37,-2,0,1,9
1499895315769983,6,-1,13,-3,-2,-3,-3,13
1499895315791985,1,2,1,-36,-3,1,0,-8
1499895315791985,-11,-4,0,37,3,0,-1,-12
1499895315792986,2,-4,-33,10,-3,0,-2,6
1499895315792986,3,2,15,4,-3,-1,0,-9
1499895315813989,5,-2,-8,-41,-6,-5,-3,-4
1499895315813989,0,-5,-16,-25,-9,-2,-1,10
1499895315815987,2,3,6,45,5,0,-1,21
1499895315815987,3,1,2,-72,-6,0,0,-1
1499895315829006,2,-2,-8,13,2,-1,-1,-4
1499895315829006,-9,-3,5,18,3,-1,-2,-23
1499895315829006,4,4,13,-28,0,0,-2,-6
1499895315829006,3,-9,-25,14,-3,-1,0,20
1499895315852029,-6,4,19,-1,2,-1,-2,-12
1499895315852029,5,-1,0,39,1,0,-2,13
1499895315853008,4,-1,-18,-50,-3,-4,1,-2
1499895315853008,-3,-3,16,46,-1,2,0,3
1499895315874010,0,0,7,-19,1,-2,-2,-9
1499895315874010,4,-1,-12,22,-4,-2,0,23
1499895315874989,-2,-2,6,-7,2,0,-2,-31
1499895315874989,-4,6,0,0,4,1,-2,-9
1499895315888991,0,-2,-2,10,-4,0,0,27
1499895315888991,-11,-5,-11,22,5,1,-1,-11
1499895315888991,-1,-4,-14,-51,-17,-4,-1,4
1499895315888991,-6,4,12,66,5,-2,-1,-12
1499895315911042,-7,0,-9,-9,3,3,0,-5
1499895315911042,0,-3,0,27,3,-4,-3,-19
1499895315911997,-3,-1,16,-23,-6,-4,-2,-6
1499895315911997,0,-2,-14,-27,4,3,2,1
1499895315934013,8,4,22,21,0,-1,-1,0
1499895315934013,7,2,-3,-18,-1,0,0,-7
1499895315934994,-16,-1,-9,43,6,0,-2,-37
1499895315934994,5,-3,20,43,-5,-6,-3,11
1499895315948998,-12,2,-9,-82,-2,0,1,11
1499895315948998,-5,-4,7,25,-6,-1,-1,-44
1499895315948998,5,-3,1,1,6,0,-1,25
1499895315948998,-4,-2,-3,8,-2,-3,-3,-2
1499895315971002,5,-1,-4,-2,-2,-1,1,9
1499895315971002,-6,0,-4,-36,0,-3,-1,3
1499895315971996,-3,3,8,-52,-9,-3,-2,-19
1499895315971996,-16,-3,-8,37,3,-3,-2,-7
1499895315994018,12,0,-1,-34,1,4,0,10
1499895315994018,0,-3,-3,8,-2,0,-1,1
1499895315994998,5,1,22,40,4,-2,-3,18
1499895315994998,-8,-5,-40,-39,-4,0,1,-19
1499895316009038,-3,-1,-9,-33,0,-4,-3,-11
1499895316009038,3,-2,-4,57,-4,-1,-1,12
1499895316009997,12,2,12,30,4,5,4,29
1499895316009997,1,-6,-4,-82,-7,-4,-2,-6
1499895316031019,-7,-7,-12,61,3,0,0,-14
1499895316031019,6,6,-8,-107,3,5,1,14
1499895316032000,0,-8,0,42,-13,-8,-4,2
1499895316032000,-1,1,14,-12,1,0,-3,-11
1499895316054002,2,1,2,21,-4,-4,-1,3
1499895316054002,1,-3,-3,9,0,-2,-4,-19
1499895316055001,-7,-2,-7,4,0,3,1,-10
1499895316055001,12,7,5,-5,2,1,0,13
1499895316069040,7,-6,-17,19,-6,-3,-3,4
1499895316069040,-17,3,17,-49,-8,-4,-3,-2
1499895316069040,-10,-7,-13,-2,3,-1,-5,-4
1499895316069040,-1,-4,-7,21,-1,3,6,-17
1499895316091002,-8,3,21,-5,4,1,-2,-45
1499895316091002,7,-2,-42,13,-7,-2,-3,21
1499895316092002,-3,4,17,0,5,2,3,53
1499895316092002,-5,-5,-5,15,0,-1,5,-39
1499895316114020,-2,-2,-5,-13,0,1,-3,-14
1499895316114020,0,-2,11,17,-9,-9,-1,17
1499895316116011,-4,-1,4,0,2,4,-2,-33
1499895316116011,4,5,3,5,4,2,1,12
1499895316128005,0,-5,-9,7,-13,-5,-1,7
1499895316128005,-4,0,24,-19,2,-2,1,-5
1499895316136024,1,-8,-34,-20,-3,-2,-2,4
1499895316136024,1,4,6,17,1,1,-2,9
1499895316151044,-6,-11,-10,2,-3,-3,-2,-23
1499895316151044,2,4,5,3,4,2,-1,11
1499895316152007,2,2,15,10,0,-3,0,0
1499895316152007,13,0,-5,-32,-2,0,-3,1
1499895316174011,-22,4,20,-15,-8,-1,-2,11
1499895316174011,1,-8,-21,-4,4,1,2,-27
1499895316175010,7,3,7,32,3,0,0,13
1499895316175010,-3,-3,3,2,-3,-3,-3,17
1499895316188008,7,4,21,22,2,-1,0,10
1499895316188008,-6,-6,-7,0,1,1,-1,-16
1499895316196008,-2,0,-13,-10,-2,0,2,32
1499895316196008,-8,0,4,-8,-5,-2,-2,-50
1499895316211009,-3,-2,-7,26,5,-1,0,-2
1499895316211009,10,-2,-1,-52,-10,1,1,-2
1499895316219075,-9,2,7,-15,-1,-1,-1,-1
1499895316219075,3,-1,-26,16,0,-9,-2,17
1499895316234031,-1,-8,-18,-71,-2,2,-4,-4
1499895316234031,2,5,2,80,4,4,0,7
1499895316235012,-6,2,8,-34,-7,-4,-3,-47
1499895316235012,-8,-4,2,25,0,0,-1,15
1499895316248029,5,1,-8,42,6,0,1,-3
1499895316248029,1,-1,14,-49,-2,-2,-2,13
1499895316256049,3,-5,-15,23,-2,-1,-2,-10
1499895316256049,-2,0,5,-14,0,1,-1,32
1499895316271031,-3,-3,-6,-7,-4,-3,0,0
1499895316271031,0,-1,-17,-2,4,1,-1,-1
1499895316272018,-1,1,7,-15,-4,-2,-1,9
1499895316272018,5,-3,-7,0,-3,-3,-3,4
1499895316294047,12,4,8,1,0,1,0,44
1499895316294047,-6,5,20,-26,4,1,2,-12
1499895316301019,-2,-8,3,56,1,-2,-1,-8
1499895316301019,-6,-4,-12,24,-4,0,1,9
1499895316308058,-5,-2,-8,-58,-5,-4,-3,-22
1499895316308058,-16,1,14,3,2,0,-2,-1
1499895316316058,12,5,-6,-30,-1,1,-1,5
1499895316316058,8,-1,8,16,0,2,2,9
1499895316331023,-5,-4,-5,24,-2,-1,-3,-8
1499895316331023,2,-4,7,22,0,-6,-3,5
1499895316332027,-1,2,-4,7,1,1,2,25
1499895316332027,-2,1,-1,16,-1,-7,-3,4
1499895316354039,2,1,-1,-55,-2,7,3,4
1499895316354039,4,-4,-8,19,-3,-3,-2,-2
1499895316355018,1,-3,-9,-8,1,-2,-1,1
1499895316355018,0,1,2,-28,-1,1,-3,-1
1499895316368038,2,0,-9,28,2,-2,0,-3
1499895316368038,1,-6,22,40,-5,-1,-2,1
1499895316376041,-6,-3,-25,-41,-6,-2,-2,-13
1499895316376041,-7,1,14,-26,-1,0,1,-1
1499895316391022,1,2,-9,-3,-3,-3,0,-3
1499895316391022,5,-2,8,-28,-1,6,2,4
1499895316392020,-3,1,-2,2,0,-1,0,-45
1499895316392020,-5,-5,-5,11,0,-1,-2,-15
1499895316415031,-7,-1,7,17,-2,-3,-5,-27
1499895316415031,-5,2,-13,-22,-3,-2,-2,9
1499895316416027,3,-2,-3,16,2,1,-1,8
1499895316416027,-3,0,-6,-22,0,1,2,2
1499895316428032,1,-1,-3,3,-3,-3,1,-10
1499895316428032,-6,0,9,9,-2,-2,-2,5
1499895316436059,-4,-4,-3,13,3,-2,-2,-6
1499895316436059,-4,0,-9,-12,-8,-3,-3,-11
1499895316451079,11,5,26,22,4,1,0,17
1499895316451079,2,-5,-32,30,1,0,0,-5
1499895316452023,-2,-6,-4,-24,-16,-13,-5,9
1499895316452023,6,3,10,24,5,7,2,34
1499895316474027,10,-3,6,-7,1,1,-2,32
1499895316474027,-10,3,6,16,-1,-1,1,-26
1499895316475024,3,-2,-24,12,6,4,2,-1
1499895316475024,-9,0,20,-71,-2,-2,-5,7
1499895316497029,-6,-11,-19,60,-14,-9,-4,-8
1499895316497029,1,4,5,4,6,3,0,7
1499895316498027,-3,-3,-11,-47,-4,-2,-1,-8
1499895316498027,1,2,3,-6,5,-1,0,-20
1499895316511029,-1,2,-10,0,4,3,2,7
1499895316511029,-2,3,1,-7,-1,-2,0,-26
1499895316512027,-9,-7,15,81,0,-2,-5,-9
1499895316512027,5,-5,-8,-67,-12,-5,-3,7
1499895316534033,4,-2,4,-3,0,-1,-2,-4
1499895316534033,-2,0,-14,-9,-4,-3,-1,9
1499895316535029,3,8,18,9,7,6,3,-6
1499895316535029,5,0,1,14,4,-1,-1,-10
1499895316557093,1,-7,-24,23,-4,-4,-2,32
1499895316557093,-9,-9,13,-33,-9,-5,-2,-5
1499895316558035,27,6,16,-7,3,6,3,56
1499895316558035,-3,0,-25,1,-4,-4,-3,-3
1499895316571049,-6,6,29,5,4,3,2,-8
1499895316571049,1,-3,-14,-5,-7,-10,-4,-1
1499895316572031,5,2,4,-60,-3,3,0,16
1499895316572031,-3,0,4,23,3,1,1,-13
1499895316594033,2,1,-3,-8,1,-1,-2,2
1499895316594033,-1,-1,14,38,3,-1,-1,7
1499895316595032,-13,-4,-19,-58,-9,-4,-2,-30
1499895316595032,6,-1,2,7,-1,0,-1,0
1499895316617041,-12,-8,-4,2,1,-2,-3,-9
1499895316617041,-8,1,5,-54,-5,2,-1,-15
1499895316618033,-12,2,-1,5,3,-2,-1,-16
1499895316618033,-3,4,13,58,3,1,1,11
1499895316631037,1,-3,-24,7,-2,1,0,-15
1499895316631037,-1,-2,-5,-16,-2,1,1,-8
1499895316632058,1,3,4,54,5,2,0,-9
1499895316632058,2,-4,-1,-81,-10,-4,-2,0
1499895316654074,-1,5,17,15,0,-4,-4,20
1499895316654074,5,3,4,42,3,2,0,-21
1499895316655044,-7,-8,-13,-101,-8,-1,-1,-10
1499895316655044,16,-2,-1,58,7,0,-1,10
1499895316677100,-1,-1,-3,-4,3,2,1,-7
1499895316677100,2,1,-17,-30,-4,1,-3,4
1499895316678036,1,3,26,43,5,-3,-1,1
1499895316678036,-3,-1,-5,-16,-8,-4,-3,18
1499895316691040,-3,-3,-11,4,-3,-2,-1,-7
1499895316691040,0,0,-2,4,4,3,1,10
1499895316692037,-2,-1,-2,60,0,-3,-2,11
1499895316692037,-5,-2,-1,-14,5,2,1,-15
1499895316714047,-5,-1,15,-73,-12,-5,-1,-6
1499895316714047,8,-7,-28,1,-3,-4,-3,2
1499895316716044,-1,-2,0,3,0,1,-1,-7
1499895316716044,-8,-1,-1,49,3,3,1,-16
1499895316737039,0,7,4,2,1,0,-1,-17
1499895316737039,-3,-6,5,29,-3,0,0,12
1499895316738061,5,0,1,1,-3,-3,-1,-16
1499895316738061,-9,-3,-11,-13,2,-1,0,-1
1499895316751072,9,-3,-1,16,-1,2,1,20
1499895316751072,0,-5,-26,-30,-5,-1,0,-4
1499895316752041,-5,3,14,53,3,-4,-1,-5
1499895316752041,2,1,7,-39,-6,1,-1,-11
1499895316774063,0,-1,-5,-22,-2,-3,1,7
1499895316774063,11,2,23,32,4,-1,-2,-7
1499895316775062,-2,-12,-31,10,0,-3,0,7
1499895316775062,-8,2,15,-6,-2,-1,-3,-22
1499895316797045,-6,1,5,-16,7,3,1,0
1499895316797045,1,-4,-14,-6,-7,-4,-2,9
1499895316798044,-1,-1,1,-29,-4,-3,-2,2
1499895316798044,-2,-3,-16,9,-2,-2,1,-12
1499895316811054,3,3,10,18,1,3,2,-17
1499895316811054,-7,6,25,-19,4,2,0,5
1499895316812043,0,-4,-26,9,1,0,1,21
1499895316812043,-5,-9,-22,-42,-14,-4,-4,-34
1499895316834045,-5,2,8,0,-1,-6,-1,-7
1499895316834045,1,0,0,9,-4,-1,2,16
1499895316835045,-18,-6,-10,-22,-6,2,-3,0
1499895316835045,8,4,10,52,7,3,3,-7
1499895316857105,3,-5,-20,4,0,1,0,5
1499895316857105,-4,1,13,-25,-2,-5,-3,-6
1499895316858051,0,4,14,37,3,1,0,1
1499895316858051,1,-4,-9,38,0,-4,-1,12
1499895316871050,-6,-6,-3,-49,-10,-1,-4,-13
1499895316871050,-3,3,1,5,3,0,1,-5
1499895316872069,5,5,6,2,3,0,-1,-16
1499895316872069,4,0,-5,-33,-2,0,0,7
1499895316894067,-2,-3,-14,-2,0,-1,-1,0
1499895316894067,-8,1,5,2,0,1,-1,-10
1499895316901078,4,-6,-16,-4,-4,-4,-2,16
1499895316901078,-6,3,5,21,5,0,-2,-21
1499895316917070,-6,-1,0,-42,-5,-2,-1,-8
1499895316917070,14,-2,-6,21,0,-1,2,45
1499895316918051,-5,0,2,-23,-3,-1,1,-15
1499895316918051,2,0,14,66,2,-5,-1,23
1499895316931051,4,-2,-24,-53,-6,0,-3,-11
1499895316931051,-7,-4,-11,14,5,1,1,-12
1499895316932072,-1,2,20,-4,0,-1,-1,-6
1499895316932072,-6,0,-5,-61,-2,-4,-1,5
1499895316954099,-1,1,28,97,-3,-5,-2,5
1499895316954099,4,-3,-11,-41,0,4,0,-10
1499895316955057,6,-3,-23,-19,-9,-4,-3,19
1499895316955057,-17,-6,-12,33,5,4,0,-49
1499895316977094,9,6,32,-26,1,-2,-2,0
1499895316977094,-7,-3,0,-3,0,1,-1,-13
1499895316978054,-5,-2,-9,24,-2,-2,1,2
1499895316978054,2,0,8,-57,-1,-2,0,14
1499895316991086,0,-3,-23,-1,0,3,1,6
1499895316991086,-1,-3,13,18,-4,-3,-4,3
1499895316992057,1,4,19,13,-2,-1,-1,-7
1499895316992057,11,-5,-2,-17,-5,1,-2,42
1499895317014100,-5,-6,-23,26,6,-1,0,-21
1499895317014100,-4,5,0,-2,0,0,0,-9
1499895317016062,-3,0,2,-43,-2,0,-1,-5
1499895317016062,4,-3,3,24,-5,-3,-4,10
1499895317037059,-2,1,8,-1,0,-1,1,-8
1499895317037059,-2,-1,-8,22,3,-1,-2,-2
1499895317038076,0,1,5,9,0,-2,-2,-14
1499895317038076,-1,-1,-12,-11,-1,0,1,-7
1499895317051062,-4,2,15,59,1,-2,-2,11
1499895317051062,-3,-3,-11,-30,-3,-6,-4,-2
1499895317060059,4,-2,9,5,-1,3,-1,9
1499895317060059,-1,-2,-35,-4,-1,1,1,6
1499895317074080,-4,-2,20,14,-1,0,-5,-51
1499895317074080,3,4,2,-35,-1,-1,-1,9
1499895317076059,-3,-10,-7,25,-1,-2,-2,1
1499895317076059,-2,1,1,12,-5,-2,-1,-4
1499895317097078,-1,-1,-6,-27,-3,0,0,14
1499895317097078,1,-2,-3,8,-3,-2,-2,-9
1499895317099084,-3,1,1,-7,1,-3,-3,0
1499895317099084,23,1,9,-21,4,6,1,23
1499895317111086,-17,-7,-5,33,-8,-3,-1,2
1499895317111086,-6,3,13,10,-1,0,-1,-8
1499895317120064,10,0,-10,-22,-1,-1,-2,14
1499895317120064,2,-3,-4,28,2,-4,-3,4
1499895317134063,5,-3,-13,-34,-1,0,0,20
1499895317134063,9,0,1,-3,0,1,0,18
1499895317136066,-2,-2,5,3,2,0,-1,-17
1499895317136066,-11,2,7,23,3,0,-1,-11
1499895317157098,4,1,-16,-35,1,-2,-2,11
1499895317157098,-1,-4,-8,-21,-20,-7,-4,13
1499895317158068,-4,-3,-4,26,1,-3,-3,-7
1499895317158068,-2,0,12,-18,3,0,-1,-25
1499895317171065,-5,-1,-7,23,0,-1,1,-1
1499895317171065,2,-2,-2,12,-1,-2,-3,-9
1499895317179084,-5,1,11,-34,-5,0,1,-12
1499895317179084,-5,-2,6,10,-6,-4,-1,-1
1499895317194104,10,9,10,22,7,0,0,15
1499895317194104,-12,-18,-15,-3,0,-2,-3,1
1499895317196067,-4,2,4,-56,-11,-3,-2,-2
1499895317196067,5,0,10,47,-2,-7,-1,15
1499895317217068,-6,-3,-11,-21,0,7,3,-11
1499895317217068,-7,2,4,-14,2,0,1,-10
1499895317219067,1,-2,-16,4,3,1,-1,14
1499895317219067,-6,-5,-7,-29,-4,-3,-2,7
1499895317230068,0,1,16,14,2,-4,-2,-13
1499895317230068,0,1,-6,63,6,0,0,-2
1499895317240077,-3,-3,-1,-87,-8,0,0,2
1499895317240077,-7,3,-6,26,-12,-3,-1,-8
1499895317254136,14,-4,-1,11,-1,-4,-1,-17
1499895317254136,-31,-3,2,-3,3,0,-3,-47
1499895317256071,0,1,5,18,-1,0,0,-12
1499895317256071,2,0,1,4,2,1,0,-7
1499895317277145,-6,-6,14,-32,-6,-1,-1,13
1499895317277145,6,-3,-21,1,-3,-3,-1,11
1499895317278071,1,3,9,19,6,0,-1,-2
1499895317278071,-8,-1,7,-15,-1,1,-1,-9
1499895317299094,4,2,-7,1,2,-1,0,6
1499895317299094,6,-2,4,-27,-10,-4,-2,6
1499895317301072,-4,-6,-12,56,-1,-3,-1,9
1499895317301072,-4,-2,0,-31,2,4,-1,-7
1499895317314118,-5,-2,-13,19,1,-4,-2,-9
1499895317314118,9,3,3,-26,-1,0,-1,29
1499895317317074,0,-2,-8,-2,-1,-2,-1,0
1499895317317074,-3,-5,-12,10,-2,-2,-1,6
1499895317337078,1,0,-3,-20,0,0,0,2
1499895317337078,2,0,7,-26,3,1,1,-4
1499895317338095,-2,2,16,103,3,0,-2,-7
1499895317338095,0,-4,-6,-66,0,1,2,1
1499895317351085,-4,1,16,37,0,-1,0,3
1499895317351085,1,1,-3,27,2,0,0,8
1499895317359114,0,4,0,-62,-2,-2,0,-8
1499895317359114,-5,-5,-10,-18,3,-2,-2,2
1499895317374076,0,5,-14,-4,-4,1,-1,-26
1499895317374076,-8,-10,-14,12,-4,-5,-1,-13
1499895317376081,7,0,-5,31,9,3,4,3
1499895317376081,1,1,3,-52,-7,-3,-1,1
1499895317397078,-15,-1,-1,4,1,1,-1,13
1499895317397078,6,4,1,-2,0,0,0,3
1499895317398098,-3,0,-1,-6,-5,-1,-2,-5
1499895317398098,0,-2,9,62,1,-5,-3,7
1499895317419080,2,-3,-3,-20,-2,2,0,2
1499895317419080,1,2,-4,-1,1,-2,-1,-2
1499895317421081,-2,-1,-5,-23,0,2,-2,5
1499895317421081,1,7,16,-3,-2,-1,-1,-2
1499895317434101,-4,-10,-16,0,-5,-3,-1,0
1499895317434101,0,1,7,16,2,1,1,-2
1499895317440081,0,-3,-7,-43,-4,-3,-1,0
1499895317440081,-6,0,-6,-32,-2,-1,-3,-29
1499895317457081,0,3,-1,35,1,0,0,3
1499895317457081,5,-7,0,8,-3,-4,-3,16
1499895317458083,-1,-1,0,11,3,-1,1,0
1499895317458083,-5,4,13,-9,-1,2,0,-4
1499895317479089,7,2,-2,-9,-1,0,-1,15
1499895317479089,0,1,-3,7,0,-7,-2,-19
1499895317481083,-5,1,2,50,-2,3,0,-2
1499895317481083,8,-2,-1,-11,0,-2,-5,13
1499895317494124,-8,-4,-38,-32,-7,-2,-3,-16
1499895317494124,-2,0,17,16,-1,-2,-2,-3
1499895317496084,-7,-5,-9,0,-3,-4,-2,-10
1499895317496084,2,4,5,10,-2,0,2,24
1499895317517091,0,-4,-12,-9,4,1,-1,2
1499895317517091,-3,-2,-5,-37,-6,-1,0,-17
1499895317518085,-5,-1,4,-6,1,0,-1,6
1499895317518085,9,0,-5,30,-2,-2,-1,-1
1499895317539087,-3,3,18,-33,-1,-4,-2,1
1499895317539087,-6,-1,-13,9,-5,2,2,-5
1499895317541087,3,-3,-12,-32,-2,-1,-1,-4
1499895317541087,-3,1,13,36,2,-1,0,-8
1499895317562097,-1,-4,-2,4,-1,-2,-3,0
1499895317562097,0,-1,4,-4,4,1,-1,6
1499895317563090,-3,4,12,11,-3,0,1,-13
1499895317563090,-6,-5,-19,2,2,-1,-3,-7
1499895317577108,0,-5,8,27,-1,-5,-1,5
1499895317577108,0,3,11,-20,3,3,2,16
1499895317578094,0,-5,-16,-15,-4,-2,-1,4
1499895317578094,-9,-5,-2,-66,-13,-3,-2,-10
1499895317599092,2,2,9,11,1,2,2,-3
1499895317599092,-4,-2,-2,-23,-2,-3,-2,-4
1499895317601090,-2,2,-2,23,4,2,-3,-29
1499895317601090,12,3,34,38,0,1,1,18
1499895317614121,0,2,1,-45,-3,-1,-1,10
1499895317614121,-3,-4,-10,37,-2,1,-2,-12
1499895317620156,-3,-3,10,8,2,-4,-1,8
1499895317620156,-4,-2,-16,-13,-6,-5,-2,-10
1499895317637095,4,1,22,-6,-1,0,-2,-5
1499895317637095,2,-2,-17,9,1,0,1,12
1499895317638095,3,-1,-1,-34,-7,0,-1,-10
1499895317638095,8,0,-6,4,4,3,2,-3
1499895317659099,-5,0,-11,-10,0,-2,1,2
1499895317659099,0,0,9,26,-3,-4,-3,-6
1499895317661104,-3,0,11,-15,-4,-2,-2,9
1499895317661104,-8,-5,-18,27,4,2,-2,-13
1499895317674095,2,0,-5,-54,-5,0,-1,-8
1499895317674095,2,2,-7,21,2,1,1,6
1499895317680097,2,0,6,-6,-1,-2,-1,14
1499895317680097,-8,-6,-27,-4,0,-2,-1,0
1499895317697096,6,-1,9,-4,-1,-1,-1,19
1499895317697096,-5,0,12,-6,1,0,0,-9
1499895317698096,6,-2,-23,9,-2,-4,-2,5
1499895317698096,-5,3,-11,-9,3,0,-1,14
1499895317719134,-8,-7,-2,84,1,-2,-1,-20
1499895317719134,6,4,13,-67,-6,-8,0,17
1499895317721097,11,2,-3,23,-3,5,1,23
1499895317721097,-19,-4,-4,-27,1,0,-1,-36
1499895317734118,-1,-1,2,51,1,-1,0,1
1499895317734118,12,-2,-10,1,-1,-3,-1,15
1499895317741098,-12,2,2,-25,0,2,0,2
1499895317741098,5,-3,2,25,-4,-1,-1,6
1499895317757134,-1,0,16,-17,-5,-3,-2,2
1499895317757134,-1,-3,-12,37,3,-1,0,-12
1499895317758100,-1,-2,-4,-35,-2,-3,-1,-6
1499895317758100,1,0,-10,-30,1,1,1,-5
1499895317779119,0,-1,-13,-31,0,-1,-1,2
1499895317779119,0,0,17,5,-5,-3,-5,22
1499895317781100,-1,-5,-23,26,-3,-4,-1,-13
1499895317781100,-2,4,19,19,3,1,3,3
1499895317794148,1,-7,-27,-22,-3,-1,-1,7
1499895317794148,-4,6,13,-20,1,3,1,-19
1499895317800104,-4,-6,-11,70,4,-1,-1,-8
1499895317800104,1,-1,-1,-84,-11,-6,-2,0
1499895317817102,1,3,8,48,0,-4,-1,-1
1499895317817102,1,3,4,-7,3,5,3,-1
1499895317819102,-11,-4,2,-35,-7,-6,-5,-34
1499895317819102,6,1,-5,63,0,-5,-2,0
1499895317839103,-3,0,-4,-4,2,3,1,6
1499895317839103,1,0,8,-23,2,7,1,-9
1499895317841108,1,-5,-13,-25,5,0,1,15
1499895317841108,-5,-4,-17,17,-3,-3,-2,-3
1499895317854168,-1,-3,14,38,1,-2,1,14
1499895317854168,3,1,-9,-29,-1,-3,-1,3
1499895317861121,-3,0,4,-6,-1,2,1,-1
1499895317861121,2,-3,8,29,4,-2,-3,6
1499895317876143,2,3,-2,-10,1,-1,1,0
1499895317876143,-2,-1,-4,-35,2,0,-1,-9
1499895317885106,3,-1,7,41,-1,-2,-3,6
1499895317885106,-7,-5,-53,-43,-3,3,2,-6
1499895317899129,0,-6,-6,11,-5,-3,-5,4
1499895317899129,-14,-1,4,28,6,2,3,-19
1499895317905172,3,2,-2,-21,1,-3,-1,-5
1499895317905172,2,0,29,-25,-3,-1,-3,4
1499895317913117,-2,2,-5,-28,1,-1,1,-3
1499895317913117,-5,-8,-22,-9,-7,-5,-3,-3
1499895317922109,14,4,22,31,3,1,0,29
1499895317922109,-2,-2,0,11,-2,0,1,9
1499895317937112,1,3,11,-18,-2,-3,-1,-5
1499895317937112,-8,-6,-11,3,-4,2,-3,-37
1499895317938113,-2,1,1,-39,-2,-1,-1,7
1499895317938113,2,1,22,70,0,0,-2,7
1499895317959122,1,0,-8,-65,-7,-5,-3,-11
1499895317959122,13,-2,4,66,-4,-2,-1,46
1499895317961121,-14,-1,-15,-37,-1,-1,-1,-5
1499895317961121,0,-1,6,42,2,-1,0,-5
1499895317973132,-5,-4,-14,-54,-8,2,1,4
1499895317973132,-4,4,13,19,5,-3,-2,-11
1499895317982111,-4,-4,-10,19,-6,-2,-2,2
1499895317982111,11,4,24,1,-2,-2,0,2
1499895317997113,3,4,2,9,2,1,0,4
1499895317997113,1,-4,-9,-5,-3,-4,-4,-1
1499895317998135,-2,0,0,-31,1,1,2,-8
1499895317998135,-7,-3,-1,-16,-4,-1,-3,-7
1499895318019150,-2,-3,-4,8,0,-1,-2,-3
1499895318019150,-1,2,6,15,-1,0,0,8
1499895318021118,1,1,21,11,3,-1,0,-8
1499895318021118,-6,-3,-15,-6,1,-1,-1,3
1499895318033117,0,4,19,-38,-5,2,-1,-19
1499895318033117,-2,-5,-29,39,2,-5,-3,9
1499895318042117,1,-3,-10,-30,-12,-5,-3,-4
1499895318042117,-2,0,-5,-19,1,4,2,-4
1499895318057180,1,0,9,17,0,0,-4,9
1499895318057180,-1,0,3,-3,0,1,2,-6
1499895318058133,2,2,7,-2,0,1,2,-1
1499895318058133,-3,1,-2,-10,-3,-4,-3,0
1499895318079120,-2,1,-7,11,4,-2,-1,-4
1499895318079120,2,3,14,5,-4,-6,-3,-1
1499895318081119,0,-7,-11,27,0,1,-1,-1
1499895318081119,1,-1,15,-16,0,2,-1,16
1499895318093118,-3,-4,-20,20,1,-2,-1,-6
1499895318093118,-1,-3,6,10,-1,-3,-2,0
1499895318102119,-1,1,8,-54,-3,-4,-1,0
1499895318102119,-4,2,2,29,2,2,2,-21
1499895318117120,-6,-9,5,3,-5,-2,-2,12
1499895318117120,8,1,-11,-14,0,2,1,1
1499895318118119,-13,0,1,30,4,-1,-1,-9
1499895318118119,-3,-2,-11,-41,-2,-1,-1,-7
1499895318139121,1,-1,-8,43,-2,-3,-1,0
1499895318139121,-6,-2,12,-32,-3,0,1,0
1499895318141122,4,-2,8,2,1,-1,-1,-5
1499895318141122,0,-2,-11,11,2,0,0,-1
1499895318153160,-2,1,-3,-40,-3,-2,-1,-5
1499895318153160,-2,-7,-10,-16,-6,-5,-4,-4
1499895318162124,-1,-1,-1,-4,0,0,-1,0
1499895318162124,2,2,7,49,0,-1,1,11
1499895318177177,2,-5,-9,-35,-4,-4,-4,-5
1499895318177177,-4,1,4,-12,0,2,2,-1
1499895318178124,-3,1,3,-5,-3,0,1,-9
1499895318178124,-1,-6,-10,22,0,-4,-4,-9
1499895318199124,0,2,9,-17,2,0,3,-5
1499895318199124,0,-3,-11,-1,-3,1,-1,3
1499895318201126,0,-1,0,-25,-8,-3,-2,-1
1499895318201126,0,1,4,-27,-3,-2,-1,15
1499895318213156,4,-4,-12,20,-1,-6,-1,6
1499895318213156,-7,-1,-1,-8,5,10,1,-4
1499895318222126,-1,-2,-1,46,0,-2,1,-7
1499895318222126,0,-3,-2,-45,-9,-4,-3,-1
1499895318237127,-1,3,13,15,1,-3,-2,-6
1499895318237127,6,-2,-11,-29,-2,-5,-1,18
1499895318238127,-1,-1,-8,7,-4,-1,-2,13
1499895318238127,0,3,5,-14,1,1,0,-19
1499895318259166,2,-2,8,23,0,0,1,6
1499895318259166,-9,0,-9,11,-1,-2,-2,-14
1499895318261151,1,-2,-2,-11,-3,-1,0,2
1499895318261151,4,4,15,4,1,-3,-1,16
1499895318273133,-10,-10,-12,10,-1,1,-2,-40
1499895318273133,-1,0,12,-8,-1,-2,0,-2
1499895318282129,-1,2,-2,12,1,-1,-1,2
1499895318282129,3,-2,9,14,0,-2,-1,-7
1499895318297134,0,-3,-24,-53,-11,-2,-2,5
1499895318297134,-3,0,6,12,-2,-4,-3,-4
1499895318298131,-1,1,12,3,5,3,2,-1
1499895318298131,-4,1,-10,35,2,0,-2,-6
1499895318319172,-1,0,1,15,3,3,1,7
1499895318319172,-6,-7,-20,-50,-10,-11,-3,-6
1499895318321149,6,2,7,32,1,6,0,3
1499895318321149,-2,-2,-4,-34,0,0,0,8
1499895318333153,0,-1,2,42,2,2,1,-1
1499895318333153,1,1,1,15,1,-1,1,2
1499895318342133,-5,-4,-17,-26,0,-4,-1,-12
1499895318342133,1,3,3,-5,-1,0,1,7
1499895318357177,-7,-6,-10,-6,-8,-5,-4,-7
1499895318357177,5,4,12,-3,1,-1,1,11
1499895318358134,-7,-1,-7,27,3,-1,-1,-13
1499895318358134,4,-5,-7,15,2,0,-1,-3
1499895318379140,8,2,-9,12,4,-2,1,12
1499895318379140,6,0,8,14,0,0,-1,30
1499895318381138,-7,-2,3,-16,-9,-3,-3,-16
1499895318381138,-6,-4,-11,6,2,2,2,-8
1499895318402174,0,1,1,9,5,2,2,2
1499895318402174,-2,-3,-5,-54,-5,1,0,-11
1499895318403136,5,4,14,6,0,-4,-3,8
1499895318403136,0,-7,-39,-32,-9,-4,-3,-2
1499895318417157,-2,1,3,35,1,-1,-2,-4
1499895318417157,-4,-1,4,6,3,2,0,-19
1499895318418137,2,0,2,1,-1,-2,-1,5
1499895318418137,0,1,14,-4,-1,0,0,15
1499895318439159,-1,-2,-14,-23,-1,-9,-1,0
1499895318439159,-6,-1,4,8,-8,2,-1,-9
1499895318441138,-2,-6,-17,-5,2,0,-1,-1
1499895318441138,-1,-4,-1,21,0,-2,0,-4
1499895318462160,-6,2,-4,-28,-5,0,0,10
1499895318462160,1,0,5,-3,-3,-3,-2,-4
1499895318463139,1,5,8,-5,0,-1,1,2
1499895318463139,-3,-1,-7,-25,-3,0,-1,-6
1499895318477141,-3,-4,-5,33,-2,-1,-1,-4
1499895318477141,-2,-1,0,-5,2,-2,1,-10
1499895318478146,2,1,-2,-9,2,1,1,12
1499895318478146,-3,-2,1,-11,-10,-4,-4,-4
1499895318499142,0,1,-4,-19,3,4,1,-6
1499895318499142,3,-4,-8,11,-1,1,-1,11
1499895318501143,-1,-3,-18,19,-1,-4,-4,0
1499895318501143,0,3,1,-10,0,-2,-2,-2
1499895318522146,2,2,22,-9,0,1,-2,6
1499895318522146,-6,-3,-5,22,-2,-2,-2,-12
1499895318523165,0,0,3,23,3,3,-1,0
1499895318523165,-1,3,2,-83,-11,-2,-2,-4
1499895318536165,-2,-1,-3,6,2,-1,0,4
1499895318536165,0,2,4,6,-2,-9,-2,2
1499895318544153,-1,-6,-5,-11,-2,6,2,5
1499895318544153,0,5,-3,35,8,4,2,-10
1499895318559185,-3,-6,10,2,-2,-1,-2,-17
1499895318559185,-5,1,0,-2,-1,-1,-3,-17
1499895318561159,1,2,1,-21,-5,-5,-2,3
1499895318561159,-1,-1,4,29,-2,-2,1,2
1499895318582150,1,-1,2,-31,-1,1,0,-2
1499895318582150,0,1,11,15,2,1,1,3
1499895318583151,-2,-3,-3,-5,-3,-2,-1,2
1499895318583151,-1,1,10,13,4,0,-1,-8
1499895318596164,-1,2,2,-1,0,-2,-3,9
1499895318596164,-1,-2,-7,-16,-6,1,-2,1
1499895318603188,0,-2,-5,3,0,-1,1,-4
1499895318603188,-1,-4,7,10,2,-4,-2,1
1499895318619197,-1,2,1,-3,3,0,0,-2
1499895318619197,1,-3,-14,20,2,0,1,8
1499895318621149,-4,-1,6,-37,-3,-3,-4,-35
1499895318621149,-2,-1,2,29,0,-1,-1,-1
1499895318642149,-1,0,0,-24,-4,-1,0,2
1499895318642149,-4,-2,-10,-61,-5,1,0,4
1499895318644158,2,-5,-17,9,0,-2,-1,-4
1499895318644158,-6,1,4,27,2,0,0,-28
1499895318656205,-1,-6,-6,-26,-9,-3,-2,1
1499895318656205,3,4,10,17,4,-2,-1,2
1499895318663189,-3,-3,0,-6,-1,0,-2,2
1499895318663189,-1,-2,-3,2,-1,-1,-1,0
1499895318679172,0,2,2,-5,0,0,-1,1
1499895318679172,-2,-3,-3,27,1,1,1,3
1499895318681155,3,2,12,60,4,-6,-1,3
1499895318681155,-1,-1,-16,-91,-3,4,0,1
1499895318702196,2,1,-2,7,-1,-2,0,0
1499895318702196,1,1,2,-9,-2,-3,-2,2
1499895318703187,0,-2,-3,1,0,0,0,2
1499895318703187,-1,-1,-4,-14,-1,-3,-1,7
1499895318716154,0,2,8,35,-6,-3,-1,10
1499895318716154,1,-3,-10,3,0,0,0,-1
1499895318723175,0,2,9,-10,-5,-2,-1,3
1499895318723175,0,-5,-13,4,0,-2,-1,2
1499895318739156,0,-2,8,26,5,1,-2,0
1499895318739156,0,0,-6,-42,-1,2,0,-3
1499895318741156,-1,1,15,6,-9,-5,-3,13
1499895318741156,-3,-5,-8,-11,0,0,1,10
1499895318762162,-1,-1,7,11,2,0,-4,-6
1499895318762162,-7,-3,-18,8,1,-1,-2,-13
1499895318763163,5,1,0,-45,-1,-1,0,26
1499895318763163,-4,3,32,58,-4,-1,-3,-12
1499895318776228,8,-3,-11,-27,-1,-1,-1,-1
1499895318776228,-5,0,2,15,-3,-4,-2,-9
1499895318783178,1,0,-8,-27,-2,4,0,-7
1499895318783178,-2,1,5,19,3,-1,-1,4
1499895318799161,1,-1,4,-37,-6,-3,0,1
1499895318799161,0,-4,-14,2,-3,1,0,2
1499895318801160,-2,0,-3,7,-3,-3,-2,-1
1499895318801160,2,-5,-10,2,3,4,2,4
1499895318822181,-6,-2,-3,15,1,1,1,-3
1499895318822181,3,3,14,11,1,1,0,-3
1499895318823183,-7,-3,-10,-54,-6,-3,-1,9
1499895318823183,-1,-3,-12,18,-1,-7,-4,-4
1499895318836161,-2,4,20,-5,1,1,0,-2
1499895318836161,-3,-5,-6,82,4,-2,-3,-3
1499895318843162,-1,1,-3,-30,4,2,0,-2
1499895318843162,-2,-5,-31,-29,-4,-1,-1,-2
1499895318859166,-4,1,-8,9,-3,-2,-3,-9
1499895318859166,4,2,12,-35,-3,-3,-2,2
1499895318861171,-2,1,1,15,2,2,-1,-6
1499895318861171,-3,-2,0,3,-1,-3,-3,-20
1499895318882167,-1,1,4,30,6,-1,-1,-5
1499895318882167,1,0,1,-58,-13,-1,0,3
1499895318883164,4,0,-1,4,1,-4,-1,-4
1499895318883164,-1,-3,5,8,-3,3,1,8
1499895318895173,-4,-2,-3,30,3,0,1,1
1499895318895173,-2,-2,9,12,3,-2,0,-8
1499895318904195,-1,1,9,10,-1,1,1,0
1499895318904195,-1,-4,-14,-14,-2,-2,-1,2
1499895318919166,3,-2,-4,-16,-3,-10,-3,7
1499895318919166,0,-2,-9,-5,2,7,1,6
1499895318921167,-10,2,10,15,0,-1,0,-13
1499895318921167,5,-2,2,5,-3,-3,-3,2
1499895318942173,-3,-4,-9,10,-1,1,0,-2
1499895318942173,-2,1,-7,-37,1,-1,-3,1
1499895318943168,0,-5,0,15,-7,-2,-2,-2
1499895318943168,-1,0,9,16,-2,-1,-1,1
1499895318955188,0,0,3,6,-2,-2,-1,-2
1499895318955188,2,-1,-10,-20,-1,-1,0,8
1499895318964188,-2,-2,5,4,2,2,0,-25
1499895318964188,0,2,5,-24,-4,-2,-4,5
1499895318979187,-1,2,-14,2,-3,0,0,-5
1499895318979187,0,-7,-21,11,2,-2,-2,1
1499895318981174,2,1,-5,6,-2,-2,-2,9
1499895318981174,0,2,7,1,-1,0,0,-1
1499895319002214,-1,2,6,-3,2,0,-2,-2
1499895319002214,-3,-1,3,14,1,0,-1,-4
1499895319003187,-1,-4,-10,-19,-7,-5,-4,4
1499895319003187,-1,-1,7,7,0,-1,-1,-8
1499895319016171,0,0,-3,-14,-6,1,2,0
1499895319016171,-2,-2,1,7,0,-1,0,-1
1499895319024173,-1,-3,-12,1,2,-2,-4,-5
1499895319024173,0,0,4,4,1,3,-1,4
1499895319039174,0,-3,-4,3,-2,-1,-2,-3
1499895319039174,-1,-3,-3,-7,-5,-2,-1,-4
1499895319041174,-4,-1,2,7,1,-1,-2,4
1499895319041174,-1,0,-4,7,3,-4,-2,-1
1499895319062176,-3,-3,-7,-35,-1,-2,0,0
1499895319062176,-1,2,16,19,-3,-5,-3,-1
1499895319063180,2,-1,-12,1,2,2,1,-1
1499895319063180,-1,1,7,-3,-3,-2,-1,2
1499895319075178,-1,1,-4,11,3,2,0,-1
1499895319075178,-4,-3,-10,-13,-5,-4,-3,-8
1499895319084175,5,0,2,2,-2,0,-1,2
1499895319084175,-12,-4,-13,-13,-4,-6,-2,-23
1499895319099176,-1,-1,14,37,1,4,-3,-2
1499895319099176,-1,-4,-8,-8,-2,-1,0,-1
1499895319101176,-1,1,3,1,2,0,1,-1
1499895319101176,0,-3,-14,33,-2,-2,-2,1
1499895319122198,1,-1,-3,-105,-6,-1,-1,3
1499895319122198,-3,2,-1,-8,1,-1,-2,-4
1499895319123199,-2,-2,10,41,0,-4,-1,-4
1499895319123199,3,2,0,-15,1,1,0,5
1499895319135217,-3,-3,-5,10,1,0,-1,-3
1499895319135217,3,1,5,-7,-2,0,0,6
1499895319145183,-3,-1,-3,-17,-3,-3,0,-11
1499895319145183,0,2,2,10,0,0,1,5
1499895319159181,-2,-5,-5,32,-1,-2,-3,0
1499895319159181,-4,-3,1,-57,-4,-7,-2,-8
1499895319161191,0,0,11,32,-2,2,-1,11
1499895319161191,-2,-2,-5,-18,1,2,-1,-3
1499895319182184,-4,-1,-5,2,-1,-2,0,-2
1499895319182184,2,1,-3,17,3,2,-2,-20
1499895319183181,-5,1,1,12,0,-2,-2,2
1499895319183181,2,-3,10,-41,-9,-3,-2,-3
1499895319195187,-2,-6,-36,4,1,1,1,7
1499895319195187,-6,-1,-14,21,0,-1,-1,-10
1499895319204197,1,-5,2,7,2,-1,-3,3
1499895319204197,2,2,8,-27,-3,0,0,8
1499895319219222,-3,2,-2,-9,-2,-2,-1,-4
1499895319219222,1,-1,7,26,-5,-5,-2,2
1499895319225185,-5,-1,-8,-1,3,2,2,-14
1499895319225185,6,-2,-4,-9,0,1,-1,24
