timestamp,emg1,emg2,emg3,emg4,emg5,emg6,emg7,emg8
1499894013048699,27,3,-14,58,-1,2,-5,2
1499894013048699,-36,-4,-9,-77,-8,-5,-6,-14
1499894013050698,-31,-12,-21,20,-6,-6,-42,0
1499894013050698,41,17,-1,-10,10,10,41,20
1499894013070699,4,-10,-10,34,-2,-8,-27,-14
1499894013070699,14,4,-16,-67,-3,2,46,38
1499894013072701,-73,0,33,113,8,2,-15,-104
1499894013072701,28,-9,-7,-32,-5,-5,-18,31
1499894013085700,-59,13,31,5,9,4,12,-17
1499894013085700,15,1,-6,71,-4,-1,-5,1
1499894013087701,28,0,-21,-127,-7,-7,3,18
1499894013087701,-32,4,45,127,10,0,-6,26
1499894013107713,36,2,-35,-126,-4,0,-2,-34
1499894013107713,-33,-14,3,21,1,-3,-23,-58
1499894013114702,-41,8,12,41,7,6,15,38
1499894013114702,7,-15,-50,-89,-11,-1,-5,-13
1499894013130705,25,5,60,91,5,-3,-18,27
1499894013130705,22,18,-11,-106,-3,3,18,79
1499894013132704,76,-21,-22,-25,-19,-14,-54,-28
1499894013132704,-17,5,36,80,12,1,56,7
1499894013144704,-22,8,13,-12,3,5,-11,4
1499894013144704,-25,-4,31,-26,-6,-4,-8,-18
1499894013151705,18,-3,-18,26,6,2,-3,40
1499894013151705,8,-1,-16,-21,-9,-2,-32,-34
1499894013167704,24,-5,13,-15,5,-1,20,81
1499894013167704,0,5,31,79,12,6,-12,-74
1499894013169705,-12,7,-12,-108,-9,0,30,74
1499894013169705,20,-6,-20,-2,-7,-5,3,54
1499894013190711,-12,-25,-63,0,-10,-5,-4,15
1499894013190711,33,-7,8,-30,-6,-10,-22,-26
1499894013196707,-85,1,19,92,2,0,16,-53
1499894013196707,13,5,-2,-29,7,4,-16,-26
1499894013204708,-25,2,16,33,-1,-3,6,-36
1499894013204708,35,-2,-3,28,6,3,4,84
1499894013213707,15,12,29,-86,2,2,4,-4
1499894013213707,-36,-16,-28,-61,-11,-10,4,-93
1499894013228709,47,9,-29,56,4,0,-32,-11
1499894013228709,-15,7,12,-64,-11,-3,25,59
1499894013229709,-34,-41,21,127,7,-4,7,-93
1499894013229709,-40,-7,-9,-125,-18,-2,-11,24
1499894013251710,7,3,1,44,-2,0,-3,9
1499894013251710,-13,9,12,36,14,6,-5,-30
1499894013258710,45,-10,-30,-21,-9,-5,-31,29
1499894013258710,29,18,17,97,13,5,20,13
1499894013264711,-26,-10,4,-58,-14,-4,3,-30
1499894013264711,24,-7,-17,-51,-20,-10,-15,-30
1499894013271712,-36,8,-3,-112,-4,0,14,-78
1499894013271712,19,-10,14,127,-7,-4,-4,-4
1499894013288712,-3,6,5,-4,5,1,9,-4
1499894013288712,-26,0,-10,19,13,7,-2,-31
1499894013289712,49,-8,-7,44,-4,-6,-12,22
1499894013289712,-14,4,2,-33,-2,-1,3,48
1499894013310714,1,-7,-18,-43,-3,-2,-13,-14
1499894013310714,29,-4,-35,26,-3,-1,5,-21
1499894013312713,-51,0,-3,-82,-5,0,15,39
1499894013312713,-14,9,26,-31,2,1,1,33
1499894013324715,-22,-5,-8,5,6,1,-14,-88
1499894013324715,-5,-7,-5,26,0,-2,-1,-7
1499894013331721,41,17,3,-2,0,2,12,48
1499894013331721,-9,-7,7,59,-1,-1,-13,-49
1499894013347716,-12,0,30,57,1,0,8,18
1499894013347716,-27,-5,-36,-85,-21,-3,10,5
1499894013349715,41,15,-1,94,7,2,-4,38
1499894013349715,-24,-8,5,20,0,-2,-13,-21
1499894013370715,-18,2,-1,-11,5,3,3,50
1499894013370715,-6,17,19,91,5,2,8,-22
1499894013372717,4,-13,19,29,-8,-5,-10,12
1499894013372717,18,-7,-47,-58,3,0,-1,57
1499894013384718,-2,2,-1,21,-4,-5,-4,-40
1499894013384718,-10,2,12,-55,1,3,2,10
1499894013391717,-23,1,19,0,-1,-2,-7,17
1499894013391717,18,-8,-53,-46,-3,1,5,-25
1499894013408719,10,3,20,-4,0,-1,5,68
1499894013408719,9,-6,7,-42,2,-1,-7,18
1499894013409719,17,8,10,22,9,4,7,-1
1499894013409719,-22,-2,16,103,6,-2,-3,-64
1499894013430734,25,0,-2,-128,-12,-1,-2,28
1499894013430734,-20,-21,-24,-2,-12,-8,-5,-4
1499894013432721,1,1,-37,-36,-10,-2,-3,-32
1499894013432721,-8,3,53,-36,7,2,0,-8
1499894013444723,20,3,-20,28,-2,-4,-6,1
1499894013444723,-21,-8,19,52,4,5,10,33
1499894013451720,13,-6,-11,10,8,-2,-13,-49
1499894013451720,15,11,-7,23,2,0,-3,50
1499894013467722,0,-5,-9,8,-3,-1,5,-31
1499894013467722,-4,0,-1,-54,-5,-5,-1,-2
1499894013469722,-16,7,-11,-53,3,-2,-2,-41
1499894013469722,-25,-8,1,-20,-3,0,1,-72
1499894013489725,27,-2,3,-38,1,5,9,95
1499894013489725,-9,22,46,96,10,1,-1,6
1499894013498724,5,-12,1,-15,0,-1,1,34
1499894013498724,-7,-13,-52,-62,-14,-10,-9,-15
1499894013504724,4,-5,11,-14,-10,-4,-1,-48
1499894013504724,-16,0,11,58,13,3,0,-34
1499894013514727,8,10,17,-28,-1,3,-3,11
1499894013514727,-13,-3,-2,18,-6,-1,5,38
1499894013527725,-5,-11,-8,34,-4,-3,-3,-52
1499894013527725,-13,-7,-9,-57,0,-6,1,36
1499894013529727,5,-1,12,8,6,-2,-1,-6
1499894013529727,-5,-10,-31,17,-11,-2,-3,42
1499894013550726,17,6,21,18,6,0,-7,-16
1499894013550726,-6,0,-12,15,8,4,2,18
1499894013556742,-2,10,8,-15,-8,-2,-1,-4
1499894013556742,1,10,7,85,22,10,3,9
1499894013564728,-20,-18,-23,-108,-14,-9,-9,-11
1499894013564728,15,1,10,127,5,1,-7,1
1499894013573729,-34,-6,-11,45,2,0,2,14
1499894013573729,32,10,3,55,8,3,-5,-19
1499894013588729,-36,0,20,-2,-6,-1,2,-15
1499894013588729,6,-7,-19,-36,2,2,0,21
1499894013589729,18,0,-10,-38,-10,-6,-2,27
1499894013589729,7,10,30,10,-4,-5,-4,-2
1499894013610732,-2,0,-6,0,8,2,-1,25
1499894013610732,2,-9,-29,-22,-6,-2,1,43
1499894013613734,4,-2,31,37,-3,0,0,2
1499894013613734,-15,0,-10,8,16,8,3,6
1499894013624731,-37,-1,12,-105,-25,-8,-3,-5
1499894013624731,44,13,-15,45,-5,-5,-7,-37
1499894013633733,9,-11,21,19,-2,-1,-2,-29
1499894013633733,-4,7,-5,-30,0,0,5,22
1499894013647734,-22,0,22,62,6,0,1,-76
1499894013647734,2,6,23,25,9,6,8,-36
1499894013649734,22,-14,-61,4,-6,-4,-4,97
1499894013649734,-11,7,26,-31,-6,-2,12,-15
1499894013670733,60,8,8,-7,8,4,1,53
1499894013670733,-29,-6,-19,1,-6,-3,-5,-65
1499894013672735,-10,-4,18,7,5,1,1,-43
1499894013672735,10,-8,-15,-47,-5,-1,-1,58
1499894013684735,29,6,-18,89,1,3,5,46
1499894013684735,-34,-15,1,-72,-5,-7,-1,-48
1499894013693735,-7,-3,-5,75,2,1,3,2
1499894013693735,6,-4,32,-118,-11,-6,-10,-54
1499894013708736,-1,11,-28,32,7,-1,5,-7
1499894013708736,4,-9,13,-8,-5,1,-2,52
1499894013709736,4,3,-14,-8,-2,1,0,59
1499894013709736,-2,-2,-14,12,-3,-2,3,-36
1499894013730737,-13,-5,10,-3,-12,-7,-3,7
1499894013730737,19,3,4,54,3,-3,-5,-22
1499894013732738,-19,1,7,-71,-2,-5,-11,-52
1499894013732738,10,0,-9,51,12,7,10,11
1499894013744739,-15,2,-3,-38,2,0,-9,-78
1499894013744739,-19,-7,-44,-1,-11,-2,-2,4
1499894013753739,10,2,20,18,6,3,4,23
1499894013753739,-9,-8,-30,0,-12,-9,-14,46
1499894013767740,-19,-3,-26,15,0,-1,-4,-45
1499894013767740,12,-6,2,-10,1,-1,-6,0
1499894013769740,7,3,-7,-7,-4,1,3,-19
1499894013769740,-17,-8,3,-2,-4,1,2,-13
1499894013790741,-1,2,6,18,-2,-1,-14,-34
1499894013790741,-19,-3,-13,-100,-5,-1,-2,-2
1499894013792741,36,-4,-9,21,-3,-4,4,98
1499894013792741,6,6,28,38,4,1,3,6
1499894013804741,14,-5,-10,-46,-10,1,11,59
1499894013804741,-19,14,19,20,4,0,-5,-5
1499894013813742,-23,-21,-25,-24,-12,-11,-5,-4
1499894013813742,-10,4,5,10,-6,-2,-4,10
1499894013827743,-7,-4,-28,-50,9,5,0,-24
1499894013827743,24,-1,-6,-19,-8,-1,2,15
1499894013829743,-39,3,15,52,3,0,3,-46
1499894013829743,-2,5,-24,19,7,4,-2,8
1499894013850744,-8,0,18,-15,0,1,3,23
1499894013850744,13,-3,-19,-102,-9,1,8,126
1499894013852745,-14,2,47,53,3,-1,-8,-47
1499894013852745,-19,-1,-2,-28,-5,-2,1,-32
1499894013864751,19,0,3,45,0,-2,1,66
1499894013864751,11,-3,-17,-1,3,-4,-4,5
1499894013873745,15,4,-12,-25,0,5,1,15
1499894013873745,-10,1,-2,-4,4,1,1,-45
1499894013887747,-16,-7,35,21,-6,-4,-2,25
1499894013887747,5,-5,-7,17,5,2,-3,-81
1499894013889747,-12,10,18,-11,-11,-7,-3,0
1499894013889747,-2,-15,-20,59,-8,-5,-3,28
1499894013917748,-16,1,-17,-70,1,2,0,-25
1499894013917748,-4,1,44,32,4,0,-3,-58
1499894013926750,-17,6,-5,32,9,6,-5,-77
1499894013926750,11,-11,-39,-43,-13,-7,-4,38
1499894013927749,-19,-2,10,50,4,-1,-1,-26
1499894013927749,36,5,19,-9,-5,-3,-3,80
1499894013939758,-12,-8,-18,-39,3,3,7,44
1499894013939758,-1,6,35,41,4,0,-4,-7
1499894013947756,4,-1,7,13,-3,-4,6,-7
1499894013947756,39,2,-28,-33,-2,-1,-3,56
1499894013949750,7,0,-6,-1,-2,0,1,3
1499894013949750,15,2,22,24,5,-1,-9,2
1499894013970750,-14,2,2,-30,-6,-1,0,1
1499894013970750,-7,0,-1,10,4,3,2,-2
1499894013972751,4,-9,-25,9,-5,-5,-6,6
1499894013972751,-3,-1,12,-27,-1,1,0,-52
1499894013992753,10,-4,-13,-10,-2,-3,0,27
1499894013992753,-17,8,22,79,10,2,3,52
1499894013994752,8,-13,-14,14,-12,-7,-2,8
1499894013994752,8,3,10,-45,-7,-4,0,-14
1499894014007755,34,3,-28,-32,1,0,-3,65
1499894014007755,-15,-5,14,32,-4,-3,8,-33
1499894014009755,4,10,-2,29,15,9,3,9
1499894014009755,-5,-16,-6,7,3,-3,3,3
1499894014030757,-8,-3,-13,-47,-13,-4,0,34
1499894014030757,2,-1,12,50,-2,-4,-10,-61
1499894014032755,0,-4,-35,-114,-10,-3,0,-22
1499894014032755,17,15,33,-33,3,3,-1,59
1499894014052755,0,1,-20,26,9,3,1,-62
1499894014052755,-1,-9,-25,-4,-13,-6,0,7
1499894014054756,-13,11,49,34,9,1,-1,-9
1499894014054756,-14,-13,-55,-80,-14,-2,-1,-44
1499894014067757,15,0,9,71,9,2,3,71
1499894014067757,-15,-3,-12,-5,0,-2,-4,-33
1499894014069757,8,12,4,-23,3,2,4,15
1499894014069757,-3,3,50,46,-8,-4,-2,33
1499894014090759,1,-14,-20,-42,0,-1,0,-6
1499894014090759,-33,-4,4,-114,-13,-8,-3,-8
1499894014092758,16,-2,7,17,4,1,1,31
1499894014092758,-5,4,6,41,4,2,-8,-22
1499894014113760,4,-1,27,-19,-8,-6,-10,-52
1499894014113760,12,3,-36,45,11,3,2,-6
1499894014119760,-14,-1,5,-7,-2,-3,-1,-25
1499894014119760,10,2,3,-33,-2,3,5,12
1499894014127764,-24,11,45,103,5,-2,-4,-70
1499894014127764,21,-20,-28,-35,-8,-1,2,20
1499894014134760,-19,3,1,-11,-6,-6,-5,24
1499894014134760,20,2,-1,30,9,6,4,31
1499894014150762,10,11,8,-15,3,1,3,48
1499894014150762,1,-1,11,17,1,-4,2,-71
1499894014152761,-18,-8,-8,-24,3,1,-9,-56
1499894014152761,9,1,-6,-13,-1,-2,-1,-5
1499894014173763,-3,0,-4,58,-5,-2,0,-21
1499894014173763,-8,-4,-1,-44,2,-1,2,-47
1499894014174762,15,11,48,27,0,1,3,6
1499894014174762,-29,-16,-105,-71,-4,-5,-4,-13
1499894014187764,10,5,37,96,1,2,0,9
1499894014187764,0,-4,-2,-7,1,2,1,62
1499894014201764,2,4,56,-13,-7,-4,-5,-37
1499894014201764,-10,4,24,58,3,-1,2,-35
1499894014210766,-15,-15,-49,-33,1,-1,-1,-5
1499894014210766,20,8,15,22,2,1,1,46
1499894014212768,12,-9,-35,-54,-12,-3,-6,-78
1499894014212768,-14,5,30,32,4,-4,-8,-5
1499894014232768,46,-4,-16,-64,-4,-3,0,14
1499894014232768,-22,-5,-18,54,-1,-4,-12,-76
1499894014234766,18,7,-32,-55,2,6,8,6
1499894014234766,-4,-6,-29,-71,-17,-3,-4,-4
1499894014247766,-15,-9,9,43,-4,-1,-3,-34
1499894014247766,9,7,33,-2,5,3,-2,12
1499894014254767,3,-2,-41,-30,-3,-2,5,72
1499894014254767,13,0,7,105,8,2,7,-90
1499894014270767,-3,2,1,-98,-1,-3,-2,84
1499894014270767,0,-1,-6,88,-3,-3,-2,15
1499894014272771,-12,-3,5,-33,-3,1,4,36
1499894014272771,4,-2,18,-19,2,-4,-10,-65
1499894014293771,-7,11,5,56,8,5,12,2
1499894014293771,0,-9,17,-57,-10,-7,-9,-14
1499894014294771,-6,-12,-43,95,-7,-9,-4,59
1499894014294771,23,12,73,-5,12,6,5,67
1499894014307771,-20,-7,-86,-25,-1,-2,-4,-43
1499894014307771,-2,-9,-27,-41,-14,-5,-2,52
1499894014314777,-5,5,20,53,12,6,5,-18
1499894014314777,-12,-11,-25,8,-1,-2,0,4
1499894014330772,-23,12,78,0,1,0,-6,-58
1499894014330772,8,-3,-7,46,-4,-3,4,85
1499894014332772,-9,-3,-11,2,-4,-4,-9,-46
1499894014332772,-16,3,-2,-31,0,0,2,-86
1499894014352772,23,1,10,33,2,0,-6,77
1499894014352772,-1,4,-6,-60,1,6,13,12
1499894014354774,-14,0,16,40,5,3,-4,-40
1499894014354774,23,-9,-30,-24,-9,-8,-5,66
1499894014367774,-37,-10,-6,-25,-7,-4,3,20
1499894014367774,-1,14,27,15,11,4,1,-28
1499894014374774,13,-12,-32,8,-1,-1,-1,68
1499894014374774,2,13,16,-29,-1,-2,0,45
1499894014390778,10,-18,-29,-39,-7,-3,-2,49
1499894014390778,-15,1,-33,38,7,1,-3,-66
1499894014392776,6,5,37,-37,-4,-3,3,-13
1499894014392776,-19,-5,-34,43,1,1,-4,22
1499894014412782,7,8,55,17,1,-5,-6,-35
1499894014412782,-2,13,5,-79,1,4,4,29
1499894014414779,-1,-15,-25,-8,-13,-10,-8,-11
1499894014414779,-2,-8,-12,85,5,4,5,22
1499894014427782,-22,-6,-20,-85,-15,-4,-5,-63
1499894014427782,8,1,-1,8,8,-1,-3,-26
1499894014435778,-1,-9,-6,43,-5,-5,-6,2
1499894014435778,-5,0,18,-24,-1,0,3,-21
1499894014450778,4,5,-17,49,8,2,-2,-15
1499894014450778,13,-7,-46,-92,-14,-5,-3,40
1499894014452779,-23,-9,-12,3,-4,-3,-5,58
1499894014452779,0,4,21,13,-2,-2,-2,-16
1499894014480782,-1,-8,-19,0,2,-3,-3,-19
1499894014480782,1,1,29,111,-3,-2,4,-13
1499894014482781,10,0,-23,-87,-6,3,2,14
1499894014482781,-11,-4,14,15,-4,-3,-4,37
1499894014495785,25,-2,-4,28,5,4,2,61
1499894014495785,-29,-3,3,-4,0,-1,-12,-58
1499894014497782,6,5,13,12,5,1,3,-7
1499894014497782,-5,2,4,-19,0,-2,-2,-15
1499894014510784,-8,-6,13,-14,1,-1,0,-32
1499894014510784,6,-12,-39,-16,-8,-4,-2,28
1499894014512783,-2,4,24,42,0,-2,-2,-58
1499894014512783,2,0,-11,-47,2,-2,-3,0
1499894014533783,7,6,27,9,0,-1,3,13
1499894014533783,7,0,4,-27,6,4,1,24
1499894014534784,-4,3,-4,22,2,-2,-2,-7
1499894014534784,5,-5,-5,21,-2,-1,1,35
1499894014546793,7,9,18,-4,0,2,0,-16
1499894014546793,7,8,10,-42,1,0,1,-8
1499894014556793,-1,-13,-31,48,-9,-5,-8,-20
1499894014556793,-13,-9,-13,-53,-10,-4,8,12
1499894014570787,0,8,-2,20,5,3,2,16
1499894014570787,-8,0,14,-1,-3,-5,-5,18
1499894014572786,-4,5,16,32,15,13,3,-50
1499894014572786,17,1,-4,-16,-6,-5,-3,11
1499894014592787,-17,-12,-31,-13,-10,-7,-8,1
1499894014592787,14,3,20,-4,7,1,6,67
1499894014594789,-9,-2,-21,15,-3,-6,1,5
1499894014594789,-10,-12,-22,-9,-2,0,-2,-38
1499894014606799,5,7,33,64,3,1,1,13
1499894014606799,-4,-11,-12,-54,-10,-3,-5,5
1499894014615789,2,-3,-16,-57,-1,0,6,3
1499894014615789,10,4,39,29,2,0,5,2
1499894014630791,-4,4,0,-20,-1,-2,-5,-6
1499894014630791,-19,-13,-18,50,1,1,3,-24
1499894014632790,-5,-2,-18,-48,-6,-5,-11,-71
1499894014632790,-4,4,-39,19,6,3,-1,-1
1499894014652790,-12,-2,-2,-16,-6,-4,-1,-62
1499894014652790,-4,-3,6,23,-3,-2,-3,-15
1499894014654791,-5,4,26,-39,2,0,1,37
1499894014654791,-5,-7,-33,-2,-3,-2,-4,-5
1499894014666793,8,0,0,29,1,-2,-1,-40
1499894014666793,-1,-1,-2,90,6,1,-6,49
1499894014675792,-8,4,22,-65,-8,0,5,10
1499894014675792,31,1,2,5,2,1,-1,34
1499894014690795,-21,-9,-28,-17,-7,-6,-8,-11
1499894014690795,-13,2,8,22,-1,1,5,-23
1499894014696801,38,9,6,-9,10,4,7,51
1499894014696801,-28,-6,11,72,-8,-10,-12,-20
1499894014713803,20,7,29,-32,4,5,3,9
1499894014713803,3,-18,-40,-18,-5,-4,-4,-31
1499894014714794,-1,5,9,31,-6,0,-3,14
1499894014714794,2,6,-6,-68,-1,3,9,-4
1499894014726796,-8,-7,-3,18,-3,-1,-4,23
1499894014726796,2,3,30,6,-2,-6,-14,-92
1499894014735796,11,0,-12,16,-2,0,1,73
1499894014735796,-2,-10,-27,6,0,-1,1,1
1499894014750798,13,-2,17,36,1,1,3,28
1499894014750798,8,10,10,-85,2,-1,4,6
1499894014751801,6,-14,-12,71,-4,-2,-4,14
1499894014751801,-2,6,10,2,0,1,-3,-58
1499894014772801,-6,-6,-4,-44,-3,-1,4,11
1499894014772801,11,-5,-18,28,5,1,4,25
1499894014774798,-18,16,19,6,3,-3,-10,-62
1499894014774798,-6,-2,10,-53,0,1,2,41
1499894014786799,33,-2,-20,32,1,3,6,42
1499894014786799,-23,0,33,29,-5,-4,-7,-25
1499894014795799,-10,-2,-7,-47,-7,-2,-1,-52
1499894014795799,18,-6,10,7,-4,-4,-6,-7
1499894014810805,-2,-4,-32,-9,-6,-3,-2,-1
1499894014810805,1,5,37,34,3,4,5,0
1499894014812800,-1,-1,9,42,5,0,-7,-15
1499894014812800,-15,-2,3,-64,-10,-5,-6,-4
1499894014832800,-16,-5,-15,32,2,0,-1,-29
1499894014832800,11,1,-5,14,-3,1,4,56
1499894014834801,-8,3,-4,20,7,3,6,34
1499894014834801,22,5,28,3,-1,-1,-2,-12
1499894014855803,0,-1,-9,-27,-4,-3,-4,-11
1499894014855803,-12,-5,-15,-32,-8,-3,-2,56
1499894014856808,-3,-3,-18,-5,8,3,4,24
1499894014856808,-10,4,9,61,-1,-2,-2,34
1499894014870803,-1,-10,-3,-20,-9,-9,-3,45
1499894014870803,10,8,3,59,7,5,1,-37
1499894014871803,15,-3,5,-36,-3,-2,1,26
1499894014871803,-1,-4,-27,-42,-2,3,3,20
1499894014892804,-11,-2,-16,21,0,-2,-5,-41
1499894014892804,-1,2,5,-30,1,0,1,5
1499894014894805,9,2,27,18,1,3,2,13
1499894014894805,-3,-13,-33,25,-1,-5,-7,-41
1499894014915806,1,3,-9,-8,-3,4,18,16
1499894014915806,-10,-2,15,-14,-1,-1,-11,-9
1499894014916806,2,-3,-5,-27,-3,0,0,7
1499894014916806,14,11,29,48,9,4,4,39
1499894014930806,-14,-16,-27,-60,-24,-8,-7,-33
1499894014930806,-3,-1,-16,-15,0,-4,-2,-34
1499894014931808,13,5,30,16,3,0,-1,11
1499894014931808,-6,-1,-12,1,-3,-5,-5,8
1499894014952807,-5,0,-17,-33,10,3,-1,4
1499894014952807,-5,1,-28,21,-4,1,4,2
1499894014954808,-11,-5,11,13,-4,-5,-7,47
1499894014954808,-14,-2,9,10,3,-1,-1,-17
1499894014975810,-3,7,-12,-98,6,6,0,-2
1499894014975810,-4,-7,29,95,-7,-9,-3,-23
1499894014976809,-1,-6,-25,-72,-8,-1,3,3
1499894014976809,-7,3,6,-46,3,3,-2,-68
1499894014990810,-1,-2,2,28,6,-2,-3,-2
1499894014990810,-21,5,9,-20,-4,-3,-8,5
1499894014991810,0,-3,-4,48,4,-1,10,-44
1499894014991810,1,-4,-2,3,-2,-3,-1,20
1499894015012823,0,2,5,9,-4,-1,-7,-11
1499894015012823,1,1,-6,-28,1,1,0,-27
1499894015014812,-13,4,17,60,-9,-4,-3,-5
1499894015014812,-19,-13,-22,-2,-5,-1,-1,-7
1499894015035814,10,9,52,18,-1,-3,1,-52
1499894015035814,14,-5,-44,-3,3,3,2,53
1499894015036813,4,0,1,6,2,0,-2,16
1499894015036813,2,1,-1,-44,2,0,-5,-25
1499894015049814,-8,0,-3,1,3,3,-1,1
1499894015049814,1,-7,-16,-11,-7,-5,-3,3
1499894015056828,-1,-5,0,-24,-5,-3,-6,-39
1499894015056828,4,-3,-5,25,-2,-2,-1,29
1499894015072824,8,0,-7,-11,4,2,1,33
1499894015072824,-3,-2,4,-4,-1,-2,1,-13
1499894015074816,-3,3,-9,9,3,-1,0,5
1499894015074816,-8,2,-7,16,-1,3,1,-1
1499894015095817,-6,-11,-1,19,0,-1,-2,49
1499894015095817,25,5,13,-20,-3,5,6,27
1499894015096818,-22,-5,-12,1,-4,-5,-7,-96
1499894015096818,4,-2,-6,-19,-2,0,-4,-28
1499894015110821,-15,0,2,12,3,-1,-3,6
1499894015110821,-19,2,4,5,2,0,4,-23
1499894015116818,9,-5,10,-5,3,3,4,87
1499894015116818,10,0,-24,3,-5,-2,-1,4
1499894015132820,-7,-5,-1,1,1,-1,-2,-15
1499894015132820,-11,-2,19,56,3,-3,-6,-15
1499894015134819,12,-1,-27,-84,-6,1,-1,2
1499894015134819,10,4,18,-9,-5,-1,5,8
1499894015155819,-6,0,16,-6,-2,-1,-1,10
1499894015155819,16,2,-7,25,4,3,1,19
1499894015156823,-15,-4,-30,-22,5,-1,-1,-83
1499894015156823,4,4,23,11,0,-3,-5,42
1499894015169821,7,-4,3,43,-8,-5,0,-2
1499894015169821,13,5,19,-54,0,1,-1,61
1499894015176821,15,1,-16,28,6,2,2,49
1499894015176821,-5,-3,-17,29,1,-2,-2,3
1499894015192821,-3,9,12,-46,-5,0,1,-22
1499894015192821,-9,-4,3,32,-1,-4,-2,-1
1499894015194823,-8,-7,-12,16,-3,-1,-3,2
1499894015194823,-7,-5,2,39,6,-3,2,21
1499894015215825,13,5,-5,-48,0,0,-10,-47
1499894015215825,-20,-5,1,-20,-4,-2,-3,-22
1499894015216825,-8,-2,1,-3,-2,1,-1,-12
1499894015216825,-3,-5,-9,-18,1,2,1,21
1499894015229825,7,6,10,41,5,0,2,6
1499894015229825,-3,-1,7,-33,2,-1,-1,-15
1499894015243825,-16,-10,-31,-14,-13,-9,-7,-38
1499894015243825,18,0,13,-33,-2,0,0,4
1499894015252825,16,-3,-10,37,3,0,6,-33
1499894015252825,-9,1,-2,-8,-4,0,-3,-17
1499894015254826,16,-6,-39,1,5,-2,0,51
1499894015254826,-8,4,39,-7,-3,-2,-3,-17
1499894015275829,-1,5,15,-24,-3,-1,-1,26
1499894015275829,-3,-7,-38,-33,-6,-5,-2,-18
1499894015276831,5,2,32,61,7,3,2,-8
1499894015276831,-11,-10,-58,-25,-1,2,1,-13
1499894015289830,-13,-1,37,29,1,-2,-2,-9
1499894015289830,-3,-1,-1,-27,-6,1,1,-15
1499894015296829,8,2,8,-23,2,-3,-9,-66
1499894015296829,0,-6,-12,3,-9,-7,-5,3
1499894015312829,-11,-1,-49,-12,1,2,2,25
1499894015312829,5,-2,17,18,-3,0,-2,-5
1499894015314829,-5,6,4,-14,0,0,-1,18
1499894015314829,-3,6,32,59,7,4,2,-12
1499894015335837,-2,-4,7,-47,-5,-1,-2,-22
1499894015335837,-8,-20,-57,-32,-3,-4,-3,-3
1499894015336831,6,2,21,35,-4,-1,-1,13
1499894015336831,2,4,19,14,1,-2,1,-1
1499894015349831,-3,-5,-19,-1,-2,0,0,11
1499894015349831,-14,5,10,0,2,0,1,-8
1499894015356832,7,6,32,29,2,-4,-2,29
1499894015356832,6,-5,-39,-33,-8,-3,-3,12
1499894015372842,5,5,48,23,0,-1,-3,18
1499894015372842,18,7,11,27,2,-1,-1,8
1499894015374832,-27,-9,-8,-54,-8,1,1,-17
1499894015374832,-12,-2,13,6,1,-3,-3,5
1499894015395836,6,3,-18,-14,2,0,0,6
1499894015395836,9,5,6,44,5,3,0,-18
1499894015397834,-17,-4,5,10,1,-5,-4,-73
1499894015397834,1,-5,-18,-6,-2,1,0,-3
1499894015409835,-19,-2,10,-13,-4,-1,7,-23
1499894015409835,0,3,0,12,4,1,-2,-18
1499894015418835,16,6,12,-17,8,6,7,69
1499894015418835,-15,-4,-18,-16,-9,-4,-4,-69
1499894015432836,0,-1,-3,-34,-5,-3,-3,-42
1499894015432836,-17,-10,-61,24,-6,-4,2,13
1499894015434836,-9,-7,-14,5,0,0,-1,-3
1499894015434836,-4,4,20,5,-1,-3,-1,-17
1499894015455838,11,4,14,21,4,3,-1,6
1499894015455838,8,-2,-12,-37,-8,-4,-5,21
1499894015461837,-7,6,1,7,-4,-4,-4,-2
1499894015461837,-1,-7,14,46,7,2,2,28
1499894015468837,7,-6,-30,-69,-15,-5,-6,15
1499894015468837,-9,5,14,54,3,0,1,-15
1499894015477838,25,0,11,27,-5,3,3,15
1499894015477838,-12,4,20,-34,4,0,-2,17
1499894015493841,10,-4,-14,17,-1,-4,0,48
1499894015493841,2,-15,4,-31,2,0,3,0
1499894015494844,-5,8,18,10,1,-2,-1,-11
1499894015494844,-7,-3,-50,-61,-11,-2,9,-22
1499894015515842,0,-2,6,48,6,0,-6,10
1499894015515842,5,7,9,-38,4,2,1,20
1499894015516842,-9,-12,-15,4,-7,-7,-6,-12
1499894015516842,5,0,18,-16,3,3,-3,11
1499894015528842,-11,-2,2,55,2,-3,5,2
1499894015528842,-7,-1,-8,-9,-7,-6,-8,26
1499894015537844,-22,0,-2,-9,7,5,5,11
1499894015537844,-9,-3,0,21,1,1,-4,-46
1499894015552843,14,-1,-6,11,-4,-2,-3,6
1499894015552843,-3,4,29,-38,-5,-3,-3,-9
1499894015554843,0,-2,-21,-23,-3,-2,-3,-5
1499894015554843,-2,3,11,52,3,0,1,75
1499894015575845,-9,-10,-24,-28,-4,-2,-4,-20
1499894015575845,7,1,7,16,0,-4,0,15
1499894015576845,7,-3,-2,0,-7,-4,-5,23
1499894015576845,14,6,28,25,-2,3,3,-11
1499894015588847,-4,-10,-45,-1,1,-3,1,-2
1499894015588847,17,3,30,-14,-2,0,-5,-26
1499894015597847,5,2,2,2,-2,-5,-1,26
1499894015597847,-3,0,-5,-11,0,0,1,-30
1499894015612847,2,2,14,-7,1,0,0,55
1499894015612847,-1,-5,-19,60,2,2,-1,-33
1499894015614847,-18,-3,14,-77,-8,2,1,-3
1499894015614847,15,-2,-32,13,-3,-3,-6,-39
1499894015635848,-27,8,15,16,0,-2,6,-12
1499894015635848,3,-5,-22,7,6,3,4,52
1499894015636847,-8,0,-9,-45,-2,-1,-2,-36
1499894015636847,-10,7,8,3,3,2,-2,40
1499894015648848,23,-2,-18,0,-5,0,-2,17
1499894015648848,1,6,18,20,4,-1,-1,-20
1499894015658850,12,0,19,21,0,2,-1,3
1499894015658850,-2,-1,-5,-58,-9,-6,4,4
1499894015672860,-9,0,22,59,9,-2,-11,-10
1499894015672860,-8,-1,-10,-58,-2,0,-1,-32
1499894015674851,7,-6,-2,-20,0,3,2,2
1499894015674851,-2,-1,-6,10,0,-3,-3,-8
1499894015695851,-3,2,22,-5,2,2,3,-5
1499894015695851,5,1,0,3,-2,0,-1,10
1499894015696853,6,-1,-9,11,0,-1,1,38
1499894015696853,4,0,2,-13,-1,-6,-7,-84
1499894015709856,1,-7,-3,16,-10,-1,-1,1
1499894015709856,-10,-2,-7,17,-1,0,-1,8
1499894015717853,3,12,33,2,6,0,4,-14
1499894015717853,-6,-4,-3,4,-2,0,0,11
1499894015732853,0,-3,-45,19,4,0,-1,-10
1499894015732853,5,4,35,-23,3,3,-1,-22
1499894015734854,-13,-12,-33,-13,-5,-4,-2,29
1499894015734854,21,-1,-15,-46,-5,-3,-2,17
1499894015755855,-16,-13,-8,30,-4,-2,-3,-23
1499894015755855,12,-1,-10,33,-1,0,-2,46
1499894015756863,-2,3,25,3,8,0,2,-34
1499894015756863,-11,0,4,44,-1,1,0,9
1499894015768855,3,1,-11,-68,-4,-3,-5,-16
1499894015768855,7,-4,0,42,-8,-3,-2,39
1499894015777854,10,4,8,-37,-4,-2,-2,-31
1499894015777854,-14,0,15,-7,0,1,1,-27
1499894015792858,27,-3,-2,-28,-1,-2,-1,4
1499894015792858,-37,-11,-19,40,-1,-2,-1,-34
1499894015794858,2,5,-12,1,-3,-3,-4,-8
1499894015794858,5,-3,-12,0,0,-2,2,36
1499894015815859,-6,5,43,0,3,3,1,5
1499894015815859,1,1,-23,-41,1,-1,3,-10
1499894015816858,-2,-5,-1,35,1,0,1,0
1499894015816858,14,3,2,68,5,2,-1,63
1499894015837859,9,2,4,-87,-9,-4,-7,-8
1499894015837859,1,-8,-8,-49,-5,-3,3,-10
1499894015839859,1,0,7,52,-8,-5,-6,29
1499894015839859,-8,-3,16,-3,2,-4,-1,-33
1499894015852859,-18,7,12,-8,6,5,2,-12
1499894015852859,5,0,-3,-14,0,1,3,31
1499894015858864,23,1,-3,-5,-2,-1,2,18
1499894015858864,-18,-4,-12,9,5,2,0,-44
1499894015875866,-2,1,-16,-48,-14,-6,-1,22
1499894015875866,-3,-2,4,-1,-2,-3,-8,-18
1499894015876863,-13,0,4,40,0,1,7,-47
1499894015876863,8,-6,5,1,-1,-1,-4,7
1499894015897862,-8,0,-17,16,5,0,0,-10
1499894015897862,-1,1,19,-21,-6,0,-2,-7
1499894015899863,-13,1,-13,-8,1,0,-7,-14
1499894015899863,11,4,19,29,0,-2,-2,7
1499894015912868,-15,-2,-4,-46,-4,-1,0,16
1499894015912868,9,3,5,-24,-2,-3,-5,2
1499894015914865,-5,-5,-2,26,-5,-2,-3,-8
1499894015914865,16,3,17,-66,-1,-1,1,35
1499894015935866,-15,-9,-37,117,2,-1,-4,-8
1499894015935866,-11,1,24,-20,-4,-3,-2,-20
1499894015936866,-16,-6,-20,-8,2,-2,-1,31
1499894015936866,5,-2,-35,-21,-3,0,-1,-2
1499894015965869,8,9,62,14,3,0,2,-1
1499894015965869,-2,-1,-38,14,3,3,-3,0
1499894015966868,1,14,26,12,14,6,2,-7
1499894015966868,-36,-28,-55,-40,-28,-14,-10,-3
1499894015972880,-5,2,29,-1,4,-3,-4,-20
1499894015972880,4,-2,2,30,-2,-1,1,11
1499894015974868,1,-5,-10,-14,2,-1,-3,-6
1499894015974868,-10,9,18,29,8,4,0,-13
1499894015995877,0,-5,-26,-18,-6,-5,-5,-46
1499894015995877,-9,-1,10,-6,-1,-2,-2,-27
1499894015997869,-7,-4,-14,-3,-3,0,0,18
1499894015997869,14,3,13,-1,2,-2,1,15
1499894016017870,3,-4,-17,-12,-7,0,0,7
1499894016017870,-8,2,8,23,5,0,2,9
1499894016019870,25,0,-10,-27,1,0,-3,-16
1499894016019870,-14,-9,5,1,-8,-2,0,3
1499894016032871,-3,-3,-10,5,-2,-3,0,38
1499894016032871,0,1,15,48,4,0,0,-29
1499894016038871,18,-5,-28,-38,-8,-3,1,9
1499894016038871,-9,-1,-18,3,4,0,-3,-18
1499894016055872,4,-2,-36,-28,0,-1,0,-29
1499894016055872,-11,-10,-15,17,-8,-6,-1,9
1499894016056872,-21,9,46,50,1,1,-4,-65
1499894016056872,7,0,2,-34,0,2,2,52
1499894016077874,-14,0,9,75,5,0,-2,-63
1499894016077874,4,-7,-14,-50,-1,-1,-2,9
1499894016079873,-3,0,-5,-15,-3,-1,-1,6
1499894016079873,-9,1,2,47,6,4,-1,-12
1499894016092874,21,1,31,-3,3,0,0,63
1499894016092874,13,2,-30,-52,-4,-4,-1,51
1499894016098874,-8,-11,-45,-50,-14,-3,-4,9
1499894016098874,-5,0,21,24,2,0,2,5
1499894016115877,17,0,4,14,2,0,2,44
1499894016115877,4,5,8,-7,7,1,-3,-40
1499894016116875,7,-1,11,73,-2,-3,1,46
1499894016116875,12,2,-2,-11,-1,-1,0,23
1499894016137877,3,1,3,-23,-2,1,3,9
1499894016137877,8,-2,13,9,-4,0,-4,7
1499894016139877,2,3,13,50,5,1,7,-4
1499894016139877,8,-5,-9,-52,-3,-2,-1,15
1499894016152877,-6,-2,-4,-58,-11,-4,-3,-11
1499894016152877,-2,6,-4,16,0,0,1,29
1499894016166879,-7,-12,-22,-7,-2,-2,-6,-51
1499894016166879,4,-4,9,43,2,-4,-4,-30
1499894016175878,10,3,7,20,3,4,2,2
1499894016175878,-13,4,19,-12,-2,-3,4,-21
1499894016176879,6,-5,-35,-4,5,-1,-9,61
1499894016176879,-12,-7,17,-31,-6,-3,-1,-11
1499894016197880,-10,-2,-4,58,-1,-5,-4,-3
1499894016197880,-22,-3,-2,-47,0,-1,-1,-33
1499894016199880,7,-2,14,-57,-2,-1,1,3
1499894016199880,-3,10,6,34,8,4,4,-27
1499894016212882,-5,-7,-52,-77,-8,-3,-6,19
1499894016212882,12,-3,27,57,-1,0,1,15
1499894016218881,-17,-2,-9,9,0,-4,-1,8
1499894016218881,5,3,-9,-31,-7,-1,-2,14
1499894016235884,16,-2,24,47,3,-3,-5,-41
1499894016235884,7,4,-17,-82,-5,-3,-3,-25
1499894016236883,-5,1,15,27,-2,0,-3,20
1499894016236883,0,-1,9,10,2,-2,0,2
1499894016257885,-3,-1,-9,-21,4,5,3,-10
1499894016257885,7,1,24,13,6,-1,-1,12
1499894016259885,-16,-15,-20,44,-6,-3,-5,-57
1499894016259885,2,6,-11,-98,-9,-1,-2,0
1499894016272890,-16,5,14,23,-3,-2,-1,2
1499894016272890,5,-2,-7,12,2,1,-1,6
1499894016278884,3,6,17,8,0,-1,4,6
1499894016278884,-4,0,4,39,2,-2,-4,3
1499894016295895,-5,-11,-18,-13,0,0,-1,3
1499894016295895,-17,3,-3,19,-1,0,0,0
1499894016296887,10,8,28,-7,3,1,1,-10
1499894016296887,-1,-11,-35,-6,-3,-2,-2,2
1499894016317886,-8,1,12,49,0,-1,-6,-5
1499894016317886,0,1,13,13,-2,0,2,20
1499894016319888,6,0,3,-39,3,1,4,59
1499894016319888,-9,3,-4,7,-5,-4,-1,-38
1499894016331889,15,7,14,17,3,2,5,43
1499894016331889,-23,-11,-21,11,0,0,-3,-13
1499894016340888,3,1,-5,-16,0,0,-2,2
1499894016340888,-1,1,33,55,0,1,-1,0
1499894016355890,0,3,-32,-30,-3,-1,7,12
1499894016355890,-20,-7,-10,1,1,2,-1,-12
1499894016357890,-8,-2,-21,-28,-5,-5,0,10
1499894016357890,-7,0,-1,41,0,0,-5,-35
1499894016377891,3,-4,9,8,0,-2,0,-4
1499894016377891,11,-1,-14,-11,-5,-3,-4,-4
1499894016379891,1,1,1,-78,-4,-1,-2,-4
1499894016379891,-6,2,7,-20,-2,-1,4,14
1499894016391892,0,-1,-13,0,0,0,-4,27
1499894016391892,3,1,-5,-22,-1,0,1,9
1499894016400891,3,-1,13,88,3,-3,-3,-24
1499894016400891,-1,-7,-29,-14,-2,-2,-3,-35
1499894016415893,-8,-1,6,-65,-1,2,1,-26
1499894016415893,3,7,6,22,0,-4,-3,8
1499894016417893,-5,-3,3,0,-5,0,-2,-2
1499894016417893,4,-3,-6,-13,1,-1,1,16
1499894016437899,-9,-4,1,8,2,1,1,-21
1499894016437899,9,1,-11,-16,-4,-3,0,13
1499894016439895,18,5,8,3,2,1,8,15
1499894016439895,6,0,-3,26,-1,0,-8,15
1499894016451895,-8,-3,18,22,3,-1,-3,-23
1499894016451895,3,-6,-29,-32,-8,-2,-3,-10
1499894016460897,-3,-6,1,-30,-3,-2,-3,-10
1499894016460897,-1,2,10,13,6,2,4,4
1499894016475896,2,2,3,-40,-10,-2,0,13
1499894016475896,-2,-5,-19,-16,-5,0,0,-13
1499894016476896,1,-14,-19,25,0,-2,-2,-22
1499894016476896,-21,3,10,31,2,2,-1,-32
1499894016497897,23,-3,2,-66,-6,-5,-4,35
1499894016497897,20,9,36,34,3,1,3,24
1499894016499899,-18,-5,-13,-6,-3,-4,-5,-53
1499894016499899,4,2,5,-37,-5,-2,1,19
1499894016511901,-21,-1,6,69,3,-3,-3,-50
1499894016511901,-4,0,28,1,2,4,1,-11
1499894016520900,3,3,-7,25,1,-2,-1,15
1499894016520900,18,-4,-23,-46,0,1,0,-1
1499894016535901,4,-1,-8,37,-2,-3,-2,-4
1499894016535901,-32,-1,4,-12,-3,-2,-1,-15
1499894016536900,-7,-8,-8,7,-6,-3,-4,-1
1499894016536900,11,1,7,0,-1,-3,0,13
1499894016558901,-9,0,2,1,1,-1,-1,-37
1499894016558901,9,2,1,-10,1,-2,-1,3
1499894016563909,6,5,-7,-30,1,3,9,15
1499894016563909,-3,-3,19,13,-1,-2,-12,22
1499894016571903,5,-1,-12,39,-8,-2,0,5
1499894016571903,-1,-11,-11,32,4,-2,-3,-3
1499894016580902,-12,2,-13,-88,-4,-1,-2,0
1499894016580902,10,-3,-19,15,-2,-1,3,12
1499894016595910,-7,8,18,-15,6,3,3,1
1499894016595910,9,-3,-20,19,-4,-3,-3,-2
1499894016596909,22,4,32,39,-4,-2,-1,39
1499894016596909,-34,-6,-17,-37,2,1,2,41
1499894016617907,19,-5,-10,-15,-6,-4,-1,-1
1499894016617907,-3,7,8,-44,3,4,4,5
1499894016619905,-2,-6,8,91,-1,-4,-4,14
1499894016619905,-1,0,4,-9,-3,0,1,-36
1499894016631908,-35,-9,-21,-23,-4,-2,-5,33
1499894016631908,18,1,9,-11,-1,-4,-4,-3
1499894016640906,-4,0,0,-21,-4,-1,-3,1
1499894016640906,3,-1,-8,2,0,1,1,-20
1499894016655907,-4,1,10,31,5,3,1,-4
1499894016655907,3,-8,-13,-7,-1,-2,0,-7
1499894016656906,-8,2,3,-1,-4,2,-2,-12
1499894016656906,1,2,17,20,1,2,2,-5
1499894016677908,3,-5,-23,-34,-3,-1,-2,-6
1499894016677908,-2,-1,-14,32,0,-1,-4,6
1499894016679908,-3,-1,15,14,5,0,1,-14
1499894016679908,4,7,6,-24,0,-1,-1,5
1499894016691909,-3,-15,-43,22,-5,-5,-1,-31
1499894016691909,0,3,23,-27,-4,-1,-1,5
1499894016700909,-19,-14,-15,28,1,0,-4,-27
1499894016700909,11,9,-14,-51,-2,-2,1,-2
1499894016715910,7,8,24,-3,5,4,1,11
1499894016715910,4,-8,-18,35,-2,-4,-1,17
1499894016721909,6,0,0,-6,-7,-4,-3,-3
1499894016721909,-9,-3,11,-26,3,3,2,-6
1499894016737912,3,-1,6,6,2,0,0,12
1499894016737912,-7,-4,-5,-7,-5,-1,-3,-9
1499894016739912,3,0,-23,9,5,-1,0,8
1499894016739912,-3,-3,-7,4,-4,-4,-1,-23
1499894016760913,4,2,8,0,-3,-3,-2,22
1499894016760913,31,-7,-3,35,0,-2,-2,39
1499894016762918,0,8,-15,-68,-5,0,2,61
1499894016762918,-7,-11,4,8,-6,-5,-1,-11
1499894016775915,-4,2,3,-39,2,1,1,-19
1499894016775915,-2,6,17,34,1,0,0,17
1499894016776915,5,2,2,-9,5,1,2,5
1499894016776915,13,5,14,43,7,3,-1,34
1499894016797918,-19,-11,-23,-55,-10,-4,-6,-20
1499894016797918,-8,-1,8,11,-2,-3,-3,-33
1499894016799915,-5,3,-1,-36,-1,-2,-5,-21
1499894016799915,-4,9,21,27,0,0,8,2
1499894016820915,-3,-2,2,12,5,2,-2,-23
1499894016820915,-15,-9,-26,-34,-8,-1,-1,-21
1499894016821917,2,5,40,20,0,-2,-3,-25
1499894016821917,-3,-6,-20,38,2,2,-1,13
1499894016835918,7,-4,-17,-26,-6,-5,-8,-9
1499894016835918,16,7,11,-18,-1,1,3,1
1499894016836917,-9,-3,-10,20,-2,-5,-3,2
1499894016836917,2,-5,-2,4,0,1,-3,-3
1499894016857919,3,1,18,-23,-6,-1,1,23
1499894016857919,-10,-2,9,39,1,-3,-1,-25
1499894016859920,-3,-1,-13,-26,4,2,0,-28
1499894016859920,8,4,12,11,-1,-1,0,15
1499894016880920,-11,-3,-9,29,-2,-1,0,80
1499894016880920,10,-9,-19,-60,-5,-3,-1,5
1499894016881919,6,-1,12,85,3,0,-1,3
1499894016881919,-1,-1,-10,-118,-13,-5,-4,-14
1499894016895923,1,0,-1,6,0,2,3,5
1499894016895923,-13,-2,-12,6,3,2,-2,-6
1499894016896922,-5,-3,6,38,2,-3,-2,-2
1499894016896922,3,-5,-7,-52,-6,-4,-2,6
1499894016917922,13,4,12,18,0,-1,-1,20
1499894016917922,1,0,-6,-1,2,-1,-1,44
1499894016919923,-3,-8,3,0,0,-1,-7,-49
1499894016919923,-9,1,-9,2,4,0,-2,-29
1499894016940925,0,-1,10,6,-6,-5,0,-13
1499894016940925,-20,-11,-38,-8,-7,-5,-3,-7
1499894016941923,-2,6,-7,-27,0,4,3,-31
1499894016941923,22,-5,-6,14,1,-1,-2,11
1499894016954923,-55,-4,11,64,4,0,-2,-36
1499894016954923,11,9,31,-29,3,3,1,6
1499894016961927,-12,-5,-5,-34,-8,-6,-1,18
1499894016961927,-9,-2,-5,58,0,-3,-3,-12
1499894016977929,45,-1,-7,-51,-2,2,1,15
1499894016977929,-7,0,-4,-38,0,1,-1,-42
1499894016979925,-5,4,1,-33,-2,0,3,42
1499894016979925,2,2,14,28,2,-1,-2,17
1499894017000927,-3,-5,-34,70,5,-2,-1,-1
1499894017000927,-7,3,11,-87,-9,-4,-2,-9
1499894017001928,11,-9,-9,16,-3,-3,-4,-11
1499894017001928,5,1,-9,20,1,0,0,5
1499894017014928,-15,5,-12,-2,3,-2,0,-19
1499894017014928,7,-9,1,17,5,4,2,2
1499894017021927,-1,-2,-15,10,0,-1,-2,0
1499894017021927,2,-1,9,9,0,-1,-1,-23
1499894017037931,5,-1,8,-9,-6,-6,0,-17
1499894017037931,-10,-2,14,-2,-1,0,-4,-13
1499894017039931,-41,-1,-12,-16,-1,-2,-4,48
1499894017039931,30,-1,-5,31,0,-1,-1,-7
1499894017060931,5,0,1,-35,3,1,0,10
1499894017060931,6,5,20,72,-3,-4,2,37
1499894017062933,38,-4,4,26,4,2,3,45
1499894017062933,-46,-2,-9,-22,0,-1,-5,-88
1499894017082932,27,7,30,-92,-3,1,1,3
1499894017082932,-12,-15,-45,77,-2,-3,-2,-5
1499894017084931,-1,7,37,-46,-4,-1,1,-11
1499894017084931,-3,5,-13,1,-3,-5,1,21
1499894017097933,8,-7,12,6,1,0,-1,36
1499894017097933,-1,12,23,31,6,2,2,-47
1499894017099933,2,-5,-46,-43,-3,0,1,-6
1499894017099933,-1,-7,24,46,-11,-5,-2,17
1499894017120932,-16,0,-1,21,3,0,0,-25
1499894017120932,7,5,11,-14,1,3,0,18
1499894017121934,1,-3,-11,21,3,-3,-2,-21
1499894017121934,-7,0,-10,-77,-10,0,-1,18
1499894017134936,-1,-5,5,38,3,-1,-3,-41
1499894017134936,-10,0,10,-2,1,-1,1,-4
1499894017141937,9,5,19,25,2,0,1,-9
1499894017141937,-1,-3,-21,-30,4,0,-1,7
1499894017157936,4,2,3,35,-6,-2,0,10
1499894017157936,-11,-5,1,-2,3,-1,-4,-35
1499894017159936,14,-4,-7,18,-3,-2,-2,41
1499894017159936,-9,-2,4,24,4,0,1,13
1499894017180937,33,6,6,-32,1,2,-1,-16
1499894017180937,-24,-11,-38,-3,-14,-7,-4,36
1499894017181937,-19,-4,1,20,-5,-2,-2,-15
1499894017181937,7,8,37,-1,3,1,0,-7
1499894017194940,1,-5,2,-5,-4,-3,-2,14
1499894017194940,4,-4,-21,19,3,0,1,0
1499894017201939,-5,0,2,-47,2,1,0,-23
1499894017201939,2,-3,-9,9,-9,-7,-2,12
1499894017217938,-9,7,26,44,7,4,1,-16
1499894017217938,5,-8,-14,-1,-4,0,-1,2
1499894017219939,-6,0,-17,-29,-1,0,0,-12
1499894017219939,-1,0,24,-35,-2,0,1,-11
1499894017240943,-27,-2,-30,3,0,-2,-2,3
1499894017240943,9,4,3,-21,3,-2,-3,-24
1499894017241941,16,-2,6,80,-1,1,1,5
1499894017241941,-7,-1,3,-53,-3,-1,-1,20
1499894017254941,-24,-7,-37,-19,-3,-4,-1,10
1499894017254941,7,3,26,1,2,1,1,-3
1499894017261945,-7,1,-5,-5,-2,-1,-1,-9
1499894017261945,6,2,20,7,-1,-1,0,-5
1499894017277942,-19,-7,-14,11,-6,-8,-4,7
1499894017277942,17,3,3,-1,5,0,2,19
1499894017279942,17,0,9,-22,-2,-1,-1,53
1499894017279942,2,-3,-28,23,3,1,-4,-36
1499894017300946,4,0,-15,8,-4,0,0,0
1499894017300946,-4,-5,11,-54,-12,-8,-5,22
1499894017301947,-3,-1,4,-24,0,-3,0,-20
1499894017301947,-8,-1,16,43,-2,1,-1,8
1499894017313946,9,-3,-10,-1,-1,-1,-1,-2
1499894017313946,-4,-1,-12,3,2,3,3,-11
1499894017322946,-4,1,-1,8,2,2,-2,-12
1499894017322946,-6,-1,5,4,-3,-5,-3,-1
1499894017337945,9,0,3,9,-1,1,1,-8
1499894017337945,-11,6,17,-19,0,-1,-3,-21
1499894017339955,-7,-1,-5,26,1,-1,-1,-18
1499894017339955,-5,-5,-5,-46,-4,-2,-1,1
1499894017360947,-5,-10,-61,3,-1,-2,-3,-4
1499894017360947,-7,8,44,40,-3,-3,-2,3
1499894017362955,6,1,4,25,4,1,1,-2
1499894017362955,-1,-5,-45,-34,-6,-3,-1,-12
1499894017373948,20,5,37,0,1,-1,0,18
1499894017373948,0,-5,-22,12,-4,-2,-1,0
1499894017382947,-7,-8,-22,0,0,1,0,-25
1499894017382947,3,7,23,-40,6,6,2,1
1499894017397949,11,-5,12,-2,-7,-5,-6,0
1499894017397949,-3,-6,-23,2,-3,-5,-4,-24
1499894017399949,-4,6,19,-9,-4,-2,-1,-4
1499894017399949,-4,-7,-21,15,2,0,0,6
1499894017420951,-12,2,14,-18,-2,1,-2,0
1499894017420951,18,8,1,-10,-3,1,1,35
1499894017421951,-26,-4,10,21,4,-1,-5,-77
1499894017421951,24,-4,-19,23,-11,-6,-3,20
1499894017433959,15,7,24,-45,1,3,4,-4
1499894017433959,-35,-10,-23,22,-8,-4,-1,20
1499894017442953,14,-4,21,-34,-3,0,0,19
1499894017442953,-7,0,-13,23,4,1,0,-2
1499894017457953,-11,-2,6,62,0,-4,-3,-38
1499894017457953,27,8,12,-14,6,0,1,27
1499894017459954,-29,-8,-9,-27,-6,-1,0,23
1499894017459954,-8,-3,-4,-1,1,0,-1,-13
1499894017480955,4,3,17,71,4,2,2,9
1499894017480955,8,-1,0,-86,-1,1,-2,-3
1499894017481955,-1,-6,-20,34,-4,-5,-3,10
1499894017481955,2,1,15,-47,2,3,1,1
1499894017493955,-3,-3,-5,-14,-1,4,2,29
1499894017493955,-19,-3,-18,14,1,-3,-4,-39
1499894017502955,9,5,2,29,0,-2,-1,12
1499894017502955,8,-9,-28,-44,-12,-7,-4,21
1499894017517957,0,3,1,-21,5,2,0,-1
1499894017517957,-8,-3,20,41,-3,-2,0,-14
1499894017519958,8,1,23,-11,1,2,-3,-30
1499894017519958,6,0,-8,30,4,1,1,-6
1499894017540958,-18,1,20,-10,-2,-2,0,-4
1499894017540958,7,-6,-19,23,0,-1,1,-4
1499894017541959,-4,3,4,-33,-4,-5,-3,6
1499894017541959,-9,-1,8,35,1,0,-1,-2
1499894017553958,-7,-2,-12,-9,1,1,-2,-29
1499894017553958,6,-2,0,-2,-1,-2,-2,-16
1499894017562960,1,-6,-12,12,-4,0,1,12
1499894017562960,-27,-2,10,9,1,-1,-1,-2
1499894017577960,-7,-6,-27,-6,-1,-5,-3,-11
1499894017577960,-6,5,19,0,3,3,2,-8
1499894017579960,-2,-3,-23,-17,-4,-3,-2,-3
1499894017579960,-8,6,23,-15,0,5,3,46
1499894017600961,15,-6,-3,30,-1,-3,-3,-11
1499894017600961,-14,-4,-16,-55,-10,-3,-2,-3
1499894017601962,3,0,-15,-5,-1,1,0,-4
1499894017601962,-5,10,13,54,4,-1,2,-15
1499894017613962,-2,-4,-12,-39,-1,-2,-3,23
1499894017613962,12,7,12,-10,2,0,-3,-20
1499894017622968,-1,0,22,16,-3,-3,0,15
1499894017622968,-10,-11,-19,-34,-8,-4,-2,7
1499894017637964,21,3,16,15,-4,-2,-2,8
1499894017637964,-6,0,-13,20,3,-3,-3,-23
1499894017639963,5,1,6,-10,1,1,1,14
1499894017639963,-4,-1,13,44,-1,-3,-2,8
1499894017660964,6,-3,-18,-55,-1,1,1,-5
1499894017660964,-18,-6,8,9,-3,0,-2,34
1499894017661966,12,2,-5,-4,1,0,-2,9
1499894017661966,10,-7,-18,25,2,-3,-2,-6
1499894017673966,-6,0,2,-42,-7,-6,-3,25
1499894017673966,12,3,9,27,2,6,-1,-6
1499894017682966,0,3,2,-1,4,0,-1,22
1499894017682966,7,-1,-23,34,2,3,1,-3
1499894017697965,-32,-4,15,-36,-7,-3,-1,-12
1499894017697965,14,-10,-3,18,1,-2,1,17
1499894017699967,-2,5,4,-24,-1,1,2,-6
1499894017699967,-4,-2,5,22,3,-1,-3,-25
1499894017720968,11,5,6,6,5,2,-1,11
1499894017720968,-15,-15,-35,-41,-14,-5,-4,0
1499894017721969,17,-1,-23,-41,-3,-2,0,8
1499894017721969,-3,-2,15,-3,4,-3,-4,-3
1499894017742969,1,3,17,17,3,2,1,-9
1499894017742969,-8,2,2,-2,4,1,1,-45
1499894017744970,-2,-5,-12,-5,-2,-1,-3,7
1499894017744970,7,-4,-4,-19,-5,-3,-2,0
1499894017757972,-6,0,-3,7,0,-4,-1,-7
1499894017757972,14,15,34,75,12,7,4,37
1499894017759971,-13,-12,-26,-45,-9,-4,-1,-26
1499894017759971,2,-9,-28,-40,-16,-6,-6,-8
1499894017780973,-10,-1,-7,19,3,0,-1,1
1499894017780973,3,0,-11,1,1,-3,-3,-2
1499894017781973,-1,9,38,29,3,1,-2,-7
1499894017781973,-1,-3,-12,9,6,3,1,-2
1499894017801972,2,-5,5,-7,-3,1,2,-6
1499894017801972,7,-2,-11,-17,-2,-2,-1,0
1499894017811975,-10,4,9,1,-4,-1,-3,-17
1499894017811975,-1,-2,-15,-54,-4,-2,1,-10
1499894017817973,0,7,46,36,-1,1,-2,-6
1499894017817973,5,-1,-8,-17,3,0,-2,-25
1499894017819976,1,-12,-28,-13,-9,-7,-3,-1
1499894017819976,-2,6,9,24,1,-1,1,-19
1499894017840975,1,3,-16,32,4,4,1,7
1499894017840975,-7,-8,1,28,-3,-2,0,5
1499894017841975,-2,-3,-13,-36,-2,-1,-1,5
1499894017841975,-1,0,16,-66,-3,-2,0,-1
1499894017862979,1,-12,-30,1,-8,-4,-4,-2
1499894017862979,7,7,13,16,4,0,-5,-4
1499894017864977,-4,2,13,26,4,1,2,-3
1499894017864977,4,0,-4,13,0,0,-1,19
1499894017877978,-10,-6,-29,-14,-4,-2,-3,-27
1499894017877978,5,0,-24,-75,-7,-2,1,11
1499894017883979,10,-1,4,44,4,0,-1,-18
1499894017883979,-38,-5,15,-4,3,0,-1,-1
1499894017900977,12,2,-10,8,-1,-1,-1,7
1499894017900977,-12,0,-1,15,-3,-4,-2,-6
1499894017901978,-1,0,10,-12,2,1,0,1
1499894017901978,6,5,3,21,1,1,2,3
1499894017922986,-7,-5,7,35,0,1,-5,-31
1499894017922986,13,-1,-17,-87,-10,-3,-1,18
1499894017924982,6,4,16,11,4,4,1,25
1499894017924982,5,1,6,-2,-4,-5,-1,-23
1499894017936982,-6,-7,-18,28,-1,-1,-11,58
1499894017936982,15,-6,6,-35,-4,-2,3,77
1499894017943982,-3,-4,-15,8,-2,-2,-2,-17
1499894017943982,-3,1,-28,20,-2,0,-1,23
1499894017960981,0,-3,8,-22,-1,-2,1,-34
1499894017960981,2,4,14,65,6,2,1,17
1499894017961984,-12,-5,-11,-86,-9,-5,-4,-13
1499894017961984,9,3,3,-2,-7,-2,-2,1
1499894017982984,-1,0,-7,-3,4,-1,2,15
1499894017982984,1,-3,4,5,0,2,-1,-19
1499894017984984,-32,-6,-23,-17,-4,-2,1,-5
1499894017984984,-11,-2,30,54,-1,-3,-6,-38
1499894017996989,7,3,-6,3,1,-1,1,-20
1499894017996989,-4,3,10,-37,1,0,0,1
1499894018004984,9,0,-3,11,-2,-2,1,-3
1499894018004984,9,-1,9,18,1,-1,0,18
1499894018019985,-1,5,21,-34,0,2,3,9
1499894018019985,-16,-4,-12,19,0,0,0,11
1499894018020987,-11,6,7,44,4,-1,0,-30
1499894018020987,10,-10,-48,-94,-8,-1,-4,8
1499894018041986,19,6,26,71,5,0,2,-4
1499894018041986,-1,-5,-12,-60,-9,-3,-2,20
1499894018042987,3,-1,20,45,4,1,0,14
1499894018042987,12,-2,-7,-57,-6,-1,-1,-12
1499894018056986,-13,2,-14,18,3,3,2,-10
1499894018056986,-5,2,7,1,-3,-3,-2,-17
1499894018064988,1,-5,-20,20,-2,-1,-2,7
1499894018064988,-3,3,51,32,3,-1,0,-14
1499894018079989,4,-1,3,-59,-3,0,0,10
1499894018079989,-11,-7,-40,26,1,-2,-2,-14
1499894018080989,17,2,25,38,1,1,-2,1
1499894018080989,-10,-5,-35,16,4,4,2,2
1499894018101990,-4,-3,21,-57,-13,-6,-3,8
1499894018101990,0,10,32,55,7,1,0,-24
1499894018102990,13,-11,-36,-43,-4,-2,0,0
1499894018102990,-8,3,6,46,6,3,2,26
1499894018116991,-9,1,12,1,-7,-7,-5,19
1499894018116991,13,0,8,13,2,2,0,22
1499894018124993,-23,2,2,-4,-2,1,0,-28
1499894018124993,35,4,21,26,-1,-1,-1,38
1499894018140002,-5,-1,-21,-40,5,1,3,-6
1499894018140002,-8,-14,-30,37,-18,-9,-6,-10
1499894018140992,5,5,27,5,2,0,-2,9
1499894018140992,-4,2,-5,-9,4,0,1,-9
1499894018162999,2,-1,-7,15,2,0,0,31
1499894018162999,-12,5,6,-25,0,-2,-1,-25
1499894018162999,2,-6,6,-12,-4,-2,-1,9
1499894018162999,-11,0,2,37,-1,0,-2,-44
1499894018176996,-1,1,0,-92,-3,1,0,0
1499894018176996,-8,-10,26,99,6,0,-2,-23
1499894018184994,7,5,6,-46,0,-1,1,24
1499894018184994,-7,1,-17,-2,2,0,2,7
1499894018200317,6,6,31,10,3,2,2,-7
1499894018200317,-6,-8,-41,-27,-4,-2,-2,-31
1499894018200818,-5,6,14,22,1,0,1,2
1499894018200818,30,-3,-4,-28,-2,-3,-3,35
1499894018222830,-36,-11,-1,4,-3,-4,-2,-18
1499894018222830,16,5,0,-7,0,2,0,45
1499894018222830,0,-3,1,39,3,-2,-4,8
1499894018222830,-13,-3,-2,-13,-7,-2,-1,12
1499894018236828,26,-1,-21,-23,-3,-1,-2,8
1499894018236828,-3,2,15,-33,2,1,1,-6
1499894018244835,-1,-1,-8,10,-6,-2,1,27
1499894018244835,3,-2,11,-7,1,3,0,-28
1499894018259831,-1,-1,5,18,2,1,-1,-16
1499894018259831,-7,2,-9,-13,-2,-3,0,-7
1499894018260829,3,-4,3,9,-1,-2,0,28
1499894018260829,-2,5,14,-6,2,0,-1,-21
1499894018282830,-8,-8,-22,2,-3,-4,-3,-3
1499894018282830,2,1,19,-55,-5,-2,0,-14
1499894018282830,-2,3,10,46,3,1,-2,-8
1499894018282830,-11,-9,-26,-12,-2,0,-1,3
1499894018296829,4,2,-9,-30,0,1,-1,-10
1499894018296829,-1,4,21,15,3,0,-1,14
1499894018304829,1,-7,-21,11,-3,-5,-2,-16
1499894018304829,-5,7,24,-62,0,0,0,-6
1499894018319831,-17,-10,-39,24,-1,0,-3,-35
1499894018319831,-4,1,13,16,2,0,2,6
1499894018320830,13,0,-6,-26,-7,-1,-1,-16
1499894018320830,3,-3,-19,28,5,1,1,17
1499894018342833,-1,6,43,24,-4,-1,-1,1
1499894018342833,6,-3,-17,-2,0,-2,-1,13
1499894018342833,-23,-2,-10,-13,-1,-1,-4,-39
1499894018342833,16,7,22,5,-3,-3,-1,18
1499894018356846,-22,-5,-22,-4,-1,-2,-1,12
1499894018356846,4,-4,-2,23,-1,0,-1,-7
1499894018364846,16,9,9,-33,4,1,2,10
1499894018364846,-5,-7,-9,28,-2,-4,0,47
1499894018379835,2,-1,-2,6,-2,-1,-3,-8
1499894018379835,-13,2,3,43,6,3,0,-3
1499894018380834,0,-3,-15,-88,-12,-1,-3,-7
1499894018380834,1,8,10,-25,2,1,0,-4
1499894018402837,3,-10,-12,53,-2,-2,-1,25
1499894018402837,-17,-3,6,34,-2,-2,-3,-72
1499894018402837,0,-4,-2,25,6,1,1,4
1499894018402837,-9,-4,-3,-26,-5,-1,-4,-17
1499894018416837,4,6,9,-14,0,-1,-1,5
1499894018416837,-12,-8,-5,2,0,-1,-3,-18
1499894018424837,13,5,7,-2,1,-1,0,-4
1499894018424837,-13,-12,-36,-6,-6,-3,-4,-42
1499894018439846,-6,0,8,-45,-1,-2,0,-4
1499894018439846,9,4,7,-1,-5,2,1,14
1499894018440838,-14,1,32,25,6,0,2,-10
1499894018440838,4,-1,-17,13,-3,-5,-2,1
1499894018462841,19,3,14,-8,-2,0,-2,3
1499894018462841,8,-1,-2,-24,-3,-3,-1,26
1499894018470839,-27,-7,-14,0,-2,-3,-5,-40
1499894018470839,1,4,4,-7,3,1,2,1
1499894018476840,-4,-2,5,63,4,-1,1,4
1499894018476840,2,-6,-16,-102,-5,-3,-3,-21
1499894018483840,-1,0,-4,33,-3,0,-1,12
1499894018483840,-14,-5,6,18,1,-1,-3,-1
1499894018499841,-15,0,-18,-15,-1,-2,-2,-17
1499894018499841,17,3,9,25,2,0,2,25
1499894018500841,11,-1,1,-55,2,3,1,13
1499894018500841,-12,-11,0,78,-1,-4,-4,-17
1499894018522843,15,6,-3,-44,-4,-1,3,2
1499894018522843,-13,-1,8,-20,-4,0,-3,-4
1499894018522843,-12,-4,-26,32,2,0,-3,15
1499894018522843,17,1,-14,-45,-10,-1,-2,-4
1499894018536842,-2,2,39,71,-1,-4,-3,4
1499894018536842,-1,-7,-39,-16,-6,-4,-2,-8
1499894018544849,20,-2,20,22,1,0,-1,44
1499894018544849,-16,-4,-9,-27,3,0,1,-8
1499894018559844,28,5,12,-18,1,1,3,25
1499894018559844,-31,-1,-2,38,4,-4,-6,-37
1499894018560845,6,2,15,-8,-2,-1,-1,7
1499894018560845,2,0,-9,-18,-3,-1,0,-3
1499894018582848,-2,0,-4,22,-1,0,-1,-26
1499894018582848,8,7,10,-44,2,5,6,-14
1499894018582848,-11,-9,-24,34,-2,-5,-10,-42
1499894018582848,12,0,14,-58,-1,1,4,20
1499894018606858,-22,-16,-31,9,0,-2,-6,-42
1499894018606858,-1,2,5,59,1,-5,-1,-16
1499894018606858,-15,2,-9,-22,0,1,2,-10
1499894018606858,5,9,29,41,0,-1,-1,-3
1499894018619847,1,-5,-26,-23,1,-1,-1,6
1499894018619847,12,3,8,40,6,4,2,14
1499894018620849,4,1,-6,-105,-7,-2,1,11
1499894018620849,-12,-16,-22,67,-3,-5,-4,-26
1499894018642849,-2,1,22,-7,2,1,1,6
1499894018642849,5,12,34,52,0,-2,-1,7
1499894018642849,1,-8,-30,-48,-3,0,2,57
1499894018642849,-24,-7,-13,12,-1,-2,-1,-4
1499894018665852,22,3,-11,-51,-4,-2,-2,51
1499894018665852,3,-4,21,-26,0,1,0,19
1499894018666850,-1,7,6,36,-2,0,-1,4
1499894018666850,-1,-4,-10,-5,1,-1,-2,2
1499894018679852,8,-5,3,52,-2,-4,-6,-7
1499894018679852,-20,-2,-19,-63,-2,-1,-2,36
1499894018680852,33,-1,13,13,1,0,0,-23
1499894018680852,-32,-1,-15,-18,-5,-6,-3,-2
1499894018702853,5,3,11,27,5,4,4,62
1499894018702853,-4,-12,-34,-11,-1,-2,-6,-37
1499894018702853,-10,-2,23,34,-1,-3,-2,-20
1499894018702853,14,7,9,-17,-1,1,2,18
1499894018725854,0,-2,-1,17,5,1,-2,34
1499894018725854,9,15,16,-31,-7,-1,0,31
1499894018726854,-19,-20,-54,21,-3,-2,0,9
1499894018726854,17,18,20,-18,6,4,0,-31
1499894018739855,-17,-12,-1,35,-9,-7,-4,-37
1499894018739855,8,-1,8,-25,3,1,-1,-4
1499894018740856,2,-1,-11,23,-1,-3,-4,-27
1499894018740856,11,2,-6,-17,-1,0,0,3
1499894018762857,-13,-4,-11,-39,-3,0,-2,-35
1499894018762857,5,-3,-12,15,-3,1,0,21
1499894018762857,-5,8,29,14,1,0,2,6
1499894018762857,0,3,12,-14,-2,3,1,68
1499894018785858,2,-3,-18,37,-5,-6,-2,-11
1499894018785858,14,-6,-8,-41,-3,2,2,19
1499894018786858,-15,7,13,-15,-3,-1,-2,-50
1499894018786858,-6,-2,2,8,3,1,1,8
1499894018799859,-10,-1,4,35,-3,-1,-2,-20
1499894018799859,-5,-8,-7,30,1,-4,-3,-7
1499894018800858,-13,2,9,-64,-9,-2,0,-22
1499894018800858,11,-5,0,41,-2,-4,-6,-5
1499894018822865,5,1,-1,-55,0,3,5,-5
1499894018822865,-18,-3,-27,6,3,1,-2,-37
1499894018822865,44,11,23,8,6,3,0,51
1499894018822865,-4,-14,-22,-17,-7,-3,-2,9
1499894018845862,-12,-1,11,9,1,-1,-5,-32
1499894018845862,10,-1,11,11,1,1,1,35
1499894018846860,5,0,-7,2,-2,-1,-2,-22
1499894018846860,-1,10,26,-22,4,-1,0,-8
1499894018859862,8,-2,-11,3,3,-1,1,6
1499894018859862,-3,-1,-22,-6,-8,-2,1,13
1499894018860863,-13,-2,17,33,0,-1,-3,5
1499894018860863,-2,-1,-14,2,-4,0,0,-17
1499894018882864,-3,4,-1,4,0,2,-2,-16
1499894018882864,17,-1,12,0,-4,-5,-2,20
1499894018882864,3,-2,2,7,4,1,2,19
1499894018882864,-7,-11,-33,-7,-14,-8,-8,-31
1499894018905871,9,6,11,-2,2,-1,1,41
1499894018905871,-10,2,-3,23,1,2,0,33
1499894018906876,-3,-1,2,-17,-4,-4,-4,-43
1499894018906876,6,-3,2,18,7,2,5,9
1499894018919864,-3,1,-10,-50,-3,1,-1,-11
1499894018919864,-4,0,24,68,6,-1,-2,-13
1499894018920865,-10,1,-34,-69,-5,0,-1,2
1499894018920865,-3,-3,30,14,-5,-4,-2,-44
1499894018942867,-22,-6,-11,-3,0,-1,-3,-6
1499894018942867,-4,-3,-13,-4,-2,-2,-1,-24
1499894018942867,-3,-1,11,32,3,3,0,7
1499894018942867,-1,-2,-8,-22,-3,-2,0,-16
1499894018964869,12,3,4,14,2,1,0,4
1499894018964869,7,-2,-5,-34,-4,-3,-1,-4
1499894018965868,11,3,12,8,2,0,1,33
1499894018965868,1,-3,-10,72,7,0,-1,-1
1499894018979870,7,-8,-9,-96,-7,1,2,11
1499894018979870,-30,5,9,50,1,-1,-6,-70
1499894018980869,9,-10,-24,-81,-10,-4,1,12
1499894018980869,5,3,29,71,2,1,-1,16
1499894019002870,-3,-1,-5,9,0,0,2,4
1499894019002870,7,-4,-18,-23,-3,-2,0,7
1499894019002870,-7,-4,-10,4,2,0,-1,0
1499894019002870,-15,-10,-20,25,2,1,0,-12
1499894019024874,-1,6,30,-31,-6,-6,-5,-4
1499894019024874,2,5,3,7,1,1,0,4
1499894019025874,-8,-6,15,17,-3,-5,-3,-14
1499894019025874,6,1,-34,-35,-3,1,2,20
1499894019039872,6,-1,0,26,1,1,1,17
1499894019039872,6,3,2,-7,1,-1,0,13
1499894019040872,-4,-5,3,27,-4,-2,-2,-2
1499894019040872,-6,7,31,-5,3,-1,-6,-85
1499894019062880,-5,-1,-14,7,-5,-2,-1,-18
1499894019062880,21,0,2,-27,-2,2,5,3
1499894019062880,-21,-1,-15,19,1,0,1,2
1499894019062880,-3,-3,2,15,4,-2,-1,13
1499894019084876,0,1,6,-32,-4,-2,-3,1
1499894019084876,-2,-12,-30,-25,-2,-2,0,4
1499894019085876,-6,-2,-17,0,-2,1,0,-38
1499894019085876,7,-1,-10,-25,-1,2,2,26
1499894019099876,-8,1,5,47,7,1,0,-10
1499894019099876,-17,-1,-10,-36,-6,1,1,6
1499894019100879,-20,-5,12,31,-2,-4,-4,15
1499894019100879,-6,3,-8,-12,-4,0,-1,-1
1499894019122888,5,-1,-3,-2,3,-1,0,-4
1499894019122888,-8,-1,16,3,-7,-2,-2,-5
1499894019122888,6,0,-2,26,3,3,3,2
1499894019122888,0,0,7,-46,-2,-2,-2,-11
1499894019144881,-16,-2,9,37,1,-2,-2,-6
1499894019144881,11,-1,6,-6,1,1,-4,-16
1499894019145879,-2,-3,-32,-5,-6,-5,-4,-14
1499894019145879,10,-3,6,39,-5,-3,-5,55
1499894019159881,-15,-1,-4,-82,-12,-5,-2,-33
1499894019159881,2,-5,9,12,1,2,1,3
1499894019160879,-10,-3,-18,-13,3,2,2,-10
1499894019160879,1,1,2,13,2,0,1,-12
1499894019181882,13,7,15,-8,6,3,1,15
1499894019181882,-12,-8,-28,50,-2,-1,-2,5
1499894019189881,2,-4,5,-45,-6,-3,0,11
1499894019189881,-6,-5,5,-2,-1,-1,-1,3
1499894019204882,5,0,-10,-2,0,-2,-1,12
1499894019204882,1,11,38,-3,0,-3,-1,-5
1499894019205881,5,-2,-45,18,5,2,-1,4
1499894019205881,-5,4,-1,-18,-4,-3,-1,-4
1499894019219882,5,-5,21,64,-1,0,2,6
1499894019219882,4,-4,-19,-64,-2,-3,-4,-2
1499894019220883,19,4,17,-6,-2,-4,0,10
1499894019220883,6,0,8,-28,-4,-4,-1,34
1499894019242884,-19,2,-19,76,6,1,0,-14
1499894019242884,21,-4,-6,-22,-2,-3,-5,16
1499894019242884,0,2,11,-28,-3,0,0,2
1499894019242884,11,0,-9,-3,1,1,-6,9
1499894019264889,-17,-2,6,31,2,1,2,35
1499894019264889,-18,-8,-22,-49,-8,-7,-3,-19
1499894019265886,2,-2,-11,18,-1,-3,-1,-3
1499894019265886,-3,-3,7,-7,0,-1,2,32
1499894019278887,17,4,-2,-5,-1,1,-3,0
1499894019278887,3,2,1,7,6,5,2,9
1499894019287890,-6,-3,23,14,-7,-2,-3,1
1499894019287890,-5,3,0,-2,1,-1,0,-3
1499894019302887,-1,-9,-10,-30,-4,-4,-1,-13
1499894019302887,-8,-2,-13,22,3,4,1,-10
1499894019302887,9,5,12,12,2,1,1,2
1499894019302887,-22,-2,-3,6,2,-1,0,-35
1499894019324889,10,-14,0,-43,-14,-10,-7,-4
1499894019324889,-1,-8,-16,-9,-2,-3,-4,-4
1499894019325890,1,5,17,33,2,3,1,40
1499894019325890,12,5,-5,-7,4,2,6,81
1499894019339906,1,7,10,1,0,1,0,-4
1499894019339906,-11,-11,-10,17,-4,-3,1,15
1499894019347890,2,-10,-26,-10,0,-3,-3,9
1499894019347890,2,1,14,-16,1,1,0,-29
1499894019362899,5,-2,4,13,2,-3,-3,7
1499894019362899,-9,7,1,1,-5,-3,-1,-4
1499894019362899,3,7,12,10,4,3,2,-13
1499894019362899,-15,1,11,27,-2,-4,-3,-28
1499894019384893,-7,-9,-16,-62,-10,-4,-3,-15
1499894019384893,3,6,8,11,5,0,-5,-16
1499894019385893,-7,-6,-7,-14,-2,0,0,-15
1499894019385893,-3,5,24,50,0,-3,-2,-18
1499894019398892,3,5,7,-34,-1,3,0,9
1499894019398892,-5,-3,-12,-14,0,-1,1,2
1499894019407894,3,0,4,17,0,-5,-4,-4
1499894019407894,26,0,1,-12,1,1,1,27
1499894019422894,-12,6,6,69,9,0,1,-4
1499894019422894,-3,-9,-9,-73,-10,-3,-3,-31
1499894019422894,-8,-1,32,24,0,-3,-5,3
1499894019422894,4,-5,-24,-22,-8,-5,-5,-17
