timestamp,emg1,emg2,emg3,emg4,emg5,emg6,emg7,emg8
1499893967231049,-15,-18,-20,-57,-13,-11,-20,19
1499893967231049,-31,10,33,14,3,0,3,-21
1499893967246049,24,-10,-28,-29,0,2,-7,-12
1499893967246049,25,-2,-15,26,4,-1,-5,7
1499893967248050,0,4,28,23,3,0,-2,-1
1499893967248050,-3,-7,0,8,-4,-3,3,9
1499893967269051,-8,3,27,20,3,-1,-7,-9
1499893967269051,5,0,-30,-53,13,8,11,10
1499893967270050,2,-8,4,4,-9,-2,-8,-11
1499893967270050,0,5,4,45,4,-2,1,7
1499893967282051,-3,3,5,-10,-6,-4,2,2
1499893967282051,-3,-1,8,-50,-5,-4,-4,-6
1499893967291052,11,3,-27,19,6,1,-5,-3
1499893967291052,-5,-2,-7,-12,3,3,-3,6
1499893967307059,-30,2,7,67,2,1,0,1
1499893967307059,1,-1,-19,-82,-13,-6,8,8
1499893967312067,-45,2,21,45,9,2,-8,-12
1499893967312067,-18,-20,-13,-37,-11,-11,-22,-9
1499893967329059,54,11,-26,-36,0,2,25,21
1499893967329059,-46,-7,43,26,-3,-4,-11,-2
1499893967330058,-12,-1,-43,25,0,3,34,-13
1499893967330058,-15,13,-12,33,2,2,2,-50
1499893967342055,-50,-14,28,18,2,-4,-14,-20
1499893967342055,28,-2,-24,18,4,0,-17,11
1499893967351055,32,2,8,-48,0,2,-1,-11
1499893967351055,5,0,9,60,6,1,13,4
1499893967366055,-7,3,-11,-54,-4,-3,-37,-3
1499893967366055,-25,9,23,8,7,11,53,-20
1499893967380057,47,-6,-2,96,-5,-5,-26,26
1499893967380057,-23,4,-3,24,5,4,-1,36
1499893967389068,29,19,41,-75,-10,0,16,3
1499893967389068,-7,-14,-23,62,-4,-5,-49,-54
1499893967390061,-13,-3,-21,-42,-9,-7,-2,-2
1499893967390061,-17,7,33,-71,-1,-3,27,-26
1499893967402058,0,-1,-29,71,1,0,-34,68
1499893967402058,47,-5,-8,-42,-3,1,80,32
1499893967411060,32,21,13,-22,14,15,12,33
1499893967411060,-52,-6,5,12,-6,2,-8,-57
1499893967425060,15,-17,-2,-1,1,-9,-31,11
1499893967425060,-14,-16,-6,14,-5,-5,-2,21
1499893967434059,-48,0,-40,-65,-12,-6,-6,-28
1499893967434059,22,-1,11,74,5,6,69,-16
1499893967450062,-22,-21,9,12,0,-1,-19,-31
1499893967450062,-24,-6,3,39,3,2,-16,-12
1499893967452061,-15,4,87,-128,0,-4,-9,-56
1499893967452061,-5,-9,-34,57,-10,-6,-23,82
1499893967471063,12,14,23,119,17,1,12,-71
1499893967471063,4,4,-13,-71,-16,-5,-6,-3
1499893967473062,2,2,13,113,9,-1,4,80
1499893967473062,51,-4,-59,-128,-5,-1,-5,-20
1499893967486063,10,-9,-21,-45,-17,-8,-7,-14
1499893967486063,51,12,17,40,5,0,16,103
1499893967488063,9,2,4,8,-5,-5,-27,3
1499893967488063,-30,-9,51,119,1,-3,-14,25
1499893967509068,-14,6,-68,-116,-5,4,11,-68
1499893967509068,12,15,26,72,13,7,13,14
1499893967510072,-27,-19,5,-16,-11,-10,-44,-31
1499893967510072,30,1,-8,8,6,5,13,85
1499893967531065,45,3,-40,23,4,4,33,84
1499893967531065,-7,-5,-17,-59,-27,-13,-28,-53
1499893967537065,-10,3,74,-5,1,-4,8,-2
1499893967537065,-3,-3,-13,-2,4,-1,-17,-53
1499893967546073,-26,1,19,-44,-13,-7,-10,44
1499893967546073,24,-7,-58,-46,0,6,9,31
1499893967548065,-66,13,-36,95,8,4,12,-48
1499893967548065,10,13,64,-3,0,4,16,-25
1499893967568068,-24,-25,-50,8,-10,-10,-3,-16
1499893967568068,-7,-22,5,26,-3,-7,-13,-4
1499893967575067,10,-2,-2,16,1,1,-13,-58
1499893967575067,30,8,1,-34,-1,-2,1,-44
1499893967591069,25,7,23,42,10,5,16,-45
1499893967591069,-11,12,32,2,4,-2,-6,-22
1499893967597069,5,-4,-24,-43,0,7,19,2
1499893967597069,18,-3,-27,39,2,3,-19,29
1499893967606071,6,-4,27,-85,-19,-5,4,40
1499893967606071,-35,0,3,9,7,-7,-21,-103
1499893967608071,11,-1,3,18,-3,-3,-4,41
1499893967608071,-4,-3,-28,-55,-9,-5,2,-64
1499893967629071,-29,3,-25,31,10,8,-3,38
1499893967629071,-42,-14,8,-90,-18,-9,-12,8
1499893967630071,68,1,8,-17,7,3,10,67
1499893967630071,57,11,-2,-20,-1,-1,-10,10
1499893967651072,-9,2,15,26,14,3,6,-96
1499893967651072,-6,0,16,37,-4,0,-8,9
1499893967653072,13,-11,-45,-100,-19,-8,-6,27
1499893967653072,3,-1,19,-5,3,-1,-4,81
1499893967665074,0,-3,-25,-12,6,4,9,-13
1499893967665074,82,16,45,1,5,10,26,110
1499893967672083,-65,-22,-18,90,3,-9,-18,-51
1499893967672083,-45,-9,-42,-91,-16,-8,6,-40
1499893967689075,3,8,20,39,4,1,5,4
1499893967689075,-13,5,26,36,8,0,-13,-31
1499893967690074,19,2,-25,-20,0,1,9,37
1499893967690074,-10,-11,15,34,-10,-10,-26,-15
1499893967711077,2,4,21,-5,-5,1,7,-25
1499893967711077,-43,5,-26,-10,7,2,-4,-128
1499893967713077,34,1,26,51,3,1,10,36
1499893967713077,-30,-4,-8,-38,3,-2,-10,-1
1499893967726076,15,-3,-10,49,-9,1,2,22
1499893967726076,10,21,52,21,13,0,-15,61
1499893967732075,-12,-17,-33,39,-6,-2,11,-40
1499893967732075,18,-9,2,-68,-3,-2,-1,-7
1499893967749078,1,8,14,-56,-1,-3,-10,19
1499893967749078,12,-6,-3,101,4,1,11,110
1499893967750078,-15,7,-8,-8,8,2,16,-2
1499893967750078,18,-3,-15,13,-5,-6,-17,-32
1499893967771079,-23,-7,19,22,1,0,9,66
1499893967771079,-16,9,-21,70,2,-1,-9,-25
1499893967773079,54,0,-2,-53,-10,-5,-3,-47
1499893967773079,18,-3,-13,74,-2,-2,5,17
1499893967785080,-8,8,42,-48,1,1,11,17
1499893967785080,-6,-6,-14,11,-1,0,-5,-55
1499893967792081,-33,3,12,34,9,5,3,-64
1499893967792081,-4,-2,32,-19,-1,1,1,38
1499893967809082,-20,-12,-23,75,-10,-7,-17,-100
1499893967809082,4,-6,3,-46,-6,-3,6,-6
1499893967810081,19,10,-18,-3,0,0,-7,24
1499893967810081,-29,-6,3,53,1,1,2,-5
1499893967831082,11,5,-9,-5,8,0,-1,31
1499893967831082,9,-1,-6,-46,-2,-4,-9,35
1499893967833083,-11,2,-16,-71,-6,0,-20,-36
1499893967833083,11,-8,-22,-3,-5,0,27,-44
1499893967845084,-19,2,14,-20,1,-4,-6,-51
1499893967845084,-3,-7,-31,13,-3,-1,-2,-14
1499893967854084,18,-9,-4,-51,-4,-3,0,25
1499893967854084,15,8,12,38,4,1,-17,22
1499893967869084,13,7,18,15,1,4,29,-72
1499893967869084,-16,-18,-39,-103,-13,-7,-10,9
1499893967870084,2,8,33,-39,0,0,5,39
1499893967870084,-8,-1,-23,46,-2,1,-6,17
1499893967891086,21,2,17,-69,-2,-1,1,86
1499893967891086,-26,-11,8,105,6,5,4,-26
1499893967893087,-10,1,6,4,-5,-2,2,-1
1499893967893087,-13,-2,25,-25,2,-5,-4,73
1499893967906101,5,4,-10,28,3,-2,-39,48
1499893967906101,6,-2,-6,-59,-2,7,34,-60
1499893967913087,6,-11,-26,33,-8,-6,-13,-50
1499893967913087,-12,9,12,9,7,3,2,-7
1499893967929088,30,-9,-49,15,3,0,-2,21
1499893967929088,-6,-1,23,21,-21,-10,-9,15
1499893967930088,9,5,-8,27,14,6,9,45
1499893967930088,-11,-1,-31,21,-3,4,7,35
1499893967951089,-16,0,30,-54,4,1,-7,-81
1499893967951089,5,3,-31,-45,-1,-2,-5,-22
1499893967953090,10,-16,-20,-33,-15,-7,-3,33
1499893967953090,7,6,39,-69,-2,-5,-8,-33
1499893967965091,19,-7,-23,29,-5,-6,0,70
1499893967965091,-2,4,25,68,12,2,-17,4
1499893967973096,-10,11,5,-47,1,5,13,63
1499893967973096,25,-15,-37,56,-12,-7,5,18
1499893967989091,-5,-16,-13,10,-1,-5,0,-12
1499893967989091,5,4,-7,-2,-12,-6,-7,5
1499893967990092,-29,3,11,24,2,2,-7,-34
1499893967990092,-19,-4,-22,3,0,4,-4,35
1499893968011104,-2,8,22,66,8,4,23,-34
1499893968011104,2,-11,-35,-52,-2,-4,-22,-5
1499893968013095,30,9,-1,-9,10,4,-1,-62
1499893968013095,-22,-3,2,14,0,-3,7,29
1499893968025093,-6,-3,-27,-38,-11,-3,-7,-28
1499893968025093,-16,5,29,-12,5,2,7,-11
1499893968034094,16,4,6,44,3,4,10,13
1499893968034094,12,10,30,-73,7,4,-1,-6
1499893968049095,24,3,31,76,-6,-6,8,-35
1499893968049095,14,6,-17,-3,10,5,-4,-52
1499893968050096,-24,-19,-50,-6,-16,-11,-5,26
1499893968050096,-49,2,5,55,8,-2,-16,-68
1499893968071095,9,-17,-20,-23,-6,-5,-15,-19
1499893968071095,-2,12,19,0,-4,5,25,66
1499893968073097,-17,-4,5,51,11,1,-3,-15
1499893968073097,13,2,-28,-12,0,-2,7,-101
1499893968085096,-19,2,5,19,-8,0,-11,33
1499893968085096,-15,4,9,86,4,-3,2,-3
1499893968094098,-12,-6,18,-11,-2,-1,-6,16
1499893968094098,4,2,-5,50,3,1,1,-29
1499893968109099,-13,-4,-5,-97,-5,-4,-1,7
1499893968109099,27,-2,7,82,6,1,1,37
1499893968111105,-27,7,14,-63,-4,2,-1,-36
1499893968111105,-26,-3,7,-36,-4,-3,0,0
1499893968131099,9,-3,-13,7,1,-2,1,-8
1499893968131099,-1,-8,-16,34,5,0,-4,-13
1499893968133099,5,6,8,-39,-2,-7,-2,-16
1499893968133099,-36,7,4,-75,-10,-1,-12,-51
1499893968145106,3,-12,-18,-12,-12,-4,2,55
1499893968145106,44,9,7,-77,7,5,-2,0
1499893968154102,15,-12,1,11,-11,-9,-8,65
1499893968154102,21,3,25,43,5,-3,-7,21
1499893968169102,-10,10,-16,-9,1,2,8,-5
1499893968169102,-6,-8,-35,-70,-4,-2,1,58
1499893968170102,14,0,10,73,4,4,8,3
1499893968170102,27,-3,-9,-6,-7,2,10,112
1499893968191103,-13,-3,19,-109,-12,-1,1,-35
1499893968191103,5,-5,-9,45,2,-1,8,18
1499893968197106,-8,-5,-13,39,-5,-1,-2,-41
1499893968197106,-1,-6,2,25,0,-3,-1,30
1499893968205105,-23,11,32,100,16,6,2,0
1499893968205105,-18,-4,-4,-67,-19,-7,-12,-83
1499893968214106,2,-1,-8,-30,-5,-4,4,0
1499893968214106,16,8,18,29,11,1,-2,30
1499893968229105,3,-11,-10,-7,-5,-3,-6,-20
1499893968229105,-25,0,-3,7,-1,-5,-15,-49
1499893968230106,-24,-10,-2,32,-7,-6,-2,15
1499893968230106,-13,-2,-8,-9,-3,4,-3,-32
1499893968251106,11,5,23,54,11,5,4,68
1499893968251106,-3,-3,14,38,0,0,-2,46
1499893968253108,21,-9,-39,-40,-2,-6,-4,-23
1499893968253108,-58,-12,-22,-12,-3,1,4,63
1499893968265108,42,-6,-5,-113,-24,-12,-10,35
1499893968265108,-13,-16,-41,94,-5,-5,3,-32
1499893968274108,12,18,83,17,16,6,-4,24
1499893968274108,7,-6,-24,23,-7,-5,-7,-48
1499893968289108,14,3,-1,-9,-10,-2,-3,49
1499893968289108,-12,2,-12,30,8,3,9,13
1499893968290109,-20,-14,-20,-4,0,3,8,-16
1499893968290109,-2,-5,-17,-107,-11,-3,0,4
1499893968311114,-25,19,48,49,11,5,-8,-101
1499893968311114,-1,-8,2,-20,-12,-7,2,-22
1499893968313111,-7,-4,8,46,-3,1,-4,-23
1499893968313111,3,-7,-32,-22,4,2,6,-21
1499893968325113,-16,-1,-3,34,3,-1,3,-9
1499893968325113,19,8,34,-23,-1,-2,-1,58
1499893968334112,8,11,20,-43,8,2,-5,35
1499893968334112,14,-11,-32,34,-15,-4,-1,25
1499893968349113,-27,-3,33,-32,3,0,1,-93
1499893968349113,2,-18,-42,38,-3,-9,-16,-17
1499893968350112,8,-4,-6,-87,-2,0,7,-5
1499893968350112,23,11,23,15,6,-1,-6,-6
1499893968371118,6,-3,-20,71,15,5,11,14
1499893968371118,-4,8,19,43,1,4,6,65
1499893968373117,1,6,4,-30,-11,-9,-43,-57
1499893968373117,-28,-6,3,-35,-10,-2,25,-30
1499893968385114,1,0,-51,13,-6,-5,3,34
1499893968385114,-26,-6,23,-47,-5,0,3,-5
1499893968394115,4,2,2,60,10,2,-5,-24
1499893968394115,22,21,35,-60,15,9,3,48
1499893968409116,8,-9,-2,46,-13,-8,1,39
1499893968409116,-42,-17,-7,-67,-13,0,-1,-72
1499893968411117,33,13,11,127,10,4,12,29
1499893968411117,-14,-11,-30,-89,-10,-7,-9,-54
1499893968431121,3,8,23,85,12,4,1,-12
1499893968431121,39,16,7,-107,5,3,-5,16
1499893968433117,4,3,5,85,-1,-4,18,-57
1499893968433117,0,-7,-4,-40,-3,1,3,-61
1499893968445121,-15,-18,-38,-16,-6,-8,-19,-47
1499893968445121,1,0,7,18,-2,-2,-7,7
1499893968454118,-15,5,3,-7,-4,2,9,16
1499893968454118,13,7,-1,43,5,-2,-10,-47
1499893968469118,-36,-15,-20,-16,6,2,12,62
1499893968469118,1,8,19,91,16,7,-5,12
1499893968470120,38,-13,-41,-40,-26,-12,-4,-11
1499893968470120,-47,2,-14,102,10,2,-3,35
1499893968490129,8,6,48,-70,-16,-4,-5,-3
1499893968490129,16,0,31,72,7,-1,0,81
1499893968499122,-63,-2,-21,-64,1,1,11,12
1499893968499122,26,-15,-43,-46,-18,-10,-13,62
1499893968514124,4,-10,-22,63,9,0,9,28
1499893968514124,15,10,-14,-86,-2,2,0,-37
1499893968515122,4,-2,6,-39,-2,2,6,89
1499893968515122,-14,4,46,43,2,-3,-8,-39
1499893968529125,-13,-7,-11,50,0,0,-7,-22
1499893968529125,1,-1,-3,-36,-4,-3,0,-13
1499893968530122,20,9,24,11,9,2,-4,45
1499893968530122,-1,-10,-22,12,-1,1,4,7
1499893968551126,13,4,19,-33,-8,0,-4,22
1499893968551126,-16,0,5,39,1,-2,-7,-101
1499893968553125,1,-17,-20,-29,0,1,2,46
1499893968553125,33,13,52,66,6,-7,-13,34
1499893968574125,5,17,-3,-12,-6,-1,1,3
1499893968574125,-18,-3,4,-4,6,4,22,13
1499893968575126,-20,-10,-2,14,-6,-4,-6,16
1499893968575126,-10,-12,-2,-58,-8,-8,-11,-80
1499893968589126,14,10,12,0,5,3,1,14
1499893968589126,1,-5,-6,6,-4,-5,3,-59
1499893968590127,9,3,-7,91,13,5,-1,-3
1499893968590127,-4,2,-7,-24,-7,2,9,43
1499893968612128,10,2,22,-5,-6,-4,-4,66
1499893968612128,-27,3,-7,-39,6,6,1,-36
1499893968617127,9,-6,-4,29,-4,-9,-2,-14
1499893968617127,10,-2,-29,-65,-11,-3,-3,21
1499893968634128,-4,-10,-42,6,5,1,7,6
1499893968634128,19,4,40,74,5,-3,-17,10
1499893968635129,-26,-21,-36,-121,-16,-3,-6,-26
1499893968635129,-13,8,7,82,1,1,14,24
1499893968648129,33,0,3,-96,-3,-1,-2,2
1499893968648129,-9,1,0,-30,-8,-4,-3,-31
1499893968655134,-11,-19,-40,-16,-4,-5,-8,-116
1499893968655134,-6,5,16,55,13,3,-1,10
1499893968671132,-22,-2,10,-38,-8,-2,-14,-30
1499893968671132,6,2,-3,29,0,-1,16,-5
1499893968673131,-6,13,1,26,9,12,3,82
1499893968673131,15,-11,10,-1,-2,-6,-3,-25
1499893968694133,-4,1,-16,-64,-8,-1,-1,25
1499893968694133,23,-10,-19,13,-8,-6,-10,96
1499893968696136,3,16,17,-3,5,1,4,19
1499893968696136,-3,13,41,70,19,8,10,25
1499893968708134,1,-14,-26,-21,-20,-7,-12,-26
1499893968708134,16,-9,-17,-11,1,3,4,104
1499893968715134,-60,7,16,-37,1,-1,0,-67
1499893968715134,35,-2,11,28,-3,-1,-7,29
1499893968731133,2,2,-22,39,11,3,6,-12
1499893968731133,-8,-3,1,-90,-7,-3,3,58
1499893968733135,11,5,32,65,0,1,5,42
1499893968733135,-2,3,-45,-37,3,3,-4,39
1499893968754137,-11,1,40,-5,3,-1,-9,-3
1499893968754137,10,0,-30,22,0,-1,0,0
1499893968755152,-16,0,17,30,-8,0,-1,-24
1499893968755152,-7,-19,-24,-56,-5,-3,1,19
1499893968768138,14,-2,-6,57,6,-7,-20,-34
1499893968768138,-25,-6,-16,23,-7,-2,17,5
1499893968775137,34,6,36,7,-3,-3,-4,-11
1499893968775137,19,-8,25,98,4,2,-2,53
1499893968791139,32,7,-2,-37,-5,-2,-2,-43
1499893968791139,-8,-6,3,-1,7,-3,-13,-87
1499893968793138,2,-9,-33,17,1,-3,-5,-30
1499893968793138,-15,1,13,-31,-9,-2,2,45
1499893968814139,1,-1,-9,2,5,5,8,56
1499893968814139,21,13,0,30,4,4,3,-25
1499893968815140,-51,-22,-33,7,-15,-15,-15,-13
1499893968815140,-2,-2,11,-22,0,-2,-6,-38
1499893968828145,-9,4,-6,29,8,3,1,-41
1499893968828145,-1,5,11,-51,-3,0,-2,-9
1499893968835142,16,-7,-23,-17,-3,-2,5,25
1499893968835142,3,5,30,41,3,-3,-1,-50
1499893968851140,13,1,-15,28,7,0,-10,-105
1499893968851140,-40,-2,24,-63,-7,-3,1,-38
1499893968853142,15,10,18,38,2,3,3,18
1499893968853142,-22,-19,-45,-36,-14,-5,-4,-19
1499893968874143,9,7,22,-37,0,5,5,60
1499893968874143,11,-2,2,78,0,-5,-6,31
1499893968875142,9,3,3,-34,4,-4,-9,-52
1499893968875142,1,7,-5,-14,4,3,7,-28
1499893968888143,-28,-9,-4,-34,-10,-3,6,-2
1499893968888143,1,-4,-8,47,0,-1,-9,22
1499893968896144,-2,-4,-15,-52,-4,-1,-2,28
1499893968896144,-2,4,21,29,6,2,0,-12
1499893968911145,-13,-4,-21,-17,0,0,2,90
1499893968911145,-16,0,5,-7,-3,-3,-8,-43
1499893968914145,-24,2,0,-6,4,4,10,26
1499893968914145,-8,-5,-1,-26,-8,-8,-5,-56
1499893968934145,-10,2,17,33,1,1,-1,73
1499893968934145,8,-7,-32,6,2,-1,-1,62
1499893968935146,5,3,9,-23,2,-2,-3,71
1499893968935146,-32,-4,-29,-24,1,3,-1,-52
1499893968948160,-7,-12,-7,52,-2,-4,3,-14
1499893968948160,-18,-7,48,30,-11,-8,-6,7
1499893968962152,27,7,17,0,5,3,-1,24
1499893968962152,5,11,-1,45,9,4,16,19
1499893968971149,1,0,-22,-99,-17,-1,1,-36
1499893968971149,15,7,8,19,-1,2,1,19
1499893968973148,16,-9,-6,14,2,0,1,36
1499893968973148,-2,9,-10,10,3,3,-3,15
1499893968994150,-15,-10,34,6,6,-3,8,-15
1499893968994150,1,-5,-33,3,1,4,2,-14
1499893968995159,-5,0,3,36,-6,-2,5,50
1499893968995159,-3,-2,12,-67,-4,-3,-7,-69
1499893969016153,-8,11,11,-64,4,3,6,8
1499893969016153,12,-4,-12,-29,-14,-8,-6,-36
1499893969018152,-6,0,-2,25,10,3,4,-45
1499893969018152,37,-14,-20,16,-9,-7,-8,101
1499893969031150,4,7,-13,-12,6,2,10,-3
1499893969031150,30,10,31,68,4,2,-3,-47
1499893969033153,-22,-14,-46,-42,-18,-6,-3,-60
1499893969033153,1,2,28,-55,-7,1,3,-22
1499893969054152,14,-6,-1,34,3,-1,-3,67
1499893969054152,14,10,-21,-24,8,4,5,50
1499893969055160,-5,-11,1,84,0,0,0,-30
1499893969055160,-2,-2,-8,-20,-2,-1,-2,-20
1499893969067155,26,0,-10,36,-9,-1,-1,62
1499893969067155,-21,-4,12,-20,3,-1,-1,2
1499893969076155,23,2,-22,-15,1,-2,-7,20
1499893969076155,-11,2,15,-41,1,2,0,12
1499893969091158,2,-3,-4,0,-2,-3,-1,-27
1499893969091158,-8,-1,-26,-33,-1,0,-2,33
1499893969093155,2,11,46,-24,-1,-2,-3,-48
1499893969093155,-19,-14,-33,105,1,-4,0,25
1499893969113158,6,5,1,25,11,3,-1,5
1499893969113158,-5,6,-4,-31,-8,-4,0,-21
1499893969115157,-3,-4,20,-3,3,-1,-4,15
1499893969115157,5,-1,-6,-37,-2,0,3,41
1499893969127158,-2,2,13,28,-3,-3,-12,-37
1499893969127158,-21,-4,10,19,3,0,7,37
1499893969136157,9,-4,-16,-11,4,4,3,6
1499893969136157,-8,7,23,13,-5,-3,-1,-2
1499893969151157,-3,-8,-37,-18,-12,-7,-6,22
1499893969151157,-34,-8,5,-14,0,-1,-9,-32
1499893969153159,-14,13,42,-30,-7,-1,14,6
1499893969153159,-4,-9,-26,33,0,-4,-8,-101
1499893969174160,-14,9,52,4,5,2,-5,-42
1499893969174160,-6,-3,-21,-52,-1,1,4,-21
1499893969180160,-7,0,18,-34,-11,-5,-14,-89
1499893969180160,-2,11,40,-33,2,1,5,30
1499893969187160,-14,-8,-49,84,-3,-4,2,23
1499893969187160,13,-7,-9,-65,-5,-3,-4,-31
1499893969196163,5,4,-7,17,4,4,0,35
1499893969196163,13,5,0,18,6,3,-2,13
1499893969211163,-16,-4,-12,-34,5,-1,-6,-49
1499893969211163,4,-6,14,0,-25,-11,-7,39
1499893969213163,14,4,-1,42,7,1,5,64
1499893969213163,1,-7,-23,-59,-9,-1,-4,-48
1499893969233166,-9,6,26,81,12,4,2,-10
1499893969233166,13,1,-6,21,11,6,6,30
1499893969235163,-21,-26,-48,-10,-11,-8,4,-13
1499893969235163,-16,13,17,-25,-1,1,-2,-55
1499893969247164,-8,-10,-14,-11,-7,-3,-2,27
1499893969247164,17,8,28,45,-3,-5,-5,-24
1499893969256166,-5,-16,-37,-14,-3,-4,-6,-15
1499893969256166,2,7,-1,19,10,6,3,40
1499893969271166,-9,-11,-15,-32,-12,-5,0,-18
1499893969271166,-18,-2,-3,-56,0,0,-4,-79
1499893969273169,5,4,5,10,2,0,-2,11
1499893969273169,-1,-8,-23,63,-3,-6,-6,20
1499893969293168,34,7,8,-101,-12,1,5,52
1499893969293168,-6,-2,-13,75,0,-1,-3,-13
1499893969300168,15,-4,6,-43,5,5,5,-1
1499893969300168,-34,-14,21,54,-15,-10,-13,-25
1499893969307169,-1,16,25,48,14,3,-1,-43
1499893969307169,4,-13,-32,-24,-6,0,0,22
1499893969316169,-7,10,2,45,4,2,-4,-25
1499893969316169,13,-4,15,-67,-10,-3,-1,44
1499893969331171,-5,-7,-5,-56,-10,-5,-10,-78
1499893969331171,19,6,-15,-1,4,5,7,21
1499893969333168,15,1,-3,48,-1,-1,-4,65
1499893969333168,-5,4,0,29,7,2,1,-22
1499893969353169,-7,0,9,-58,-5,1,3,0
1499893969353169,2,6,12,-22,1,-2,1,0
1499893969355179,-14,-6,8,33,-10,-6,-6,-23
1499893969355179,10,-2,-15,-25,0,2,4,70
1499893969376173,-7,-5,-35,21,2,-2,5,10
1499893969376173,-2,11,19,34,14,6,8,12
1499893969378174,1,-8,-8,-32,-11,-4,-6,41
1499893969378174,-33,-4,-9,13,-2,-2,-4,-35
1499893969391172,-15,4,18,46,2,2,5,64
1499893969391172,14,-6,-7,-30,-7,-5,-7,-27
1499893969393174,-12,3,4,10,2,-1,-2,-45
1499893969393174,6,-4,-15,-5,3,3,4,-14
1499893969413175,7,0,-6,84,9,4,2,69
1499893969413175,-1,6,2,-98,-4,-2,-7,5
1499893969415175,3,-7,20,48,-4,-4,-3,-54
1499893969415175,6,-1,-25,-37,6,2,3,19
1499893969436176,7,7,5,48,4,-2,-3,-36
1499893969436176,7,-20,-15,-13,-7,-4,-4,25
1499893969438178,10,18,4,13,7,2,0,17
1499893969438178,21,1,9,-2,0,1,4,38
1499893969451174,20,1,-1,16,5,-1,-2,23
1499893969451174,-30,-12,-1,70,-6,-6,-14,-49
1499893969453176,4,-1,-3,-115,-16,-3,-7,11
1499893969453176,4,-2,12,28,-2,-3,-2,6
1499893969473178,-13,-4,7,-34,-7,-5,-5,-46
1499893969473178,16,0,12,47,7,4,2,-8
1499893969475177,-50,-4,-12,-14,5,1,3,-31
1499893969475177,16,-1,-15,-30,-11,-3,-2,-2
1499893969495189,-6,-8,-3,27,2,0,-1,-6
1499893969495189,1,14,39,36,-3,-1,5,29
1499893969512193,-4,-4,-30,-42,-3,1,2,-22
1499893969512193,3,0,29,-40,-5,-5,-9,-66
1499893969512193,-11,-11,-54,6,4,4,13,-18
1499893969512193,-5,-9,-25,-1,-1,-4,-6,19
1499893969514179,11,11,20,-24,-3,0,2,-2
1499893969514179,3,-11,-24,58,2,-1,-3,37
1499893969533181,6,-7,9,-22,-6,-6,-2,45
1499893969533181,17,6,28,7,6,1,1,-4
1499893969535181,9,-7,-11,-14,0,-3,-2,0
1499893969535181,14,-1,-15,-28,-13,-5,-5,-20
1499893969556182,13,7,12,-53,-3,2,5,-35
1499893969556182,-15,2,-15,62,7,0,0,-24
1499893969558182,-9,-1,-7,-63,-8,-2,-1,-6
1499893969558182,7,-1,25,50,8,2,7,30
1499893969570182,-14,-4,4,8,1,-2,-12,-98
1499893969570182,4,4,-5,-59,-2,3,10,22
1499893969577185,5,1,6,27,0,-3,-2,-11
1499893969577185,-9,9,15,4,3,2,6,-18
1499893969593186,14,0,-16,-64,-1,2,1,89
1499893969593186,-45,-12,-8,39,1,-3,-7,-38
1499893969595192,5,1,-7,-21,-5,-3,9,22
1499893969595192,5,9,-2,-5,1,0,-4,53
1499893969616187,-5,5,61,68,0,-4,-6,-8
1499893969616187,19,-17,-22,-18,-6,5,10,25
1499893969618186,5,-7,-20,-12,0,1,-1,51
1499893969618186,-13,-2,12,92,4,-2,-1,-47
1499893969630188,2,9,-18,-98,-16,-7,-6,-24
1499893969630188,-9,1,-1,-1,-5,-4,-3,13
1499893969637188,15,1,12,27,5,-1,-7,25
1499893969637188,-8,-7,0,-8,-1,0,2,38
1499893969654188,-19,-4,-45,25,5,-1,-5,-45
1499893969654188,6,2,-4,-66,-2,4,5,97
1499893969655189,-2,-7,10,63,-7,-12,-13,-39
1499893969655189,3,2,-8,-99,0,0,-4,-38
1499893969676189,-6,-4,11,61,-4,-2,2,-11
1499893969676189,12,0,0,-38,-5,-7,-14,73
1499893969678189,-1,2,-2,27,9,6,5,-12
1499893969678189,-22,4,29,10,-5,-4,4,-32
1499893969690189,-2,-3,-13,-25,-3,-2,-4,-23
1499893969690189,-10,3,-13,-34,-1,-3,-4,-53
1499893969697190,4,-8,33,58,2,3,7,74
1499893969697190,7,-8,-20,-5,-9,-10,-11,-76
1499893969713191,-11,-1,24,7,3,0,1,44
1499893969713191,-12,2,4,-1,-4,-2,5,-73
1499893969715192,3,4,-26,-47,3,2,2,14
1499893969715192,0,2,13,39,2,4,4,29
1499893969736191,-5,-5,2,-66,-3,1,-2,-11
1499893969736191,-2,-5,-10,24,-5,-5,-6,0
1499893969738194,-3,5,-5,8,5,0,2,-16
1499893969738194,17,-2,-16,-17,4,-1,-16,-11
1499893969750195,-10,-9,-5,-38,-9,-3,-2,6
1499893969750195,4,4,20,11,-7,-2,1,41
1499893969757194,-4,-1,-2,23,-1,-2,-3,-74
1499893969757194,2,2,-20,-27,-4,0,0,36
1499893969773196,6,-8,-17,71,4,2,2,13
1499893969773196,0,-2,-30,-71,-5,0,0,-40
1499893969775194,-6,4,14,-43,-5,1,-3,14
1499893969775194,3,-1,6,12,5,0,4,48
1499893969796196,1,5,4,98,0,0,2,4
1499893969796196,-12,-14,-33,-56,-6,-1,-1,-42
1499893969802197,-20,-4,-20,-32,-1,-1,-4,-41
1499893969802197,-11,5,12,14,1,1,1,-50
1499893969810197,-4,-1,-6,12,4,1,6,19
1499893969810197,13,2,20,26,7,1,-10,-61
1499893969817197,19,2,5,-52,-8,-2,0,27
1499893969817197,-6,-8,-11,28,-3,-3,-3,16
1499893969833198,2,1,27,-17,-2,-3,1,62
1499893969833198,-11,4,-8,42,4,1,2,4
1499893969835198,1,-2,6,-3,2,0,1,12
1499893969835198,1,-1,0,-18,1,2,3,8
1499893969856201,4,6,18,16,6,4,3,6
1499893969856201,-24,-6,-15,53,-3,-4,-10,21
1499893969858206,-10,3,11,-24,-10,-5,-1,17
1499893969858206,-1,-4,-11,52,-10,-5,5,3
1499893969870198,7,-2,6,-26,-4,-6,-3,8
1499893969870198,4,3,31,15,0,-3,-1,-7
1499893969877202,-1,1,-7,6,12,4,0,-56
1499893969877202,-5,-1,-15,-28,-2,-2,-2,0
1499893969893201,-9,2,1,-19,-6,-3,-5,-10
1499893969893201,13,4,4,6,9,3,10,67
1499893969895202,-7,6,25,15,-6,-1,-1,-40
1499893969895202,12,-11,1,-19,1,-2,-4,-35
1499893969916204,-16,5,-6,-5,6,6,2,-71
1499893969916204,25,-7,21,64,-7,-9,-3,-5
1499893969918202,-10,2,-4,-9,-11,-7,4,-61
1499893969918202,-11,1,4,12,2,4,-8,-1
1499893969930204,-7,-1,-7,-28,4,2,3,-43
1499893969930204,-6,2,-3,-13,0,0,0,5
1499893969939205,13,-5,-5,30,6,2,0,37
1499893969939205,9,2,2,-9,-3,-2,2,50
1499893969953205,4,1,-9,7,-3,-1,-6,-2
1499893969953205,6,-3,-16,-34,-1,0,0,6
1499893969955205,7,2,8,43,5,-1,-2,3
1499893969955205,1,0,-3,-31,0,0,3,22
1499893969976207,3,-3,-22,-32,1,-3,1,32
1499893969976207,7,-7,-9,-43,-12,-8,-8,60
1499893969978207,8,7,4,76,9,1,-6,-59
1499893969978207,-20,-14,-16,-24,-5,-1,5,-29
1499893969990207,20,3,2,3,2,2,-1,25
1499893969990207,-2,3,9,0,-2,1,1,8
1499893969999209,3,-8,-25,-11,6,1,-4,45
1499893969999209,-7,16,33,37,10,-2,-13,-12
1499893970013209,-6,-9,-39,-68,-31,-10,-2,13
1499893970013209,-24,-17,-4,41,2,-5,-4,-21
1499893970015209,12,-3,-8,-6,0,3,5,66
1499893970015209,21,6,12,35,0,-2,2,43
1499893970036210,-3,-9,-40,-7,4,3,0,-2
1499893970036210,-1,3,-1,1,-2,-4,-2,23
1499893970038232,-4,0,-1,-11,0,-1,-4,57
1499893970038232,-9,1,-4,-22,5,2,6,-25
1499893970050211,1,-5,26,-2,-12,-5,-7,-37
1499893970050211,-7,-7,1,9,-3,-1,-1,17
1499893970059212,-5,0,-9,-34,2,3,3,14
1499893970059212,2,6,-4,1,1,-1,-2,-12
1499893970073211,-16,6,37,27,3,-4,-1,-45
1499893970073211,13,-9,-22,-15,-8,-1,-1,1
1499893970075212,30,-3,25,-10,-9,-4,5,103
1499893970075212,-14,-1,-15,28,0,2,2,-51
1499893970096213,5,4,22,29,11,4,2,4
1499893970096213,-6,3,-25,7,6,3,6,14
1499893970098213,-5,8,33,2,-3,-3,-6,-74
1499893970098213,-24,-9,-14,-29,-4,4,8,-11
1499893970110218,9,-5,4,-5,3,-3,-4,12
1499893970110218,-5,4,-19,-15,7,1,-2,-90
1499893970119214,-16,-8,-2,32,-9,-4,-3,-36
1499893970119214,7,1,3,-49,-1,-1,-1,18
1499893970133216,-1,6,19,48,3,0,-2,0
1499893970133216,3,1,11,59,3,1,-3,-45
1499893970135215,-11,-2,2,-79,-5,1,6,4
1499893970135215,-23,-7,-15,-3,-13,-8,-11,-51
1499893970156217,-14,1,-5,5,2,-1,-2,1
1499893970156217,15,1,18,-11,-4,-2,17,1
1499893970158217,-4,-2,-19,33,8,1,-3,-2
1499893970158217,26,2,11,14,10,9,12,103
1499893970170216,-21,-13,-5,-80,-25,-10,-15,-56
1499893970170216,-9,-7,-15,21,1,1,-1,-1
1499893970179218,-4,-2,-19,18,3,1,-3,-60
1499893970179218,-5,-1,-3,-60,-8,-4,0,15
1499893970194227,19,3,23,52,6,1,-2,5
1499893970194227,1,1,-5,-47,-3,0,-3,2
1499893970195219,-6,-4,11,42,-7,-7,-3,3
1499893970195219,-3,-4,-17,-64,-5,-3,-10,-23
1499893970216221,23,-9,-44,-16,-8,-7,-2,69
1499893970216221,-8,5,15,3,0,0,-1,-41
1499893970218221,-6,0,-5,-48,9,4,0,-58
1499893970218221,-17,-6,-23,48,-5,-5,-5,40
1499893970230220,-3,-7,24,36,-4,-3,0,2
1499893970230220,-9,2,-3,12,0,-2,-3,-6
1499893970239225,10,-5,-20,21,1,-3,-8,41
1499893970239225,23,3,31,-40,2,3,7,-1
1499893970253222,-14,-2,-32,-23,8,3,2,-46
1499893970253222,-1,-2,18,47,1,-1,-7,-8
1499893970255236,-15,-3,-11,-24,-3,-2,0,-11
1499893970255236,5,4,-1,21,-2,-3,0,16
1499893970276225,26,1,-1,41,10,3,5,7
1499893970276225,0,5,20,2,4,5,1,-10
1499893970278224,3,1,4,-27,-11,-1,2,33
1499893970278224,-2,-8,-15,-14,-12,-10,-5,24
1499893970290229,-5,-1,-5,-21,0,1,-1,9
1499893970290229,-5,2,-18,54,9,5,0,31
1499893970299226,0,-9,5,-37,-7,-2,-3,-3
1499893970299226,-6,-6,4,-2,-9,-8,-8,-67
1499893970313226,4,-1,24,73,-2,-5,-8,-26
1499893970313226,2,1,1,21,-7,-5,-5,10
1499893970315226,-1,5,-8,8,0,-1,0,19
1499893970315226,-3,7,16,44,6,4,-4,11
1499893970336228,-23,-13,-33,-84,-4,-1,6,-30
1499893970336228,7,2,26,32,0,0,-2,41
1499893970338228,-6,-8,-45,-19,-10,-6,0,-23
1499893970338228,8,-10,4,-5,-2,-3,-3,20
1499893970358229,2,12,18,35,9,3,2,60
1499893970358229,-9,-1,10,-59,-6,2,5,-28
1499893970360229,-12,1,2,22,2,0,-5,-15
1499893970360229,-7,2,18,12,-1,0,2,-24
1499893970373229,-6,-11,-33,18,-1,-2,-3,23
1499893970373229,-1,3,15,-60,-3,0,2,24
1499893970381230,0,0,-6,23,5,2,1,-10
1499893970381230,0,3,24,77,7,4,1,-27
1499893970396231,-6,5,27,-109,-4,-1,-9,9
1499893970396231,-4,-19,-52,2,-11,-9,-7,-3
1499893970398231,-7,-6,11,91,-5,-4,-4,-27
1499893970398231,7,1,-3,-49,1,-1,-1,86
1499893970418232,0,6,-4,-4,2,3,6,45
1499893970418232,10,6,-1,3,3,1,3,14
1499893970420232,0,-6,-4,-3,-2,-2,-2,38
1499893970420232,0,4,18,1,2,0,14,15
1499893970433235,-1,0,-35,-22,0,2,-3,-19
1499893970433235,0,-21,-3,-24,-27,-11,-9,-16
1499893970435234,3,1,13,4,5,-2,-1,-15
1499893970435234,3,13,-17,12,1,0,1,-9
1499893970456233,-8,9,22,38,4,0,1,-67
1499893970456233,1,1,-2,-24,5,1,2,-12
1499893970458234,1,2,6,16,4,3,2,-2
1499893970458234,-1,-4,-19,-54,2,4,-3,-27
1499893970479234,-12,-14,-22,-26,-18,-7,-6,-103
1499893970479234,14,11,26,-36,6,2,2,92
1499893970480235,-3,-7,-10,18,2,2,0,14
1499893970480235,-8,-3,-16,19,-6,-4,-3,-16
1499893970493238,7,-2,2,44,5,0,0,19
1499893970493238,0,0,6,-85,-4,-2,-2,0
1499893970495237,7,8,-1,-5,2,0,0,-4
1499893970495237,10,0,7,57,4,3,0,25
1499893970523238,3,-8,-46,-67,-8,-3,-3,5
1499893970523238,-3,9,26,84,14,4,0,-22
1499893970525238,-8,-9,-17,-72,-16,-7,-2,-44
1499893970525238,-5,-2,2,-27,-1,0,-9,-20
1499893970538239,0,-6,-5,40,4,-3,7,15
1499893970538239,-10,5,-6,24,6,2,1,-1
1499893970540239,6,-3,-1,-6,4,2,2,45
1499893970540239,-4,-9,0,0,-4,-3,-4,-7
1499893970553239,0,3,6,16,-8,-2,-1,-4
1499893970553239,0,2,-2,12,5,1,2,15
1499893970560240,6,-2,7,2,-5,-4,2,69
1499893970560240,-16,-5,-6,-59,-4,-4,-1,-16
1499893970576240,1,1,11,17,1,-2,-3,22
1499893970576240,-2,-6,-18,-5,-1,-3,-6,-45
1499893970578240,-3,6,15,-19,-1,2,-1,3
1499893970578240,3,-2,4,48,4,1,-6,-81
1499893970598241,-2,-4,-4,35,-4,-4,-7,14
1499893970598241,-1,5,10,-71,-17,-6,-2,13
1499893970600242,-4,1,3,-22,5,1,-3,-34
1499893970600242,-9,-13,-21,29,3,-1,2,-8
1499893970613244,13,1,51,20,1,1,0,7
1499893970613244,3,-6,-29,22,1,1,-2,-21
1499893970620243,-15,10,22,26,4,1,0,-27
1499893970620243,17,3,-8,-37,1,3,0,-1
1499893970636245,23,-5,11,26,-14,-10,-4,60
1499893970636245,-33,2,8,-55,-2,-2,-7,-76
1499893970638244,6,8,6,13,4,4,2,11
1499893970638244,-8,0,-7,4,-2,-3,-2,13
1499893970658248,-2,3,-1,6,8,5,2,-10
1499893970658248,4,-5,-1,7,-5,0,0,15
1499893970660247,1,2,1,6,1,1,-2,-2
1499893970660247,-2,-4,-18,21,1,0,2,0
1499893970673247,-3,2,-13,-38,-3,-4,-2,-12
1499893970673247,3,-8,-17,-14,-11,-6,-2,36
1499893970680248,-3,-5,-3,10,4,-2,-2,-17
1499893970680248,5,4,9,7,0,-1,0,31
1499893970696253,1,3,12,-8,3,2,0,-4
1499893970696253,-10,-4,-10,25,8,2,2,-21
1499893970698248,16,-2,-17,1,0,-2,-5,-46
1499893970698248,-12,0,35,18,-5,-4,-2,-48
1499893970718249,-7,-7,-39,-75,1,2,0,-3
1499893970718249,11,6,39,63,2,-2,-1,5
1499893970720250,7,-11,-26,5,-3,-2,-1,39
1499893970720250,10,5,7,-28,-1,-1,1,14
1499893970741252,-13,9,18,36,3,4,4,-33
1499893970741252,2,-2,9,33,7,2,0,16
1499893970743251,-5,-7,-6,-39,-4,0,-1,6
1499893970743251,0,0,3,15,0,-3,-6,-20
1499893970756252,-18,-7,-10,7,-4,-2,0,63
1499893970756252,1,-1,-28,2,-1,2,0,3
1499893970758251,-5,-3,21,36,5,2,6,22
1499893970758251,-17,-8,17,-43,-6,-5,-3,0
1499893970778254,2,-3,-15,62,0,-2,0,20
1499893970778254,21,11,2,-34,3,3,0,12
1499893970780253,-8,-5,-12,-30,-8,-2,-5,-14
1499893970780253,-1,-5,-22,7,-4,-1,3,19
1499893970793258,1,0,14,7,5,-1,-1,-2
1499893970793258,-1,-10,-10,-26,-1,-2,1,11
1499893970800254,1,2,2,38,-2,-2,-3,-35
1499893970800254,10,9,-2,-18,0,0,2,30
1499893970816256,-1,-8,7,39,0,-1,-3,-30
1499893970816256,-7,-2,-18,9,-1,0,-2,18
1499893970817256,-10,-10,-12,-43,-8,-4,-8,41
1499893970817256,-4,-9,-21,-12,-5,-5,-15,-46
1499893970838255,16,13,31,29,7,5,8,-7
1499893970838255,-10,-1,10,61,-3,-4,-4,-19
1499893970840256,6,4,-11,-1,-1,0,3,9
1499893970840256,13,7,-11,-69,4,7,5,36
1499893970852257,-14,-7,9,30,-3,-5,-5,-15
1499893970852257,1,-7,-11,-16,-6,-3,-3,-4
1499893970861262,3,3,-8,-17,-4,-4,0,-15
1499893970861262,7,14,22,51,3,1,5,19
1499893970876258,9,-11,1,-19,-6,0,1,84
1499893970876258,-8,-8,-41,-66,-5,-1,0,-42
1499893970877260,4,7,19,46,1,0,3,15
1499893970877260,-1,-6,-7,-48,-5,-2,-1,-19
1499893970898259,-5,11,-9,-22,-1,1,0,-8
1499893970898259,27,6,41,23,0,0,4,9
1499893970900260,-8,-8,4,-16,-7,-3,-3,34
1499893970900260,-6,1,-4,12,1,-3,-1,-48
1499893970912261,3,-7,-15,-8,-1,-2,-4,-26
1499893970912261,-5,-3,-5,9,10,2,4,-3
1499893970921261,8,5,-1,-11,2,5,6,11
1499893970921261,-24,-6,-8,-16,-2,-3,-1,-14
1499893970936263,-5,1,-6,-37,-2,-1,0,-30
1499893970936263,-6,10,11,31,4,1,1,-9
1499893970937263,-5,-17,-13,17,-9,-7,-5,21
1499893970937263,4,1,-3,54,6,2,0,41
1499893970958264,-1,0,2,-26,-5,-3,0,-21
1499893970958264,-6,2,15,-44,-2,-1,-2,16
1499893970960267,0,-1,-17,-20,-1,-1,-2,-11
1499893970960267,6,-11,-14,19,0,0,0,19
1499893970972265,3,4,13,5,1,2,-1,-15
1499893970972265,-8,-8,-21,-18,-12,-6,-3,7
1499893970981264,-8,-3,-6,8,-2,-5,-4,-25
1499893970981264,1,-6,5,3,-3,2,1,10
1499893970996277,10,11,15,13,9,2,0,37
1499893970996277,-15,-8,-26,6,1,-2,-4,-32
1499893970997268,-2,-1,11,-18,-2,-2,-5,-27
1499893970997268,21,2,6,42,1,-1,-2,47
1499893971018266,-9,-5,-12,-66,-4,1,-1,33
1499893971018266,9,5,11,11,2,2,5,19
1499893971020266,-16,4,5,-8,0,-1,0,-43
1499893971020266,-5,-1,-1,55,0,-3,1,2
1499893971032267,1,1,12,26,3,2,0,-15
1499893971032267,3,-13,-24,-104,-11,-3,-3,-12
1499893971041269,1,10,21,56,5,3,-2,16
1499893971041269,-3,-3,-12,-3,0,-1,1,-28
1499893971056269,-2,-5,-31,4,-3,-3,-6,-29
1499893971056269,-1,5,46,32,2,-1,-1,-15
1499893971058269,7,-2,-24,-39,5,0,-1,-18
1499893971058269,0,-3,11,-6,-20,-9,-4,-20
1499893971078269,-6,-4,-8,34,1,-5,-2,-20
1499893971078269,2,6,19,-11,2,1,-1,13
1499893971080271,2,1,-8,-25,1,2,4,10
1499893971080271,-5,-8,-8,25,7,3,0,20
1499893971092271,8,0,-11,-80,-5,-2,1,-27
1499893971092271,-20,-3,22,79,-8,-7,-7,-29
1499893971101271,13,7,2,9,2,1,4,4
1499893971101271,-5,4,-2,10,-1,-3,-4,-26
1499893971116271,-5,1,5,-16,-3,1,0,14
1499893971116271,5,6,5,20,6,0,0,27
1499893971117273,-13,-6,-21,-27,0,1,-1,-16
1499893971117273,-2,3,18,-16,-5,0,-3,-19
1499893971138275,-6,-6,-8,5,-8,-2,0,25
1499893971138275,-14,-5,-21,10,5,-2,-5,-16
1499893971140274,-1,-5,-2,-12,-8,-6,-5,9
1499893971140274,0,-2,-8,0,5,2,0,11
1499893971152275,0,1,11,1,-1,0,0,-16
1499893971152275,5,0,-6,-45,-7,-2,-1,27
1499893971161275,6,-4,18,42,2,-2,-4,27
1499893971161275,-13,2,-26,10,3,0,-1,-58
1499893971176277,0,7,24,-17,1,0,2,-8
1499893971176277,9,-6,0,-20,-9,-2,-2,-2
1499893971178276,-2,-10,-6,-14,-1,-3,-4,5
1499893971178276,0,0,-2,-27,-2,1,2,-12
1499893971198280,-5,3,11,28,0,-3,-3,7
1499893971198280,-6,2,-6,67,12,3,2,2
1499893971200277,-2,3,20,-89,-1,-1,1,-9
1499893971200277,-12,-6,2,21,-13,-5,-4,-2
1499893971212278,-5,-5,-16,-45,-6,-4,-2,19
1499893971212278,14,1,3,-7,0,1,0,18
1499893971221278,-19,2,3,42,4,1,1,-23
1499893971221278,13,-1,4,-23,5,2,1,71
1499893971236280,-5,-6,-18,4,1,0,0,-11
1499893971236280,-8,-2,-3,-5,1,-2,0,-4
1499893971237281,-22,3,2,53,-1,-5,-12,-16
1499893971237281,12,-4,-10,-27,-14,-7,-4,45
1499893971259282,-2,-6,9,62,1,1,1,-35
1499893971259282,-5,2,7,-17,3,1,3,-27
1499893971261281,5,-2,14,44,3,2,3,13
1499893971261281,-2,2,-6,-41,-4,1,1,-7
1499893971272281,1,-18,-30,-30,-6,-4,-4,12
1499893971272281,12,-1,3,-8,0,1,2,18
1499893971281282,-3,7,-4,14,-1,-1,-1,-40
1499893971281282,1,0,24,62,10,-2,-2,-26
1499893971296284,-2,-9,-15,-64,-14,-4,-4,0
1499893971296284,0,3,12,-7,-7,-2,-2,3
1499893971297282,13,-4,-24,-28,-2,1,4,7
1499893971297282,2,-3,1,-11,4,-1,0,-7
1499893971318284,-11,9,25,81,9,5,1,-23
1499893971318284,-9,-8,-25,-36,-9,-4,-5,-21
1499893971320284,4,3,-1,-18,-6,-3,-4,17
1499893971320284,-14,1,2,49,10,4,-3,-43
1499893971341286,13,-5,-21,-67,-4,-3,-7,19
1499893971341286,-4,4,-5,11,3,1,2,-33
1499893971342286,4,-7,7,20,0,-1,0,25
1499893971342286,0,-9,-12,-35,-11,-6,-7,-57
1499893971356286,2,6,6,0,6,3,2,-12
1499893971356286,-5,-1,-14,-3,2,-2,-2,-3
1499893971357287,-5,-6,-25,12,-1,-1,11,3
1499893971357287,6,5,26,-16,7,3,0,17
1499893971378287,7,-1,-23,22,-6,-4,-2,2
1499893971378287,-1,-10,-3,24,-10,-7,-7,-8
1499893971380288,16,9,9,14,3,3,4,40
1499893971380288,2,-2,9,-20,-6,-1,-1,34
1499893971401288,7,2,15,-5,8,3,5,11
1499893971401288,-12,-2,-11,77,2,-1,2,12
1499893971402289,-6,-9,-14,-112,-15,-6,-11,-50
1499893971402289,-4,-3,-13,21,0,-3,2,3
1499893971423290,1,1,1,-37,-1,1,-5,-11
1499893971423290,2,-6,-3,-8,-2,-4,-1,5
1499893971425291,-6,3,14,14,-1,0,-1,-5
1499893971425291,-3,-1,-1,8,0,0,1,9
1499893971438292,0,5,14,29,4,2,2,-12
1499893971438292,-2,-2,-11,-41,-10,0,-2,-9
1499893971440291,-2,-6,-5,-9,-2,-2,-1,6
1499893971440291,-2,1,0,-10,-1,0,0,12
1499893971461294,0,-1,-4,27,-5,-3,0,9
1499893971461294,7,10,20,-22,8,6,3,24
1499893971462301,-3,0,-11,34,4,-2,-2,-4
1499893971462301,0,0,9,-13,-5,2,-1,-10
1499893971475292,-3,1,-8,15,6,2,21,31
1499893971475292,-3,-22,-13,-1,-11,-9,-8,6
1499893971482292,4,3,13,6,2,0,-2,-5
1499893971482292,-3,2,-18,-26,2,2,4,29
1499893971498293,-1,1,3,-21,-3,-2,-8,-22
1499893971498293,-1,4,-2,67,3,0,-2,-4
1499893971500295,0,-7,-14,-18,0,0,4,16
1499893971500295,-1,7,10,11,-1,-2,-3,-5
1499893971521297,3,4,42,-5,-2,0,-2,35
1499893971521297,-11,-13,-63,-22,-2,-1,-2,-21
1499893971522295,1,0,10,5,-2,-4,-4,-7
1499893971522295,16,4,-1,27,1,4,2,-1
1499893971535298,-10,1,0,-4,0,2,-4,-38
1499893971535298,-2,-7,10,-68,-13,-9,-6,-8
1499893971542298,6,3,3,36,4,0,1,9
1499893971542298,-10,-6,-11,-21,0,-3,-6,4
1499893971558299,5,0,-3,36,-1,-1,-3,78
1499893971558299,6,-1,4,-15,1,4,2,-19
1499893971560298,-10,1,9,17,-2,-4,-6,11
1499893971560298,4,-6,-11,-28,-9,-5,-3,2
1499893971581300,-2,-1,-5,1,-1,-3,-2,4
1499893971581300,15,9,6,6,8,5,5,9
1499893971582299,-8,-6,1,-58,-4,-3,-6,-6
1499893971582299,-10,3,4,13,0,-1,2,-33
1499893971595307,8,-2,-19,-26,-4,-3,-1,-35
1499893971595307,-9,6,15,39,4,-1,-2,6
1499893971602300,0,-3,-9,5,1,3,4,-16
1499893971602300,10,-5,-32,-37,-7,-3,4,79
1499893971618302,-17,-9,-8,-1,-2,-3,-3,-41
1499893971618302,3,7,5,49,6,2,0,-7
1499893971620302,8,3,9,-54,2,3,-1,31
1499893971620302,-8,1,26,25,-2,-3,-1,-14
1499893971641302,-8,-9,-4,-30,-2,-4,-1,14
1499893971641302,15,5,9,43,-4,-2,12,12
1499893971642303,1,4,5,17,1,5,-2,6
1499893971642303,-7,1,19,6,3,1,-4,-47
1499893971655314,-1,-4,-42,-34,-3,-2,-2,-14
1499893971655314,0,-6,9,-16,-7,-4,-1,27
1499893971662306,-12,1,2,31,0,3,1,-37
1499893971662306,-1,1,-16,-76,-8,-2,-1,3
1499893971678305,-11,-1,12,38,9,0,-5,-40
1499893971678305,4,-6,-3,-12,-1,1,-4,-53
1499893971680305,12,-7,-17,-9,-11,-6,-1,7
1499893971680305,-4,2,8,40,4,1,0,-5
1499893971701305,3,9,12,3,-1,0,3,-13
1499893971701305,-10,-10,-28,-63,-2,-4,-5,19
1499893971702307,-2,-2,13,-10,-9,-3,1,29
1499893971702307,8,3,-2,39,12,1,-2,2
1499893971715307,3,-3,0,-17,-8,-3,-1,6
1499893971715307,-12,-7,-1,-12,-1,-2,-2,-1
1499893971722307,0,4,2,27,4,0,-2,1
1499893971722307,0,-8,-16,-44,-7,-2,-7,20
1499893971738309,-1,7,6,57,3,2,-4,-25
1499893971738309,4,4,12,-52,-2,2,-1,23
1499893971740309,11,4,27,37,4,-1,2,9
1499893971740309,0,-3,-3,17,-10,-5,-6,-1
1499893971761310,0,0,-1,19,5,0,0,0
1499893971761310,-2,6,19,-24,1,0,3,-1
1499893971762312,-3,-2,-30,13,0,0,-2,20
1499893971762312,-4,-6,5,11,1,-3,-4,-91
1499893971775310,-1,-9,-2,-10,1,-1,1,14
1499893971775310,-5,-1,-9,25,-3,0,-4,-5
1499893971782311,2,-12,-43,-87,-11,-5,-1,-5
1499893971782311,-9,2,0,50,1,-1,-3,-13
1499893971798312,-18,2,10,-28,-5,-2,10,-12
1499893971798312,12,9,6,28,9,4,0,-17
1499893971800312,-6,-2,8,-4,-4,-1,-4,17
1499893971800312,-8,-10,-10,-14,-3,-4,-3,-1
1499893971821313,-4,-2,-19,21,-2,-1,-2,9
1499893971821313,2,7,21,-38,-1,0,2,44
1499893971823319,-9,-3,-15,-8,0,3,4,-21
1499893971823319,0,1,11,-20,1,0,0,-34
1499893971834313,3,-3,7,20,-7,-3,-5,16
1499893971834313,1,-2,-12,-6,2,-1,0,28
1499893971844315,-7,-5,-4,-6,-4,-2,-3,-45
1499893971844315,2,4,6,36,3,1,2,31
1499893971858315,9,5,-4,-79,1,2,0,-1
1499893971858315,0,-10,-12,21,-7,-3,-1,17
1499893971860316,-6,7,21,25,0,-4,-2,1
1499893971860316,-11,-16,-47,-10,-2,2,10,6
1499893971881316,9,2,22,7,0,-3,-9,16
1499893971881316,7,4,2,6,2,-1,1,12
1499893971882317,-2,5,3,29,6,3,4,-44
1499893971882317,-4,-7,11,-32,-3,-2,-1,-6
1499893971894322,-5,-6,-8,0,-12,-6,-5,-18
1499893971894322,-11,-1,-9,-6,-5,-4,-4,-15
1499893971903317,7,6,25,43,2,0,-3,2
1499893971903317,5,-1,-7,15,3,-1,-2,-27
1499893971918317,-6,-5,-8,-37,-4,0,0,-12
1499893971918317,-2,0,17,54,3,-1,-6,-41
1499893971920319,-6,-2,-9,-15,-1,-1,-1,9
1499893971920319,12,12,32,30,1,4,1,26
1499893971941322,1,-1,4,12,-2,-3,-2,7
1499893971941322,-14,-5,-11,-89,-9,-2,0,-23
1499893971942320,5,-4,-12,6,2,-2,-2,9
1499893971942320,-4,-6,-8,-23,-4,-3,-2,22
1499893971955332,0,-2,-17,38,2,-2,-2,-7
1499893971955332,-1,8,17,12,8,3,2,31
1499893971963327,-1,-4,-4,19,1,0,7,-15
1499893971963327,5,-7,-23,14,-3,-5,-9,29
1499893971978322,13,3,19,4,5,5,2,6
1499893971978322,-21,-5,-13,-56,-8,-4,0,-17
1499893971980322,-4,3,0,11,2,0,0,-3
1499893971980322,3,7,8,-7,2,1,5,57
1499893972001323,0,4,13,24,5,1,3,-5
1499893972001323,6,-6,-6,3,0,-1,-6,11
1499893972002324,-9,-7,-21,2,-7,-3,-3,-16
1499893972002324,-7,3,15,54,2,-3,-6,-48
1499893972014326,-8,-15,-9,-74,-5,-3,-4,0
1499893972014326,21,2,7,23,1,1,3,-20
1499893972023325,4,6,17,22,5,1,-3,16
1499893972023325,-11,3,-6,-80,-2,2,3,-21
1499893972038328,-5,1,-11,30,0,-2,-1,-6
1499893972038328,-7,-6,-15,21,4,0,-2,-5
1499893972040326,-1,-3,17,9,5,1,0,-26
1499893972040326,9,7,-2,-61,-5,-2,1,35
1499893972061329,-1,-1,-10,13,-4,-1,3,9
1499893972061329,1,-5,1,32,-4,-3,-10,-14
1499893972062329,-4,3,7,9,2,3,3,24
1499893972062329,-9,-2,-15,-33,1,0,-1,12
1499893972074329,3,3,14,43,0,-2,-2,8
1499893972074329,-8,-1,-7,-14,-7,-8,0,20
1499893972083329,12,-4,-3,-18,-2,1,-3,-4
1499893972083329,-2,-3,14,16,0,0,-1,-20
1499893972098328,-1,3,-6,34,6,1,1,6
1499893972098328,-2,0,-2,-67,-5,2,0,-3
1499893972100329,-7,-3,-10,-25,-4,-6,-5,-3
1499893972100329,3,0,8,26,1,1,3,7
1499893972128331,1,-7,-12,25,2,2,1,-4
1499893972128331,-37,9,20,43,9,1,0,-44
1499893972130331,-2,-9,-28,-48,-15,-7,-3,11
1499893972130331,6,-5,14,13,-1,3,1,8
1499893972134332,-17,-9,-10,4,2,-4,-4,-32
1499893972134332,10,4,0,58,1,1,2,4
