timestamp,emg1,emg2,emg3,emg4,emg5,emg6,emg7,emg8
1499894051230581,3,-8,-10,3,-8,-7,-3,-1
1499894051230581,12,7,-2,30,11,4,2,-3
1499894051231580,-17,-2,8,7,-4,1,1,-1
1499894051231580,-2,-7,5,20,5,3,-4,-20
1499894051244580,28,4,0,9,-2,-2,-3,10
1499894051244580,7,0,-10,-46,-4,0,7,-5
1499894051251582,-2,5,-19,-4,4,3,0,0
1499894051251582,-3,1,13,10,-2,-2,-1,-5
1499894051267583,12,1,1,8,-5,-4,-2,9
1499894051267583,-16,-13,-3,-31,-8,-4,-7,-16
1499894051269582,18,3,1,3,3,-1,-6,16
1499894051269582,-17,-3,-7,-4,-2,-2,22,-1
1499894051290584,17,-2,-21,-58,-6,-1,-17,-3
1499894051290584,13,5,5,38,5,3,0,3
1499894051291591,-6,4,-1,-29,5,7,16,9
1499894051291591,20,-7,-10,45,-6,-11,-8,25
1499894051304586,-42,-6,28,59,-6,-5,-6,-7
1499894051304586,7,4,-15,-18,6,2,2,-5
1499894051311584,1,-6,22,-55,-15,-7,-11,-1
1499894051311584,-10,2,-3,22,4,3,-1,-2
1499894051328590,1,3,-7,-16,5,6,6,-1
1499894051328590,-5,-2,-2,23,-1,-1,-7,27
1499894051329585,-10,4,0,27,4,0,8,-60
1499894051329585,-9,-8,-14,-38,-8,-7,-11,17
1499894051350588,0,0,2,22,-1,-2,4,-2
1499894051350588,-8,-3,-8,15,9,4,2,-8
1499894051351588,40,-1,10,43,-9,-6,-8,36
1499894051351588,-9,-9,-27,-91,-13,-4,2,-10
1499894051364587,-13,-1,31,66,7,2,7,61
1499894051364587,25,0,-5,-19,-4,-1,-3,0
1499894051372587,-3,5,1,21,6,-1,0,-1
1499894051372587,6,-3,-5,-23,-1,-2,-3,-28
1499894051387588,-10,3,14,103,8,2,-21,9
1499894051387588,-6,-12,-33,-87,-20,-7,34,5
1499894051389589,-19,-11,-9,45,3,-1,-20,75
1499894051389589,8,9,14,-27,0,2,-3,-100
1499894051410590,-4,-1,-8,-99,-8,0,28,18
1499894051410590,-29,-10,-33,88,-6,-1,-13,-4
1499894051411589,-17,-5,14,3,-1,-3,-13,71
1499894051411589,25,0,-9,-26,-2,-4,10,-25
1499894051423592,4,11,-4,-67,2,4,18,55
1499894051423592,6,-1,26,22,-1,-5,-13,-29
1499894051432592,-16,-6,-5,-127,-6,-4,-15,-86
1499894051432592,-17,16,34,87,11,6,10,28
1499894051447592,67,-16,-44,62,1,1,4,-15
1499894051447592,-29,3,-8,-59,3,1,5,47
1499894051449599,-9,-5,-10,3,-3,0,-8,-65
1499894051449599,-32,-11,14,29,2,-5,-12,-35
1499894051470594,-1,5,-29,-126,-5,-2,7,-99
1499894051470594,-28,13,40,29,6,0,1,-7
1499894051471593,5,1,12,20,6,3,7,3
1499894051471593,-9,-10,-9,69,-14,-6,-13,80
1499894051485593,2,-11,-9,-56,-2,-1,-24,49
1499894051485593,1,-12,-21,53,5,1,22,-16
1499894051492595,45,36,6,-51,18,9,1,-104
1499894051492595,-19,-14,22,79,-8,-4,1,78
1499894051507612,-6,8,1,-10,-2,-6,-18,0
1499894051507612,-23,-8,29,89,-6,-7,-4,-23
1499894051509596,8,-10,-1,-46,-8,-2,10,38
1499894051509596,-18,8,-21,-54,11,9,0,1
1499894051530600,-20,-9,-7,71,-3,-5,-4,-28
1499894051530600,8,11,22,-124,-7,-2,-6,-54
1499894051531597,16,-13,-24,124,-7,-3,6,112
1499894051531597,-19,16,24,27,12,1,0,-13
1499894051543597,-39,-17,-26,72,-3,-4,11,-18
1499894051543597,62,3,-23,-103,-1,-3,-40,-85
1499894051552599,-76,-17,7,53,-10,-6,33,-45
1499894051552599,-35,6,6,4,-2,2,3,13
1499894051567601,31,3,-4,-60,-1,2,3,30
1499894051567601,18,5,9,-25,0,-2,4,10
1499894051574611,14,2,-38,8,-1,1,-7,14
1499894051574611,4,-12,4,-10,-2,-7,-7,-29
1499894051590615,-30,3,28,18,-1,3,6,-22
1499894051590615,18,1,-16,28,12,3,-1,90
1499894051591600,30,7,19,-25,-5,-2,-9,30
1499894051591600,-20,-12,-1,1,-5,1,2,-20
1499894051603600,-10,3,-8,58,14,2,-11,-33
1499894051603600,-1,0,-6,-19,-13,0,3,61
1499894051612617,-23,-9,14,67,1,-10,-5,40
1499894051612617,58,-5,-47,-116,-9,-3,-13,76
1499894051627604,-10,-3,35,82,-3,-3,4,-71
1499894051627604,37,-1,-15,9,4,5,-2,-8
1499894051629602,13,9,5,25,7,2,10,-8
1499894051629602,-3,9,34,80,9,2,-5,-37
1499894051650603,37,-7,-50,-128,-11,-1,4,86
1499894051650603,-13,11,40,-29,4,-1,-2,61
1499894051651603,34,-18,-37,9,-19,-8,-4,84
1499894051651603,-34,-12,17,-27,5,-3,0,-12
1499894051663607,-10,12,18,-29,6,5,8,-18
1499894051663607,-16,-8,-17,34,-5,-1,5,65
1499894051672604,-31,1,22,-21,-2,-5,-11,-25
1499894051672604,21,8,-1,-42,4,7,7,-4
1499894051687607,-10,-3,-7,109,0,-4,-5,5
1499894051687607,-11,-4,-9,-3,-1,-2,-10,-36
1499894051689606,-46,-1,-24,-121,-1,2,-4,-50
1499894051689606,39,0,-48,-11,-12,-7,-1,-61
1499894051709607,0,-1,72,84,-7,-5,4,-7
1499894051709607,19,0,14,62,4,-3,-3,5
1499894051710607,-30,0,-24,-27,0,0,1,-65
1499894051710607,-47,-2,-23,-24,5,2,-6,-40
1499894051731610,11,-4,-28,-43,0,6,4,-43
1499894051731610,-2,2,13,75,-4,-2,0,-7
1499894051732608,6,-1,-1,-42,-2,1,1,38
1499894051732608,20,4,-10,-43,-8,-2,-1,32
1499894051746609,2,-4,-10,-85,-8,-6,-8,10
1499894051746609,-10,0,16,42,7,2,10,51
1499894051747609,6,4,16,66,11,4,-1,-82
1499894051747609,37,5,-7,4,-5,1,16,81
1499894051769610,2,-9,-7,84,9,-1,-11,7
1499894051769610,-4,-5,-4,-55,-11,-5,-7,-22
1499894051770611,16,12,26,31,-3,5,7,-39
1499894051770611,-28,-25,-5,114,-2,-8,-4,-23
1499894051792611,-8,2,9,-68,-3,1,-4,20
1499894051792611,-30,9,14,25,15,8,17,-25
1499894051793612,43,10,-19,-37,-10,-2,0,65
1499894051793612,-16,-26,-26,98,2,-5,-10,-36
1499894051807617,-10,15,25,-40,5,1,1,-24
1499894051807617,1,-11,14,-81,-14,-7,-9,-10
1499894051808612,-8,-2,-3,-8,1,3,4,33
1499894051808612,34,17,26,-33,4,6,-1,25
1499894051829614,8,-2,-7,60,2,-1,0,-2
1499894051829614,-9,-6,-11,-47,-5,-3,-6,50
1499894051830614,27,0,13,-24,1,2,3,-10
1499894051830614,-10,2,2,-8,0,-4,-2,-63
1499894051851614,-10,6,4,7,10,4,2,-51
1499894051851614,-8,-6,-14,38,-15,1,-1,-31
1499894051852617,11,-11,-23,-21,-8,-8,-10,45
1499894051852617,9,9,24,-22,3,1,-8,37
1499894051867615,-23,4,-2,65,1,-2,15,-42
1499894051867615,5,2,30,-36,-12,-11,-13,-19
1499894051867615,-13,-13,-31,24,1,-4,-6,-28
1499894051867615,2,-7,-30,64,0,3,7,23
1499894051889618,-5,12,16,-125,-1,4,-2,29
1499894051889618,5,0,-3,106,9,3,3,-20
1499894051890618,-10,-4,53,64,-1,-7,-12,-68
1499894051890618,27,2,-28,-98,-3,1,2,62
1499894051912620,13,-8,-27,40,1,-1,-3,38
1499894051912620,19,-2,-18,-6,1,-2,3,20
1499894051913620,-7,0,6,-15,2,2,-1,19
1499894051913620,0,10,20,24,6,-1,0,-14
1499894051926622,1,-10,-30,-75,-22,-2,-4,48
1499894051926622,-1,-14,-17,-35,-7,-7,3,-10
1499894051927621,-7,9,0,-7,3,1,-1,-48
1499894051927621,-13,2,37,52,4,2,3,15
1499894051949621,8,-19,-6,24,-9,-9,-4,35
1499894051949621,-4,6,-23,-59,-2,2,-2,6
1499894051950621,-14,0,6,21,8,6,6,-9
1499894051950621,-6,0,3,-29,-9,-5,-4,-34
1499894051971622,0,7,16,2,-3,-1,-2,-7
1499894051971622,15,-2,-11,35,15,3,-2,-10
1499894051972624,-25,-5,-29,5,-5,-3,3,62
1499894051972624,-13,4,21,59,3,3,-1,0
1499894051986623,5,-11,-45,-68,-21,-16,-17,-28
1499894051986623,-16,-2,6,93,2,-1,9,-58
1499894051987622,17,4,-11,12,0,3,-2,47
1499894051987622,-4,5,49,-37,2,3,2,-21
1499894052009625,-25,-4,-23,28,7,3,3,-2
1499894052009625,-25,-5,41,2,0,-3,-7,-24
1499894052010631,0,-4,-19,-23,-9,-7,0,-47
1499894052010631,10,-7,-29,-25,-1,1,4,-12
1499894052031626,11,1,38,37,3,-1,0,20
1499894052031626,21,7,-5,-40,-2,0,-7,-6
1499894052032625,-30,-1,6,-5,3,3,1,-26
1499894052032625,18,-1,-5,22,-11,-7,-8,6
1499894052047628,7,6,14,3,5,6,-5,-17
1499894052047628,6,3,-27,-11,3,3,0,16
1499894052047628,3,-2,22,59,5,-2,-2,-23
1499894052047628,-23,-7,-38,-48,-6,-4,2,2
1499894052069629,19,-1,-11,27,-10,-3,0,32
1499894052069629,-12,-2,-17,13,7,-2,-4,-15
1499894052070628,-6,-4,-5,-47,-5,-1,1,18
1499894052070628,13,6,-2,-78,0,-3,-4,38
1499894052091641,-7,-1,8,127,15,3,4,4
1499894052091641,-10,-1,13,-120,-9,1,-3,12
1499894052092630,12,-10,-10,21,-10,-6,0,10
1499894052092630,-26,-3,-4,-14,-1,0,-6,6
1499894052107634,19,3,17,-41,3,1,-1,-6
1499894052107634,11,4,-4,87,4,-2,-4,39
1499894052107634,-9,0,12,-7,3,-1,4,19
1499894052107634,21,0,0,11,1,2,-1,-27
1499894052129632,-9,-4,5,-38,-6,-4,-3,-14
1499894052129632,1,2,-15,-23,-2,-1,0,-14
1499894052130631,10,2,-2,1,1,1,2,45
1499894052130631,11,4,13,19,6,5,3,-19
1499894052151632,16,-11,-16,-26,-26,-12,2,89
1499894052151632,2,-6,-6,45,4,-1,1,26
1499894052152631,0,13,45,20,3,2,-4,23
1499894052152631,-15,-6,-46,-22,-3,0,3,-25
1499894052174653,2,4,6,39,5,-1,-5,27
1499894052174653,38,-9,-13,-63,-12,-5,0,59
1499894052175634,-13,-7,-6,25,3,-2,-5,-49
1499894052175634,5,0,16,26,5,4,4,49
1499894052189636,-19,-3,-8,-7,4,0,-2,-63
1499894052189636,-13,-4,-10,-62,-6,0,-3,-5
1499894052190637,0,0,16,92,7,3,-1,-12
1499894052190637,-18,2,2,-22,-8,-4,-7,-89
1499894052212646,-23,-10,-23,-6,1,-1,-1,-13
1499894052212646,-15,0,16,4,-5,-2,-5,-1
1499894052213643,-4,0,-14,-23,0,1,12,3
1499894052213643,-5,-10,-22,-30,-11,-9,-18,-30
1499894052226637,-4,3,42,-5,2,5,-1,24
1499894052226637,-14,-2,0,65,3,-1,-3,-70
1499894052234637,39,8,23,-116,-4,1,2,19
1499894052234637,0,-9,-21,61,-10,-6,3,18
1499894052249639,-1,13,3,37,10,2,3,37
1499894052249639,-34,-9,-14,-7,-10,-5,-11,-48
1499894052250640,-2,-2,1,10,-9,-7,-2,51
1499894052250640,1,2,16,-1,6,2,-1,3
1499894052271640,-2,3,-23,58,4,2,-3,-57
1499894052271640,-9,-4,-10,-64,-14,-3,8,-15
1499894052272639,-6,8,2,92,1,4,2,5
1499894052272639,-10,-9,0,50,-1,-5,-3,3
1499894052295641,9,5,6,-2,4,0,-1,-70
1499894052295641,10,4,4,68,11,4,2,-28
1499894052295641,-25,-12,-44,-128,-14,-9,-9,-43
1499894052295641,-13,0,14,31,6,2,7,-41
1499894052317644,16,-1,5,-34,-3,2,-4,46
1499894052317644,15,7,41,37,2,2,9,50
1499894052318642,-1,-9,-30,16,0,0,-2,-18
1499894052318642,19,-7,-20,0,-18,-11,-11,106
1499894052331642,-7,-1,8,46,11,0,1,-97
1499894052331642,3,3,5,-62,-5,1,1,13
1499894052332642,-23,11,12,38,7,2,-3,-4
1499894052332642,11,-13,-29,-75,-6,-2,0,11
1499894052348651,-21,-1,-5,42,-1,-1,-2,0
1499894052348651,-1,1,16,-31,-5,-5,-3,14
1499894052349644,22,-6,-8,-23,0,0,0,25
1499894052349644,-16,9,4,-27,5,4,4,-52
1499894052369646,2,-7,-24,29,-3,-3,-3,24
1499894052369646,-12,-4,17,24,0,-4,-11,-56
1499894052370646,3,-7,0,41,2,-2,1,20
1499894052370646,9,10,20,36,-1,1,2,51
1499894052392647,-39,-9,-7,-125,-17,-7,-8,-111
1499894052392647,1,3,-17,85,12,6,9,61
1499894052392647,13,-4,-10,-13,-4,-2,-5,-43
1499894052392647,-11,-4,2,16,5,3,-1,20
1499894052406647,-5,-2,-30,-67,-2,-1,3,32
1499894052406647,-4,-2,5,-4,-3,-4,-10,-84
1499894052414648,-8,0,1,4,3,-2,4,-49
1499894052414648,15,3,-4,-1,2,4,-7,13
1499894052429650,-5,5,27,42,1,-5,0,15
1499894052429650,13,-10,-22,-62,-10,-4,0,-30
1499894052430649,4,8,15,0,4,2,2,-10
1499894052430649,-37,11,37,52,6,1,-1,-62
1499894052451649,9,-19,-40,-36,-10,-2,-6,24
1499894052451649,-8,0,21,7,4,2,2,1
1499894052452649,22,0,-4,56,-2,-1,-5,10
1499894052452649,-2,-6,1,-30,-19,-9,-8,-29
1499894052466652,5,7,-3,14,6,2,3,25
1499894052466652,-1,7,1,19,6,3,-3,33
1499894052474667,0,-13,1,-8,-3,-3,-2,43
1499894052474667,14,-2,-15,-41,-1,0,7,41
1499894052489656,10,8,55,96,9,1,-3,62
1499894052489656,-2,-12,-57,-67,-2,-3,0,-6
1499894052490654,-1,-4,-4,-54,-9,-1,3,5
1499894052490654,20,2,2,0,-2,-9,7,64
1499894052511654,-5,1,12,42,2,2,-2,1
1499894052511654,9,2,11,23,6,3,1,37
1499894052519655,-18,6,-21,16,3,-3,-18,-40
1499894052519655,-17,-13,6,-38,-3,0,4,-64
1499894052526654,5,-1,-5,-12,-2,4,9,-21
1499894052526654,0,2,6,-7,-8,-5,-1,-31
1499894052534656,-9,-6,-11,-30,-3,-2,1,1
1499894052534656,3,-6,-22,36,2,-2,-9,-5
1499894052549656,5,2,2,-57,1,-3,2,57
1499894052549656,-15,1,-6,45,-5,-1,-6,-36
1499894052550656,-7,-6,26,82,-2,1,1,-42
1499894052550656,0,-2,-3,-25,0,-1,-3,19
1499894052571656,20,3,4,6,-7,-5,-9,35
1499894052571656,5,-3,-1,-46,-9,-3,-4,-23
1499894052572656,-15,4,11,18,4,2,1,-24
1499894052572656,-8,-6,-15,-23,1,-1,0,-31
1499894052586659,11,-2,3,42,8,3,-2,36
1499894052586659,-12,-3,3,-18,-7,-9,-7,-23
1499894052594661,-8,-1,-7,-30,-5,-3,-4,43
1499894052594661,-21,3,12,15,3,1,-1,-3
1499894052609658,12,1,-18,-56,-1,-1,1,7
1499894052609658,-24,-4,-12,39,-3,-3,1,7
1499894052610659,44,1,-2,-62,-4,-3,-1,114
1499894052610659,-13,3,5,-32,-1,-1,12,-17
1499894052632668,-16,-4,-17,29,1,-1,2,-5
1499894052632668,24,4,13,42,4,2,-3,3
1499894052632668,-7,-10,-23,8,-5,-4,-1,-30
1499894052632668,13,5,19,-74,-6,0,-5,50
1499894052646661,-5,3,-9,19,-7,-6,-4,-60
1499894052646661,6,-13,21,43,5,-2,-4,-14
1499894052654661,-4,3,10,-2,6,4,3,-5
1499894052654661,15,-5,-33,37,1,1,-5,12
1499894052669663,-19,-7,7,-128,-14,-5,0,-48
1499894052669663,10,6,-2,-5,0,-2,-2,70
1499894052670663,0,2,17,48,6,3,3,-20
1499894052670663,-6,2,15,-36,-5,1,-4,-24
1499894052691664,-13,-7,-29,28,0,2,0,-72
1499894052691664,-2,-8,-16,0,-4,-4,-2,22
1499894052692663,10,3,9,-4,3,-1,7,-3
1499894052692663,-4,-3,-16,2,2,3,0,-53
1499894052706665,-9,-1,35,16,-5,-8,0,18
1499894052706665,15,3,-23,-19,3,3,6,79
1499894052714666,7,1,-7,-3,1,0,1,-38
1499894052714666,1,1,6,14,3,2,-2,12
1499894052729668,6,1,-9,55,4,3,2,81
1499894052729668,-10,0,1,-39,6,5,11,-4
1499894052730669,12,2,-2,-28,-20,-12,-8,-29
1499894052730669,2,0,16,12,3,0,2,86
1499894052751668,5,1,-23,-27,6,2,-2,-13
1499894052751668,-3,-5,-10,29,-5,-3,-1,-17
1499894052752667,-8,-7,1,-14,-2,0,-3,2
1499894052752667,1,-4,-5,11,-4,-5,0,-10
1499894052775670,-1,4,14,35,6,2,1,-23
1499894052775670,3,7,5,-72,4,3,-6,13
1499894052775670,7,-4,-20,-6,-4,-1,-4,61
1499894052775670,2,1,8,91,3,0,3,-8
1499894052789670,-3,4,18,-65,1,2,0,11
1499894052789670,9,-13,-24,-8,-13,-9,-3,51
1499894052790682,1,10,13,-18,-2,-3,-7,-38
1499894052790682,-4,-2,-14,9,0,-1,-4,35
1499894052811672,0,-1,4,19,0,-2,2,5
1499894052811672,2,8,14,27,5,5,6,9
1499894052812672,-27,-7,9,-5,-9,-3,-2,-15
1499894052812672,10,2,7,-26,3,-1,-1,-4
1499894052835672,-14,0,22,7,-3,-2,4,-34
1499894052835672,-29,0,12,1,1,2,-1,-57
1499894052835672,5,0,-13,-41,2,3,5,5
1499894052835672,-12,-8,-12,-55,-8,-6,-7,-8
1499894052849674,4,-7,-19,12,-7,-5,-8,-15
1499894052849674,-9,-1,-12,36,7,2,-1,-34
1499894052850674,-17,9,31,15,5,1,2,-62
1499894052850674,6,0,-2,-7,-2,-1,-2,-2
1499894052871674,15,-2,20,12,-3,-1,0,19
1499894052871674,1,7,-4,-28,2,1,1,5
1499894052872674,0,-1,-12,-15,7,3,-3,-2
1499894052872674,3,1,4,41,-8,-7,0,-7
1499894052895676,-8,1,13,6,-6,1,-2,-10
1499894052895676,3,4,21,13,3,1,0,-35
1499894052895676,-2,0,-1,14,0,-2,-2,46
1499894052895676,15,-2,-13,0,7,4,2,58
1499894052909677,-5,-4,-20,51,1,-2,2,-10
1499894052909677,-5,4,19,-65,-11,-6,-6,2
1499894052910677,8,-6,-20,10,0,-1,-3,29
1499894052910677,3,6,12,1,6,2,3,10
1499894052931680,-3,-4,-14,-17,-1,2,0,17
1499894052931680,4,3,12,48,2,-2,5,21
1499894052932677,-14,-15,-54,-45,-10,-4,-3,-47
1499894052932677,-11,2,1,-5,-2,-1,0,-46
1499894052954678,19,0,29,9,4,1,-1,6
1499894052954678,1,2,-17,24,-2,-1,0,-4
1499894052961679,-16,-9,-1,-33,-1,-4,-7,-43
1499894052961679,-1,0,21,26,-6,-2,-1,-35
1499894052969679,7,-2,-47,-17,1,-1,-1,56
1499894052969679,-6,-7,41,-38,-4,-7,-8,-26
1499894052970682,2,2,-34,29,1,1,6,39
1499894052970682,1,-2,2,-10,0,-2,-5,-12
1499894052991683,-7,0,-2,-40,2,5,9,-14
1499894052991683,-3,3,1,35,2,0,-12,9
1499894052992682,-2,0,7,28,-2,0,1,13
1499894052992682,-3,-3,-5,17,-1,-3,1,-5
1499894053015684,4,0,1,-104,-16,-2,-5,-75
1499894053015684,6,-5,-10,69,6,3,4,23
1499894053015684,4,-2,9,17,-4,-6,-1,24
1499894053015684,-6,1,-8,-19,1,3,-2,-96
1499894053029684,-7,-3,3,-10,1,-6,-5,15
1499894053029684,12,8,9,5,0,2,7,90
1499894053030685,-25,0,19,90,3,-2,-1,-40
1499894053030685,15,-3,-8,-102,-6,-3,-1,41
1499894053051685,-6,0,8,28,0,-3,-2,6
1499894053051685,0,-11,-28,-11,-2,0,3,-23
1499894053052684,3,0,5,-19,-5,-3,-7,50
1499894053052684,-1,3,20,40,4,2,-9,12
1499894053075686,2,0,-3,-22,1,1,5,58
1499894053075686,5,2,-17,10,0,1,1,-11
1499894053075686,11,-4,-14,-48,-4,1,3,24
1499894053075686,-42,-10,-21,67,-4,-5,-5,-27
1499894053089687,17,6,25,-60,-3,-2,-3,13
1499894053089687,-18,0,6,7,-1,1,3,-48
1499894053090687,12,-4,-3,-7,0,-1,-1,45
1499894053090687,3,2,-15,10,7,1,0,-29
1499894053111690,-17,-4,-23,35,4,2,0,-2
1499894053111690,7,10,20,-40,-4,-3,0,-16
1499894053112691,3,-4,-3,50,-2,-4,-2,13
1499894053112691,10,4,32,1,2,2,2,81
1499894053135692,-13,-6,-30,-63,-14,-10,-3,-42
1499894053135692,-4,-5,-14,-15,-4,2,-3,-3
1499894053135692,1,-2,-2,-7,0,2,8,-24
1499894053135692,4,-4,-18,20,-4,-3,-6,-2
1499894053149690,11,2,17,3,0,-2,-3,64
1499894053149690,4,-5,-29,35,-2,-2,-4,-14
1499894053150691,-3,4,27,-65,3,3,1,-22
1499894053150691,3,0,-27,47,-10,-3,6,24
1499894053171692,-6,-5,7,-22,-6,-2,-2,-55
1499894053171692,5,-4,-2,-42,-4,-6,-2,14
1499894053172692,-5,4,14,15,6,1,-4,27
1499894053172692,10,7,27,10,3,-1,2,-13
1499894053195693,16,1,-16,-7,2,2,-8,29
1499894053195693,-23,-16,-29,-1,-7,-5,-6,10
1499894053196697,13,1,15,11,-1,-1,-4,-43
1499894053196697,-3,4,4,-47,1,-1,0,5
1499894053209694,0,-6,-10,66,1,-4,2,-1
1499894053209694,-4,4,19,74,13,9,4,-17
1499894053211695,-7,2,-17,-104,-11,-1,0,-11
1499894053211695,-14,0,9,28,-6,-5,-5,-21
1499894053231695,-6,-9,4,12,2,-2,0,-5
1499894053231695,-6,5,-22,7,-2,-4,-5,-64
1499894053232695,-4,-5,3,-15,-1,3,2,-13
1499894053232695,7,-4,-13,-21,-1,1,1,-2
1499894053255695,4,8,13,-9,1,-2,-5,-43
1499894053255695,1,0,4,-22,-5,-6,1,48
1499894053255695,7,0,-5,54,3,0,-1,-8
1499894053255695,-3,0,-4,-17,2,3,2,29
1499894053269699,-4,-3,13,32,1,2,2,-12
1499894053269699,3,6,28,21,4,2,-4,11
1499894053270698,0,3,-9,-11,-3,-3,-3,-2
1499894053270698,15,-7,8,7,1,1,3,9
1499894053291699,13,5,-27,-6,2,0,1,42
1499894053291699,-12,-11,-11,17,-2,-1,-7,-27
1499894053292698,1,0,6,-47,-13,-7,6,23
1499894053292698,-12,-4,3,1,-5,-5,-8,-41
1499894053315700,6,0,11,15,2,2,-1,-5
1499894053315700,2,6,10,31,4,0,6,20
1499894053315700,-10,-7,-2,-53,2,1,-3,-15
1499894053315700,-4,-9,-32,13,-4,-2,-1,-5
1499894053329701,2,-3,-11,-36,-11,-5,-3,26
1499894053329701,3,6,12,13,-3,-2,0,17
1499894053330702,4,0,28,47,4,1,-1,7
1499894053330702,3,2,-17,-75,4,0,-2,4
1499894053351702,-20,-2,-12,-1,-6,0,-1,-50
1499894053351702,5,4,16,-10,1,1,1,9
1499894053352702,19,-12,-37,-22,-11,-6,-2,29
1499894053352702,-3,8,26,3,2,-2,-5,-1
1499894053375703,-46,-11,-23,37,5,5,-1,-75
1499894053375703,5,4,4,-58,0,0,1,12
1499894053375703,-14,-4,-14,-14,-4,-2,-4,-22
1499894053375703,-35,-6,10,33,3,1,1,-62
1499894053388705,13,5,0,-46,-7,-5,-3,23
1499894053388705,21,-5,10,29,-1,2,0,-4
1499894053396704,-17,12,21,-2,12,5,1,-49
1499894053396704,14,-7,-5,30,-10,-3,-3,-11
1499894053411707,-15,-7,-6,-27,-10,-9,-4,-2
1499894053411707,-23,-7,-13,-2,-5,-4,0,-15
1499894053412710,-2,2,6,48,10,6,2,-18
1499894053412710,7,3,-4,-15,-2,2,5,19
1499894053435707,17,1,21,50,8,3,2,17
1499894053435707,0,-12,-36,-20,-7,-9,0,-4
1499894053435707,3,4,-8,32,0,-1,-6,34
1499894053435707,11,3,0,-35,1,2,-1,29
1499894053448715,14,9,50,13,1,1,-3,-4
1499894053448715,-9,4,-16,21,-2,1,0,1
1499894053457715,9,-11,12,49,-2,-3,-3,7
1499894053457715,-25,-4,-8,-8,-6,-3,1,-66
1499894053471709,9,1,9,-14,-2,-4,-8,11
1499894053471709,9,8,11,-4,7,4,9,11
1499894053472710,6,-1,0,14,-1,2,2,49
1499894053472710,4,0,-12,-15,-5,-2,-6,-19
1499894053495711,-18,1,6,54,9,5,2,-6
1499894053495711,5,-14,-6,-72,-12,-7,-10,-45
1499894053495711,-2,4,-14,2,3,1,0,-14
1499894053495711,-20,-4,-4,0,-1,2,8,32
1499894053508710,22,2,-2,7,2,1,7,-10
1499894053508710,7,-2,-8,-62,-7,0,-11,-15
1499894053516713,-6,0,5,27,1,-6,-3,-9
1499894053516713,-3,-5,-30,-69,-6,-2,-1,16
1499894053531711,-7,-9,-17,-6,-5,-6,-3,3
1499894053531711,-9,-1,13,63,5,5,-2,5
1499894053532712,12,7,10,-35,-1,-2,3,-27
1499894053532712,-6,2,18,69,-6,-5,-5,-10
1499894053554713,-10,-13,-30,4,-9,-4,0,13
1499894053554713,7,-13,-14,-26,-1,-2,0,20
1499894053555713,-15,6,29,21,-2,-4,-2,-6
1499894053555713,0,0,-16,24,10,5,-1,4
1499894053577719,15,13,0,-48,4,4,1,10
1499894053577719,-10,-8,3,-3,-11,-9,-2,4
1499894053578714,-10,1,0,-18,0,1,-3,-54
1499894053578714,-3,-2,-6,4,0,-3,-2,6
1499894053591717,6,1,5,-1,0,2,7,7
1499894053591717,-3,-1,-22,13,7,4,-4,-1
1499894053592718,-11,-6,5,-4,-6,-5,2,-42
1499894053592718,7,1,2,-16,-2,0,0,27
1499894053615717,-15,0,1,15,3,-1,-1,5
1499894053615717,7,0,-1,-14,-5,-4,3,15
1499894053615717,-9,-4,-11,39,0,1,-1,-28
1499894053615717,8,1,10,7,4,-1,-1,6
1499894053628718,11,-5,4,-22,-3,0,-1,29
1499894053628718,14,8,12,1,-3,-5,-3,-49
1499894053636719,17,2,-27,-5,-4,-3,-5,60
1499894053636719,21,-6,-3,-5,9,4,-1,25
1499894053651721,-11,-1,31,102,1,1,-2,-10
1499894053651721,12,-2,0,-75,-8,-3,-4,24
1499894053652721,0,3,-1,-10,8,5,7,15
1499894053652721,-19,-4,-31,-7,-7,-2,-7,-23
1499894053675723,6,4,18,-2,2,-1,-4,-17
1499894053675723,-12,1,-5,64,2,-3,3,8
1499894053675723,-17,-6,-18,-92,-7,-1,-3,-21
1499894053675723,11,2,9,7,-2,-3,0,9
1499894053688721,-10,-5,-4,-39,-7,-1,-4,5
1499894053688721,-7,0,4,4,2,1,-4,-12
1499894053696722,7,5,7,8,2,0,3,17
1499894053696722,-34,-8,-18,-4,-5,-7,-5,-74
1499894053712732,-12,3,8,40,0,-2,0,-46
1499894053712732,-7,-6,-12,-80,1,-2,-4,-60
1499894053712732,7,8,12,55,4,6,1,22
1499894053712732,9,0,30,-6,-7,-2,1,27
1499894053735726,-2,-3,-32,-23,-2,-5,-3,-10
1499894053735726,-13,1,-16,29,1,2,1,17
1499894053735726,1,-8,-8,21,-3,-2,-7,22
1499894053735726,3,-4,-1,9,1,0,0,-7
1499894053757731,1,0,6,-38,-11,-2,1,9
1499894053757731,7,-2,-3,4,2,-3,3,92
1499894053758726,-1,-7,-17,-9,0,0,-2,-6
1499894053758726,1,4,14,34,0,-3,1,4
1499894053771727,14,4,4,-10,5,4,3,21
1499894053771727,4,-4,-17,-27,-6,-1,0,-24
1499894053772726,-22,-6,9,40,-3,-1,-2,-20
1499894053772726,-8,1,20,7,-1,-3,1,10
1499894053795727,-2,-4,-31,-46,5,2,-2,7
1499894053795727,-1,-2,2,-30,-10,1,2,-9
1499894053795727,-4,-4,7,31,0,-4,-2,6
1499894053795727,20,4,-2,-33,2,1,-1,-2
1499894053818729,-11,-5,0,28,-3,-4,-2,48
1499894053818729,-13,5,18,37,5,-1,-2,-83
1499894053818729,-1,-7,-18,-35,-8,-2,-1,0
1499894053818729,7,5,14,-17,0,2,3,33
1499894053831731,-3,0,-5,22,4,0,-7,-23
1499894053831731,16,4,21,-12,0,0,1,76
1499894053832729,-4,6,17,15,7,3,5,-7
1499894053832729,-5,-8,-36,-16,-6,-2,-1,-34
1499894053854731,0,0,1,0,-2,-1,1,-1
1499894053854731,3,-1,3,27,6,2,0,13
1499894053855731,7,1,9,-2,0,-4,-8,9
1499894053855731,-16,-2,-3,-19,-1,0,0,15
1499894053885733,0,-1,-11,-25,0,0,0,-19
1499894053885733,-1,4,11,28,-4,0,-1,-17
1499894053885733,4,-6,-5,28,-3,-5,-2,37
1499894053885733,8,-1,11,4,-6,-1,0,8
1499894053891733,-12,-4,5,-70,-11,-5,-5,-34
1499894053891733,-14,8,26,25,10,1,0,-1
1499894053892733,42,-9,-26,24,-8,-4,0,28
1499894053892733,-3,0,1,-5,2,2,2,-8
1499894053914736,-6,-2,-9,4,0,-5,-5,5
1499894053914736,-3,-1,2,-16,-3,-1,-3,23
1499894053915735,-14,-3,-15,11,-1,3,0,-21
1499894053915735,17,-1,-17,-30,-4,-5,-3,42
1499894053937735,-1,-7,-3,10,-2,-2,1,-26
1499894053937735,-1,-2,13,-20,0,-2,-3,-11
1499894053938736,-5,4,-14,1,1,0,2,2
1499894053938736,-3,4,21,2,6,3,-2,-1
1499894053951736,2,4,13,50,2,-1,2,48
1499894053951736,15,-6,-19,-37,-6,-4,0,31
1499894053952735,-16,5,15,-10,-3,-3,-3,-15
1499894053952735,2,-13,-20,-10,-19,-8,-8,-37
1499894053974738,8,4,22,10,7,6,5,10
1499894053974738,-8,-3,-2,8,2,-2,-4,-23
1499894053975738,0,2,6,-21,-1,-3,-1,15
1499894053975738,-2,-3,-7,-1,5,4,0,8
1499894053996740,15,2,9,-3,-3,-3,-2,27
1499894053996740,-8,1,8,50,-2,-2,-1,-14
1499894054004739,2,-5,-29,-52,-11,-5,-2,0
1499894054004739,9,1,16,31,7,1,1,-17
1499894054011743,0,-2,-20,23,-2,-1,-6,24
1499894054011743,-6,-1,-13,-35,1,3,-1,-9
1499894054012743,8,1,-4,-18,-6,-2,-1,-3
1499894054012743,0,4,12,15,0,-2,0,-21
1499894054034744,-4,0,-34,-38,3,3,5,-16
1499894054034744,-17,-8,13,78,-3,-5,-3,-7
1499894054035742,16,4,12,4,5,3,1,-4
1499894054035742,0,-9,-27,-11,-2,-1,1,-3
1499894054057750,-3,5,12,13,-2,1,0,-10
1499894054057750,-14,-6,-6,-9,-1,1,3,-12
1499894054058743,-8,-4,-5,14,1,-2,0,-12
1499894054058743,7,8,13,-26,3,4,-2,27
1499894054071744,-2,-13,-33,29,-5,-7,-6,-7
1499894054071744,-10,1,5,-106,-12,-5,-1,10
1499894054072742,-6,-6,11,30,4,2,-1,1
1499894054072742,-2,-1,-1,12,3,-4,-2,-2
1499894054102746,-17,-3,2,0,-3,-4,-2,-70
1499894054102746,18,-1,-14,19,1,-1,0,22
1499894054103747,-5,5,30,-34,1,0,-3,-3
1499894054103747,-14,-8,-52,25,0,0,-3,-20
1499894054117748,-6,-1,4,-43,-8,-3,8,-5
1499894054117748,22,5,-2,39,4,1,2,14
1499894054118747,-17,2,14,-29,0,-1,1,-21
1499894054118747,-5,1,15,31,-4,-3,-3,20
1499894054131747,16,-3,-4,-61,-4,0,2,73
1499894054131747,-8,-1,-12,19,-1,0,2,-57
1499894054132746,15,-5,-2,-27,-1,-1,-3,-40
1499894054132746,-5,-1,-5,18,2,0,0,-37
1499894054154748,-5,4,23,5,2,2,-3,-13
1499894054154748,-5,1,-7,34,-2,-2,0,9
1499894054155749,1,-8,-28,-84,-6,-7,-4,12
1499894054155749,-1,4,23,44,-1,-2,1,15
1499894054177753,9,3,8,29,4,0,1,10
1499894054177753,10,4,-18,-17,3,3,1,29
1499894054178750,-16,-4,23,38,-5,-2,-1,-48
1499894054178750,-5,-1,-17,21,2,-3,-4,4
1499894054191752,-13,-5,14,-85,-10,-3,-4,-7
1499894054191752,1,0,10,34,4,2,2,7
1499894054192751,-5,-4,-23,52,5,-1,0,19
1499894054192751,-12,3,-5,-93,-9,2,2,-6
1499894054214752,-11,0,-12,17,-1,-3,-10,-81
1499894054214752,-12,-8,17,40,0,-4,-3,-24
1499894054215753,2,-3,-2,-25,-3,-2,-3,28
1499894054215753,15,0,-8,4,1,-2,-1,12
1499894054237755,-2,4,-3,23,4,2,6,14
1499894054237755,14,-4,-18,-28,-6,-3,-7,6
1499894054238755,-11,5,13,45,1,-2,-3,-33
1499894054238755,-2,0,6,-56,-3,0,-1,18
1499894054251754,5,1,-2,-40,-5,-3,-2,3
1499894054251754,-27,-3,-12,2,2,2,5,-16
1499894054252754,13,-1,0,35,1,0,-2,21
1499894054252754,3,2,21,-4,3,0,1,29
1499894054274755,13,-7,-30,34,-2,1,-1,79
1499894054274755,2,6,22,-27,3,3,-1,-4
1499894054275756,2,-8,-27,10,-4,-4,0,18
1499894054275756,-9,3,12,4,0,0,9,-17
1499894054297769,-2,-3,1,70,4,-3,-10,19
1499894054297769,8,2,-1,-89,-5,-2,-2,-26
1499894054298757,-2,2,-22,-8,-6,-1,-4,-4
1499894054298757,-14,-2,2,-42,-5,-3,-3,-3
1499894054312761,-3,-7,25,42,4,1,3,-21
1499894054312761,0,-7,-40,25,1,-2,-1,-2
1499894054312761,-2,1,2,-55,-4,-3,-5,-19
1499894054312761,15,4,26,35,-1,0,-2,12
1499894054334760,-4,3,2,-16,1,2,0,-16
1499894054334760,10,-6,-11,34,-3,-3,-3,-1
1499894054335760,2,2,19,14,4,-1,5,30
1499894054335760,-8,-8,-22,-59,-1,3,-4,-60
1499894054357760,-1,3,21,6,2,-3,1,-6
1499894054357760,3,-1,-6,3,-2,0,1,10
1499894054358760,-10,1,-11,1,0,-2,-2,-7
1499894054358760,6,3,22,36,4,-1,3,21
1499894054371761,-7,-15,-46,-71,-8,-1,0,-19
1499894054371761,-4,6,40,57,1,0,-9,-23
1499894054379764,-12,2,-15,-8,3,1,0,-27
1499894054379764,-1,2,8,-41,-6,-4,1,24
1499894054402762,2,4,28,-1,2,1,-2,-37
1499894054402762,3,-3,-26,-16,-5,-4,2,35
1499894054403763,-3,-10,-22,-5,0,-1,0,9
1499894054403763,8,0,3,25,4,4,0,11
1499894054417763,-11,0,0,23,-3,-6,-6,-17
1499894054417763,-13,1,3,-32,-3,-2,-1,55
1499894054418763,31,0,25,-5,-2,3,1,42
1499894054418763,-13,-19,-40,18,-2,-5,-1,20
1499894054431765,11,-1,2,-23,-9,-5,-1,18
1499894054431765,-10,-3,-6,9,0,1,-1,-13
1499894054439765,-10,6,17,-65,2,2,-2,5
1499894054439765,5,-3,-14,20,-11,-8,-5,32
1499894054454767,5,-3,-10,39,4,2,4,-4
1499894054454767,-1,5,21,-19,3,2,2,-8
1499894054455768,5,-4,-29,14,-2,-4,-2,7
1499894054455768,-7,-5,0,8,1,1,-3,-22
1499894054477767,-2,3,3,3,5,0,-4,3
1499894054477767,3,2,-14,20,1,-2,3,54
1499894054478773,9,-5,2,-51,-7,-2,2,15
1499894054478773,16,-2,3,44,0,0,-2,10
1499894054491770,11,9,-5,22,-3,1,4,22
1499894054491770,-7,-12,-4,-41,-2,-5,-3,-20
1499894054499770,-6,6,4,28,6,1,-1,0
1499894054499770,-1,1,2,-21,-1,-5,0,1
1499894054514770,-1,9,35,-7,0,1,3,-4
1499894054514770,4,-6,-34,45,5,4,2,-1
1499894054515770,0,-12,11,-35,-10,-5,-3,3
1499894054515770,-3,8,33,14,1,-1,-3,-19
1499894054537772,-3,-4,-23,28,4,-3,-1,-10
1499894054537772,1,6,24,-29,-5,1,-2,-7
1499894054538772,-13,0,-13,-1,5,4,0,-53
1499894054538772,1,5,10,16,0,3,0,1
1499894054551771,-5,-10,-3,5,-1,-1,-2,4
1499894054551771,11,-2,15,25,-4,-1,0,28
1499894054559772,2,0,-8,-39,-4,-3,0,12
1499894054559772,-11,-10,-32,17,-5,-4,-5,-35
1499894054574772,7,6,3,-63,-4,-1,1,-14
1499894054574772,1,-2,8,13,2,-3,8,-20
1499894054575774,-7,-5,-9,32,5,4,-4,12
1499894054575774,1,-1,19,24,-5,-3,-3,-7
1499894054597782,-5,0,16,19,3,0,2,10
1499894054597782,-13,-5,-34,-26,-3,0,-3,-56
1499894054598776,9,0,-3,7,-4,-1,-3,17
1499894054598776,-17,-6,-11,-31,-1,-4,-7,-69
1499894054611777,-5,-5,-11,-18,-8,-1,-2,15
1499894054611777,2,6,32,6,0,-2,-2,70
1499894054619774,-14,2,-3,23,5,1,3,-20
1499894054619774,4,5,-7,18,3,2,3,8
1499894054634775,-1,-13,-10,-8,-6,-5,-2,10
1499894054634775,-4,-3,-5,10,-3,-1,-7,7
1499894054635776,-18,0,23,27,0,-4,-1,-5
1499894054635776,20,-1,-4,-8,-3,-1,0,24
1499894054657783,-5,4,22,-23,0,1,-1,-45
1499894054657783,3,-2,-10,-8,0,-2,-1,2
1499894054658778,-3,1,1,65,0,0,0,-3
1499894054658778,11,6,-3,-103,-6,3,7,77
1499894054680779,-6,-7,-16,38,1,-6,-5,-87
1499894054680779,-9,5,14,8,-1,-1,-2,-23
1499894054680779,-3,-8,-42,-50,-6,0,7,-38
1499894054680779,3,0,8,26,6,-1,-4,24
1499894054694779,0,9,-1,24,1,4,3,34
1499894054694779,5,-5,1,-39,-2,-3,-2,-8
1499894054695779,9,4,23,79,5,2,0,9
1499894054695779,-22,-7,-5,-57,-3,-1,2,-34
1499894054717781,0,0,-5,6,-2,-1,-1,4
1499894054717781,3,-1,2,7,-2,-1,0,-4
1499894054718781,3,8,9,-23,-1,1,-4,1
1499894054718781,2,-5,0,8,3,-3,-1,-20
1499894054739784,-8,-4,-14,13,-2,3,-4,39
1499894054739784,2,8,16,9,1,-1,4,-18
1499894054740783,-13,-15,-34,-49,-7,-5,-8,-79
1499894054740783,-1,5,37,78,3,0,-2,40
1499894054754783,-14,-5,-27,-106,-4,-2,0,-24
1499894054754783,20,0,7,8,2,2,1,14
1499894054755783,11,1,-2,-5,-7,-1,2,53
1499894054755783,-6,-1,-3,17,1,0,0,-28
1499894054777784,-3,-2,-10,-5,2,-2,0,32
1499894054777784,-5,2,21,-3,6,4,-4,-15
1499894054778785,9,3,12,13,-4,-3,-1,27
1499894054778785,-4,1,-7,-14,0,0,0,-34
1499894054800784,-9,-4,8,31,-2,0,0,39
1499894054800784,4,-9,-26,17,-3,-1,-1,-18
1499894054800784,6,5,12,-66,-2,0,3,19
1499894054800784,9,-1,-14,-10,-1,0,2,17
1499894054814787,-9,2,10,13,2,1,-2,-71
1499894054814787,0,-9,-22,-9,-9,-9,-7,-59
1499894054815788,-3,1,9,2,-2,1,-1,-1
1499894054815788,10,-4,-14,6,0,0,1,-5
1499894054837787,-14,-5,4,-3,1,-1,-1,-18
1499894054837787,-17,0,-7,4,-1,3,0,5
1499894054838790,2,-3,1,54,8,-2,1,6
1499894054838790,-5,-2,-33,-33,-15,-1,-5,-21
1499894054859792,18,-3,1,-31,-5,-3,1,45
1499894054859792,-4,-5,9,-14,-7,-8,-6,39
1499894054860790,6,2,9,30,7,3,-4,42
1499894054860790,-6,1,-6,23,4,1,2,62
1499894054874790,18,-2,-11,-24,-6,-4,-2,39
1499894054874790,-19,0,-11,40,-1,0,-2,-54
1499894054875790,-5,2,16,-5,-3,-2,-4,-7
1499894054875790,-10,-5,-14,-74,-4,-4,-5,-39
1499894054897793,7,6,21,43,3,3,-2,-9
1499894054897793,9,-1,-16,-20,1,-3,1,29
1499894054898792,-4,-2,-6,-2,1,-2,-1,-9
1499894054898792,3,2,19,8,4,3,-1,-3
1499894054919793,-11,-2,-20,12,-4,-2,0,-18
1499894054919793,1,1,6,-7,-3,-3,-6,-54
1499894054920793,-2,0,2,-2,-2,2,2,0
1499894054920793,2,-2,0,17,1,-4,-1,-1
1499894054934793,-1,0,3,32,4,3,2,-2
1499894054934793,-4,-8,-4,-63,-9,-2,0,37
1499894054935794,-3,-1,-2,1,-3,-6,-1,-24
1499894054935794,-15,2,19,14,5,1,1,-49
1499894054957806,-4,-8,-22,15,-3,-3,-3,31
1499894054957806,-19,2,-17,1,6,4,1,-52
1499894054958795,1,-1,-10,-6,-6,-4,-2,8
1499894054958795,-2,1,15,28,2,1,1,25
1499894054979795,-1,2,8,-8,4,1,1,1
1499894054979795,15,9,30,29,-3,-1,1,46
1499894054986796,-8,-16,-49,-30,-2,-1,-4,-8
1499894054986796,10,-3,-13,15,-5,-1,1,27
1499894054994799,7,-1,-3,16,-4,-10,-3,-15
1499894054994799,8,4,4,-24,-1,5,-1,23
1499894054995801,19,-3,0,20,1,-5,1,37
1499894054995801,-5,-2,-9,-24,-3,-3,-4,2
1499894055017798,12,2,9,19,2,0,-3,-6
1499894055017798,-1,-4,-18,-48,-8,-1,11,24
1499894055018799,-15,3,21,37,2,1,-7,-79
1499894055018799,-21,-1,3,-33,-1,1,1,6
1499894055039801,-1,2,16,-1,-1,0,-3,-53
1499894055039801,-1,-7,2,34,4,-1,-1,25
1499894055040799,-3,3,11,-2,-5,-3,-4,18
1499894055040799,4,-3,-12,20,-8,-5,-2,-11
1499894055054800,-8,6,18,3,6,5,2,-11
1499894055054800,2,-7,-10,-17,-1,2,-1,-12
1499894055055800,-3,2,-28,-44,-1,0,1,-13
1499894055055800,-2,-4,8,58,6,-2,-5,-11
1499894055077801,8,1,3,-41,-7,-1,1,31
1499894055077801,-6,3,30,33,1,-5,-5,-28
1499894055078802,-5,-4,-18,-58,-6,3,6,42
1499894055078802,8,3,15,1,2,-1,2,18
1499894055099804,2,-3,-17,30,3,1,-1,23
1499894055099804,3,3,10,-34,-1,-2,-3,9
1499894055100803,-1,-1,13,70,-2,0,-2,16
1499894055100803,-2,-4,-13,-36,-3,0,3,36
1499894055113812,-3,-7,-32,-22,-9,-6,-3,-36
1499894055113812,-14,-1,-3,6,5,-1,-2,-1
1499894055121803,10,5,5,-14,-1,-3,0,23
1499894055121803,9,-3,3,17,-1,0,1,14
1499894055137805,22,-1,13,9,0,-3,1,50
1499894055137805,-6,-3,-20,-43,-6,-2,-2,-27
1499894055139805,-7,-6,4,33,3,-1,0,-26
1499894055139805,-4,4,-5,-59,-4,0,-1,-15
1499894055159806,-14,2,6,8,1,3,1,51
1499894055159806,11,-12,-31,34,3,-2,-5,28
1499894055160806,3,-1,-1,19,-6,-3,0,-16
1499894055160806,-13,2,28,-7,-3,1,-1,-57
1499894055174807,1,-2,15,-7,-3,-1,-3,15
1499894055174807,-10,7,-12,2,2,4,2,6
1499894055175808,-9,-4,27,5,8,2,-3,-5
1499894055175808,-5,-10,-44,-28,-6,-1,-3,-8
1499894055197811,3,-5,0,31,-6,-2,-5,-49
1499894055197811,-11,2,2,46,-2,-2,0,8
1499894055198809,15,7,4,-100,-5,-2,-2,-4
1499894055198809,1,-1,8,49,9,2,-1,-19
1499894055219810,-10,2,-9,-31,0,3,5,-14
1499894055219810,2,0,6,2,-4,-4,-4,-43
1499894055220809,-3,-8,-7,27,-2,-2,2,10
1499894055220809,13,-2,-16,-5,2,-2,-10,13
1499894055234812,0,2,10,59,5,-3,1,-13
1499894055234812,10,4,-19,-95,-4,5,4,5
1499894055235810,-10,2,-4,32,3,3,0,-1
1499894055235810,2,-2,30,21,-9,-6,-4,-15
1499894055257819,-1,-6,-31,-14,0,-2,-2,-8
1499894055257819,-5,4,27,17,3,-1,0,33
1499894055258812,2,1,-7,-22,-5,-1,-1,-18
1499894055258812,1,-1,-14,-13,-3,-1,-1,15
1499894055280814,-21,-1,6,10,-3,0,-7,-72
1499894055280814,10,0,26,13,-2,-3,2,30
1499894055280814,-5,-10,-60,0,0,0,-5,-14
1499894055280814,4,7,14,49,4,-2,1,7
1499894055293815,-6,-2,1,-90,-9,-3,-3,2
1499894055293815,2,-8,13,7,-1,-3,-3,12
1499894055301815,2,-2,-11,12,2,-1,-3,-20
1499894055301815,-2,7,12,3,0,1,0,-31
1499894055317816,3,-2,-6,-9,1,1,0,6
1499894055317816,-5,-2,-9,9,-3,0,-3,-9
1499894055318815,3,2,16,-7,2,2,3,48
1499894055318815,-2,-3,-15,-39,-1,2,-1,8
1499894055340831,7,3,7,24,-1,0,1,33
1499894055340831,-9,-7,-16,26,-3,-4,-2,-16
1499894055341817,-12,3,10,-11,1,-3,-4,-53
1499894055341817,9,4,11,-5,-4,1,1,3
1499894055353817,-6,0,-4,14,3,2,4,-8
1499894055353817,-16,-8,-20,21,-4,-6,-2,-19
1499894055361819,4,2,10,10,-1,-2,0,5
1499894055361819,-1,2,1,-27,-2,-4,-1,9
1499894055377820,-8,-3,-18,-4,0,-3,-3,-22
1499894055377820,9,-6,-11,-24,-2,4,0,-26
1499894055378819,-3,4,25,-22,0,-2,2,9
1499894055378819,-13,-4,0,66,-1,0,0,-13
1499894055399821,-2,1,0,-10,-4,-2,-2,10
1499894055399821,2,-4,-9,14,5,1,0,-4
1499894055401820,0,-1,-5,-55,-11,-5,-2,11
1499894055401820,-2,4,0,-2,1,0,-2,-1
1499894055414822,-5,-4,-6,-19,-3,-1,4,47
1499894055414822,0,6,18,17,4,1,1,-28
1499894055422821,20,-1,-8,52,3,3,3,-7
1499894055422821,-11,-4,7,-35,-4,-2,1,-14
1499894055437824,-2,-5,-19,-53,-11,-4,-5,25
1499894055437824,2,-4,-15,-22,-2,2,0,10
1499894055439823,3,3,6,-10,-8,-4,-3,54
1499894055439823,1,-5,3,35,0,0,-1,2
1499894055459823,3,-1,5,9,4,-1,-2,-14
1499894055459823,4,4,2,-2,-2,-4,-1,15
1499894055461824,-7,-2,-17,-12,2,5,-1,-18
1499894055461824,5,1,0,-3,-1,-2,-1,11
1499894055474834,-1,-5,-6,2,-3,-2,-1,13
1499894055474834,-2,-4,-9,-19,-4,-6,-5,-54
1499894055482825,-9,-5,12,55,3,1,-2,13
1499894055482825,5,1,-3,-13,-4,0,5,46
1499894055497825,-11,1,-12,-49,-4,-3,-2,-64
1499894055497825,12,4,14,10,-1,-1,0,13
1499894055498828,1,-1,9,0,3,-3,-3,22
1499894055498828,8,0,-11,5,2,-2,1,33
1499894055519827,1,0,-4,-5,2,1,-2,-18
1499894055519827,-10,-3,10,18,-4,-1,1,-4
1499894055521827,-6,5,3,-16,0,3,1,5
1499894055521827,2,-3,0,29,4,0,-1,28
1499894055533829,2,-7,2,-3,-2,-3,-1,10
1499894055533829,-7,1,-1,32,-4,-1,-3,-21
1499894055542828,2,2,11,-57,0,-2,2,-16
1499894055542828,-2,-6,-11,-21,-5,-1,-3,-20
1499894055557845,3,1,-6,57,2,-1,-1,31
1499894055557845,3,2,7,5,2,0,1,21
1499894055559830,10,6,8,-2,3,2,-1,18
1499894055559830,-9,-9,-41,-56,-11,-7,-7,-34
1499894055579829,-3,3,16,-4,0,2,3,-18
1499894055579829,-2,0,-4,-2,2,0,-3,15
1499894055581831,3,-6,-8,1,-8,-5,0,-13
1499894055581831,-10,3,5,16,7,1,-3,-71
1499894055593832,-2,-4,29,-16,-3,-1,1,11
1499894055593832,-5,-6,-27,-9,-3,-2,-2,10
1499894055602832,-12,3,5,-24,1,0,0,-14
1499894055602832,2,-3,-4,3,-3,1,1,-4
1499894055616834,-6,3,2,-19,5,3,1,-66
1499894055616834,-7,0,25,47,-7,-3,-4,-37
1499894055624840,10,0,1,-18,-4,-3,-2,15
1499894055624840,-9,-4,-28,-5,-1,-5,-1,-6
1499894055639834,0,4,6,1,3,5,-1,13
1499894055639834,16,0,10,47,6,-1,4,36
1499894055641842,-21,-8,-9,-27,-4,1,-2,-39
1499894055641842,-2,1,22,-3,-5,-2,1,9
1499894055662837,11,0,-13,10,-1,-4,-8,-60
1499894055662837,-4,1,-2,-35,0,1,0,3
1499894055664837,0,2,8,49,-2,-1,-2,22
1499894055664837,-4,-4,-10,-3,6,1,1,0
1499894055677838,3,-1,5,-13,-10,-7,0,34
1499894055677838,-10,-2,2,-12,2,2,2,-4
1499894055679837,0,-3,-6,33,5,-1,0,-21
1499894055679837,2,2,7,-36,-11,-1,1,24
1499894055699836,-5,0,0,11,6,0,0,-30
1499894055699836,16,0,-13,-10,-2,0,4,75
1499894055701838,5,-2,3,20,0,1,-2,-13
1499894055701838,0,5,14,24,3,-2,-1,4
1499894055722840,-2,0,-4,3,4,3,2,10
1499894055722840,-4,-3,-6,1,-5,-5,-2,23
1499894055724842,14,-2,-10,-61,-10,-4,-2,22
1499894055724842,-21,4,6,8,-1,0,1,0
1499894055736848,-2,-2,10,14,2,-2,0,32
1499894055736848,5,-9,-44,-10,-2,-1,-2,-14
1499894055743840,-5,4,0,11,0,-2,0,-10
1499894055743840,2,-2,5,-8,-2,-3,-4,-5
1499894055759846,0,-7,-4,61,0,-1,0,24
1499894055759846,-13,6,23,-40,1,-1,-2,-28
1499894055761841,-5,-3,-1,14,0,-2,0,-6
1499894055761841,8,2,8,9,3,3,3,19
1499894055782842,1,-9,-22,-41,-15,-5,-10,-53
1499894055782842,5,7,24,25,5,3,3,-16
1499894055783844,-10,1,1,-19,-2,-1,-4,-40
1499894055783844,-2,-4,-5,88,4,1,2,9
1499894055796844,1,3,4,-31,-2,-1,0,1
1499894055796844,-14,-4,-7,-56,-9,-4,-4,-12
1499894055803843,-7,-6,0,25,-5,-3,-2,3
1499894055803843,10,4,3,15,6,1,2,-2
1499894055819847,-10,3,8,5,2,1,0,5
1499894055819847,17,-2,-24,-23,-5,-4,-3,12
1499894055821845,-6,1,-6,28,8,3,3,6
1499894055821845,6,-4,-5,-46,-4,0,-3,-3
1499894055842846,-4,-3,-7,26,-8,-7,-1,19
1499894055842846,-5,1,22,-8,2,2,-1,-14
1499894055844846,6,1,1,42,4,2,2,14
1499894055844846,-3,-9,-38,-13,-4,-3,-3,-19
1499894055856846,7,-2,39,10,-2,-1,-1,18
1499894055856846,5,4,-27,41,2,1,2,45
1499894055863849,-3,-6,-10,-61,-4,-3,-3,-67
1499894055863849,-1,5,16,1,2,-3,-3,-3
1499894055879849,0,5,-1,16,0,2,0,22
1499894055879849,1,-8,-1,7,0,0,-2,14
1499894055881849,-13,0,10,-9,-10,-5,-3,19
1499894055881849,6,-4,-13,-3,-2,-1,-3,9
1499894055902848,23,-1,1,-20,1,-3,-1,10
1499894055902848,-6,5,15,14,5,4,2,-26
1499894055903850,-1,2,-4,54,4,2,1,25
1499894055903850,-15,-12,-13,-53,-16,-11,-6,31
1499894055916852,-13,-4,-21,2,0,3,0,-3
1499894055916852,0,2,5,-8,2,2,-2,-7
1499894055923852,-4,1,7,4,4,0,0,1
1499894055923852,-4,-12,-23,-11,-2,-3,-1,3
1499894055940868,1,-2,8,40,-3,-2,3,79
1499894055940868,0,3,4,3,-2,-2,-1,-4
1499894055941851,-4,2,16,0,1,0,1,-9
1499894055941851,-3,-3,-26,-15,-3,2,1,-22
1499894055962855,1,-6,19,15,-2,-5,-4,9
1499894055962855,-8,-5,-20,3,-1,-1,1,-11
1499894055964854,7,1,5,19,0,-3,-2,5
1499894055964854,7,4,14,-18,5,3,0,1
1499894055976854,-8,2,-23,-12,5,3,1,-31
1499894055976854,-3,-7,3,-12,-9,-2,-3,5
1499894055983853,0,-1,-3,0,-1,1,-1,-12
1499894055983853,-1,4,14,45,3,3,-1,-15
1499894056007861,-5,1,-4,-60,-4,0,0,-26
1499894056007861,16,4,9,19,-2,-1,3,29
1499894056009856,-29,-11,-29,-59,-4,-1,-5,-52
1499894056009856,-3,-5,-7,10,-2,-7,-4,-14
1499894056022855,0,3,1,55,3,3,3,37
1499894056022855,12,-5,5,-4,2,1,-1,30
1499894056024856,-9,-3,-9,-29,-3,-3,0,27
1499894056024856,13,1,3,48,0,-1,-2,-38
1499894056036859,-4,4,-7,-83,0,1,1,-3
1499894056036859,-10,-5,0,-21,-4,-3,-3,-25
1499894056043858,-2,-3,3,11,-2,-1,1,16
1499894056043858,7,2,1,3,1,1,0,10
1499894056060859,3,0,-16,-9,-2,-6,0,-10
1499894056060859,-8,0,-8,-2,4,2,1,-40
1499894056062859,0,-2,9,-3,3,-1,-2,-15
1499894056062859,-10,-5,-12,-23,-6,-3,-1,-9
1499894056082859,-2,-3,-12,36,-3,3,-1,-14
1499894056082859,-7,5,9,-5,1,0,-1,-7
1499894056083860,11,-6,-11,13,-3,-4,-2,37
1499894056083860,-4,2,15,-41,5,2,1,-7
1499894056096863,-5,0,12,6,-2,-3,-3,-12
1499894056096863,-2,-5,-6,-52,-5,-6,-3,-10
1499894056103861,11,5,2,21,3,6,3,17
1499894056103861,4,2,8,-6,-2,2,1,12
1499894056119862,-5,-6,-11,1,0,-2,-2,-26
1499894056119862,-2,3,11,13,0,-2,0,-5
1499894056121863,14,-3,-4,4,-3,-1,-2,-9
1499894056121863,-11,4,5,55,4,0,4,-54
1499894056142863,-4,1,11,-88,-5,1,-6,-19
1499894056142863,-4,-3,-3,60,0,-2,1,19
1499894056144864,-8,-2,-19,-11,-3,0,1,49
1499894056144864,4,3,5,9,0,-2,-1,18
1499894056155865,-8,-6,-12,18,2,0,-1,-10
1499894056155865,-2,3,-3,4,2,1,-1,-3
1499894056165865,-7,-10,-11,-36,-11,-6,-5,-11
1499894056165865,-1,-2,-2,5,0,-2,-2,13
1499894056179866,11,0,8,15,-1,-4,1,39
1499894056179866,-3,-1,-7,-5,-1,-1,-2,5
1499894056181867,-2,4,3,14,3,2,1,-15
1499894056181867,3,-4,4,-3,-6,-3,-3,2
1499894056209868,4,-2,-4,16,0,0,-1,-4
1499894056209868,-2,-2,3,-10,-1,0,-2,-23
1499894056211868,2,4,-4,30,1,-1,0,-28
1499894056211868,-5,-1,11,-64,0,0,-2,5
1499894056216876,3,-8,-15,31,-5,-4,-1,-15
1499894056216876,0,-3,-5,-9,-3,-1,-1,15
1499894056225872,11,7,15,10,3,3,4,49
1499894056225872,-7,-5,-8,50,0,-1,0,-1
1499894056239873,-6,-1,2,-53,-5,-6,-3,-11
1499894056239873,6,-1,-10,28,-2,-3,-1,16
1499894056241870,1,-4,-3,-80,-6,-1,-2,-13
1499894056241870,3,5,5,61,4,2,-1,-4
1499894056262871,-8,-6,-6,3,-1,-4,-1,-9
1499894056262871,1,-3,1,-7,-2,-1,-1,0
1499894056264879,-5,0,-5,4,-1,0,-2,-22
1499894056264879,6,-4,-2,-17,-3,-2,0,31
1499894056275871,2,2,2,-6,1,0,-1,-26
1499894056275871,0,-3,-7,-10,-2,-2,-4,6
1499894056285871,-1,-5,-2,18,-1,-2,-2,-7
1499894056285871,-4,-3,-4,-42,-4,-4,-3,-13
1499894056299872,2,2,9,21,-1,2,2,13
1499894056299872,-1,0,8,3,0,3,1,-7
1499894056301873,3,0,2,0,0,-2,-2,-9
1499894056301873,-5,-1,-5,-32,-2,1,1,-1
1499894056322873,-2,0,6,77,3,-2,0,-6
1499894056322873,-4,1,-1,-34,-1,-1,0,-25
1499894056324883,-2,-3,-5,-1,-5,-2,-2,-12
1499894056324883,0,0,4,-9,1,-1,1,3
1499894056336876,2,1,3,-15,2,3,-2,3
1499894056336876,3,-4,-8,43,-5,-1,-2,16
1499894056344875,1,4,11,21,5,-2,1,5
1499894056344875,-5,-12,-20,-9,-9,-8,-1,14
1499894056359881,-10,6,1,11,3,4,0,-52
1499894056359881,-3,-4,1,-69,-3,-2,-3,0
1499894056361877,1,-1,5,-4,-2,-1,0,7
1499894056361877,6,5,5,14,0,2,0,16
1499894056382877,-3,-3,-13,9,0,-1,1,13
1499894056382877,14,-1,4,-2,-3,-5,1,-10
1499894056384877,-17,0,-2,-5,2,3,-1,-65
1499894056384877,7,2,4,-6,-1,-2,-1,-1
1499894056396879,4,-1,-3,21,1,0,-2,13
1499894056396879,-6,0,3,-50,-3,-2,1,0
1499894056405879,-4,-8,-8,13,-1,-3,-4,-45
1499894056405879,5,7,9,8,2,2,-2,-20
1499894056419880,-5,-15,-37,-37,-9,-2,-5,3
1499894056419880,-14,-1,3,37,4,-1,-2,-47
1499894056421879,6,-2,5,-3,-2,0,1,8
1499894056421879,-8,0,-11,-21,-3,-6,-5,-22
1499894056442881,3,3,-11,-5,4,0,2,-1
1499894056442881,-9,-1,9,-18,-10,-3,-3,-8
1499894056443881,9,-2,-10,3,2,2,-1,63
1499894056443881,16,4,15,41,3,4,3,5
1499894056455881,-12,0,12,-20,-4,-6,0,9
1499894056455881,-2,-3,-7,22,0,2,0,3
1499894056465885,2,0,13,-10,-5,-6,-1,9
1499894056465885,-5,-4,-5,-18,-3,2,0,1
1499894056479883,13,-1,6,22,-1,2,-1,28
1499894056479883,-7,-2,-8,-7,2,-1,1,1
1499894056486884,5,-1,0,-6,0,-2,1,47
1499894056486884,-1,0,0,-51,-7,-3,-3,-12
1499894056502884,11,2,-2,-4,0,-2,-2,-38
1499894056502884,-2,-2,-20,0,2,0,-2,-1
1499894056503884,-2,0,8,21,-2,-2,-3,18
1499894056503884,-9,-1,2,17,-1,-2,0,3
1499894056515887,-2,0,-5,-15,-2,3,2,9
1499894056515887,8,7,31,34,1,-1,1,-4
1499894056525889,-9,-5,-34,18,3,1,0,-27
1499894056525889,-1,0,11,-56,-4,0,0,48
1499894056539885,-4,-1,12,19,-4,-4,-2,-26
1499894056539885,2,0,-11,51,5,1,1,-1
1499894056541886,2,5,14,3,-2,-2,0,-5
1499894056541886,7,0,-1,27,4,2,5,32
1499894056562917,-13,5,4,-39,4,5,2,-9
1499894056562917,-27,-16,-28,-6,-9,-9,-8,-8
1499894056564887,0,3,11,6,-1,-1,2,-15
1499894056564887,-7,-4,-19,-10,0,1,-2,-34
1499894056584889,6,-1,10,1,0,-4,2,45
1499894056584889,1,2,5,-12,1,1,-2,-44
1499894056586888,-3,-8,-17,-23,-4,-3,-3,-5
1499894056586888,-2,0,11,74,9,0,-1,-5
