timestamp,emg1,emg2,emg3,emg4,emg5,emg6,emg7,emg8
1499895350118878,-1,-1,0,46,6,0,0,-1
1499895350118878,-3,-5,3,-48,-15,-11,-8,3
1499895350118878,0,0,-11,9,5,3,2,0
1499895350118878,-1,-1,-2,-11,-4,1,-4,-6
1499895350141880,-2,-5,-12,-33,-4,-2,2,-4
1499895350141880,-4,-3,0,31,-2,-4,-2,-2
1499895350141880,4,5,18,88,10,7,0,1
1499895350141880,2,0,-6,-93,-9,-3,-5,2
1499895350163886,3,-3,0,71,1,-2,-9,5
1499895350163886,-5,2,8,34,6,3,7,-18
1499895350164880,-4,-7,-13,-71,-12,-5,0,-1
1499895350164880,-3,-1,-2,30,4,0,5,9
1499895350178887,4,1,8,-24,-2,-3,-9,-10
1499895350178887,-1,-2,-11,-33,0,0,-2,3
1499895350178887,5,0,0,-31,2,0,-1,4
1499895350178887,-7,0,15,43,-2,-1,-4,-12
1499895350201883,-3,-2,-6,26,-3,-3,4,2
1499895350201883,5,2,9,11,5,-1,0,2
1499895350202890,-5,-1,-15,-6,0,1,0,-5
1499895350202890,2,-2,-6,32,-9,-3,0,-3
1499895350223884,-7,1,-5,-88,-3,6,4,7
1499895350223884,2,1,17,64,3,0,-6,-13
1499895350224883,28,-4,-14,-61,-4,-1,9,31
1499895350224883,-32,-2,7,40,5,2,-2,2
1499895350237884,-2,1,17,34,-7,-6,1,5
1499895350237884,-13,0,-13,-1,7,2,5,22
1499895350245903,12,1,18,-14,1,3,-1,1
1499895350245903,10,4,-7,-31,-3,-2,-1,-20
1499895350261889,-4,0,-8,-71,-4,-2,-1,-4
1499895350261889,-6,-6,-5,-28,-10,-7,-7,-24
1499895350262888,21,-5,-16,80,-6,-9,-9,36
1499895350262888,-20,-4,-11,-26,9,6,9,42
1499895350283890,20,-1,13,16,0,-3,-13,-53
1499895350283890,-29,-10,-24,-26,-12,-4,-2,-21
1499895350284888,-20,0,6,21,0,-3,-5,-70
1499895350284888,12,-2,4,-48,-8,-6,-27,-69
1499895350297888,-16,-4,-20,-18,7,6,20,34
1499895350297888,22,0,2,44,0,-4,-4,-7
1499895350305902,-27,4,-10,-94,-3,6,5,-29
1499895350305902,6,-4,-1,83,-5,-4,5,23
1499895350321892,9,1,-4,39,11,5,11,78
1499895350321892,4,1,3,-38,-15,-4,-4,32
1499895350321892,-15,0,10,106,8,1,0,4
1499895350321892,8,-5,-5,-43,-7,-3,3,-24
1499895350343890,-15,6,8,57,2,-3,-8,-70
1499895350343890,8,1,-15,7,6,5,7,79
1499895350344892,-7,-2,-15,-56,-4,-1,-4,-66
1499895350344892,16,2,26,5,3,-1,-8,11
1499895350357904,19,-1,-21,-5,-5,-1,-4,-35
1499895350357904,-31,-3,11,7,-1,-6,-3,-33
1499895350365899,-3,1,15,29,-2,-1,-5,-6
1499895350365899,27,-7,-27,69,-3,-4,-4,-1
1499895350381893,1,2,8,-64,2,1,4,70
1499895350381893,-11,3,17,67,12,1,-4,-27
1499895350381893,7,-8,-4,0,-1,0,-1,-5
1499895350381893,-20,0,-25,-50,-4,4,7,-17
1499895350403908,10,-3,3,37,-2,-1,-6,55
1499895350403908,16,0,2,16,0,-4,2,-42
1499895350404894,10,3,13,-59,-5,-2,0,30
1499895350404894,-16,0,0,22,11,5,12,5
1499895350417895,7,-6,-9,-17,-10,-6,-16,3
1499895350417895,7,4,20,66,4,5,4,46
1499895350425897,3,-8,-22,-50,-7,-2,7,83
1499895350425897,4,4,12,-2,0,-2,-2,-39
1499895350441898,-18,6,18,-2,0,1,-2,38
1499895350441898,17,-6,-29,-13,-4,-1,1,56
1499895350454898,0,-4,-12,-11,-3,-3,-3,47
1499895350454898,-13,-3,-2,19,-11,-7,-3,-26
1499895350463898,1,-7,-3,-5,3,-2,0,-30
1499895350463898,14,0,2,27,1,2,2,-18
1499895350464902,-14,1,6,-8,2,2,1,-23
1499895350464902,22,1,-4,-113,-5,1,2,70
1499895350477898,-9,-4,-6,86,1,-4,6,-21
1499895350477898,-11,-1,-17,-102,1,2,-5,-27
1499895350485901,7,3,23,122,5,-4,-8,-49
1499895350485901,-9,-5,-9,16,1,1,0,-14
1499895350501914,0,-1,14,-1,-7,-4,-1,-18
1499895350501914,4,-1,-10,-69,2,4,7,17
1499895350501914,-4,-1,11,9,-5,-3,3,57
1499895350501914,13,0,1,-82,-8,-3,-10,18
1499895350523902,4,1,-11,64,-3,1,3,25
1499895350523902,-12,-8,0,1,-7,-6,-5,24
1499895350524901,2,-3,-6,29,0,-7,-7,38
1499895350524901,11,-3,-5,-7,-2,-2,3,30
1499895350537900,-10,-4,-12,-47,-1,1,-7,-16
1499895350537900,8,5,17,33,4,2,2,-24
1499895350545914,-11,3,1,-80,-14,-1,3,-6
1499895350545914,1,0,3,55,9,0,-8,-18
1499895350561938,-10,5,1,-32,2,-1,0,-18
1499895350561938,16,-8,-11,92,6,1,0,37
1499895350561938,-5,3,5,-93,-6,3,4,59
1499895350561938,2,-3,10,11,0,0,7,66
1499895350583910,-16,3,16,16,7,0,-1,-69
1499895350583910,-3,-3,-36,-68,-19,-5,-8,-75
1499895350584905,-8,0,-10,39,9,1,-2,-25
1499895350584905,-4,0,7,53,-6,0,0,18
1499895350606906,-8,2,20,53,6,-1,-5,-17
1499895350606906,8,2,-3,-45,2,0,4,67
1499895350606906,-7,-3,-3,14,5,1,-2,-22
1499895350606906,0,3,5,43,3,-1,4,-23
1499895350621907,25,-3,-25,-7,-4,-3,-2,14
1499895350621907,-8,7,26,-101,0,-2,-4,-30
1499895350621907,-9,-17,-43,60,-15,-8,0,-26
1499895350621907,-14,-6,-8,60,0,-3,-5,-19
1499895350643909,2,0,-7,-46,-5,1,4,26
1499895350643909,-9,-3,10,51,6,4,0,-18
1499895350644907,-8,8,16,-49,4,2,-3,-76
1499895350644907,-2,-2,-2,-10,1,-3,-4,-68
1499895350666922,-19,-4,-13,21,-3,-7,-9,-53
1499895350666922,0,1,8,-15,0,2,9,6
1499895350666922,-11,-8,-10,30,-10,-7,-8,-46
1499895350666922,-9,-2,-14,-53,-1,-1,1,32
1499895350681911,-4,-3,5,-7,-4,-3,-4,-18
1499895350681911,-5,-5,-14,-25,-2,-1,-5,-7
1499895350682909,19,4,19,65,6,-1,-1,27
1499895350682909,7,2,-5,37,3,3,1,11
1499895350703927,-5,-8,-12,-95,-16,-5,-7,3
1499895350703927,-18,-3,-9,-2,-5,-2,-3,10
1499895350704913,16,-3,0,-36,-2,-3,-4,-73
1499895350704913,-12,-5,-15,13,-4,-4,-4,50
1499895350725925,6,-2,-3,-24,2,1,12,34
1499895350725925,6,6,7,29,2,0,-2,-8
1499895350733914,-25,-4,6,-10,1,-1,-7,-50
1499895350733914,-16,0,-2,-21,3,3,3,-6
1499895350739914,8,5,11,38,4,3,2,-10
1499895350739914,-1,1,0,-32,1,-2,1,26
1499895350748914,-1,0,4,34,2,0,1,77
1499895350748914,3,2,9,-47,-1,-3,-3,-33
1499895350763915,-6,-3,-7,63,-2,2,4,10
1499895350763915,-2,-7,-10,-10,-4,-2,-4,-24
1499895350765916,-7,8,7,-4,9,3,-2,-16
1499895350765916,-9,-7,5,27,-10,-6,-4,-12
1499895350786916,-1,-2,2,-72,-2,2,3,-1
1499895350786916,14,3,5,-3,-4,-6,-11,-43
1499895350787915,7,-3,0,63,0,-2,5,29
1499895350787915,9,2,2,-27,0,-1,0,-14
1499895350799918,0,2,8,5,6,3,0,5
1499895350799918,-1,-3,1,-12,2,1,-1,19
1499895350808920,-11,-11,-20,-28,-10,-6,-2,15
1499895350808920,29,4,6,56,3,3,-1,5
1499895350823920,-29,-3,-7,-41,-6,-3,-3,18
1499895350823920,5,-4,-12,-13,-4,0,2,-24
1499895350825918,2,8,25,-2,5,0,-2,28
1499895350825918,-2,-7,-27,25,-2,-1,1,16
1499895350846921,9,-6,-4,14,-2,-3,-9,2
1499895350846921,-16,0,16,31,-1,2,5,-22
1499895350847919,3,2,3,11,3,2,3,10
1499895350847919,-11,1,13,-45,-8,-3,-5,-1
1499895350859921,1,-3,-30,-20,-1,-2,-3,-2
1499895350859921,-15,0,13,7,-2,-2,-1,-52
1499895350868924,9,0,0,8,9,3,-4,-60
1499895350868924,-12,2,3,-40,-14,-3,-6,-7
1499895350883921,-11,-2,0,30,-2,-2,-1,-20
1499895350883921,21,-2,-29,-14,3,-2,0,11
1499895350885924,-1,-4,5,25,-5,0,0,-6
1499895350885924,-4,3,23,55,14,2,0,-3
1499895350906940,38,1,-7,-81,-12,-6,-2,46
1499895350906940,-38,-4,-10,-46,-1,1,-5,-29
1499895350907928,10,-2,-10,-48,-6,-3,-4,23
1499895350907928,-6,0,-5,55,7,2,2,-6
1499895350919925,7,6,25,25,0,0,0,22
1499895350919925,27,-4,-12,5,3,1,5,117
1499895350928928,5,5,-14,-28,-3,-2,-6,-57
1499895350928928,-16,-2,-3,-86,-4,1,2,-29
1499895350943924,-11,-5,-5,58,-6,-3,-5,-97
1499895350943924,-3,-4,10,23,0,-2,-3,6
1499895350945930,-6,-7,-17,34,1,-1,0,51
1499895350945930,-7,-3,-17,-3,3,-3,-4,-48
1499895350966943,-14,3,28,-53,-3,2,7,6
1499895350966943,0,-5,-19,16,-5,-12,-6,-7
1499895350967926,12,2,-4,70,6,8,1,14
1499895350967926,10,2,29,27,5,0,1,1
1499895350979929,29,2,-10,-41,-1,0,3,89
1499895350979929,-24,2,13,33,-3,-1,-5,-34
1499895350988928,-4,1,-12,-37,-2,-6,-4,-33
1499895350988928,2,-2,-7,-33,-7,-1,1,36
1499895351003945,-4,-4,-1,1,11,6,0,-15
1499895351003945,14,9,26,70,6,0,1,47
1499895351005933,-15,-2,5,-83,-6,0,-1,1
1499895351005933,-9,-6,-18,-23,-4,-2,0,-5
1499895351026946,-3,4,-2,-17,-5,-2,-2,-16
1499895351026946,-3,-1,-8,-5,1,2,1,-41
1499895351027929,-2,-1,17,19,1,1,0,-16
1499895351027929,2,-2,-7,-8,-5,-1,-3,51
1499895351039930,-5,-4,3,29,1,-5,0,-27
1499895351039930,-15,-4,7,8,-1,-1,-5,-21
1499895351048931,0,1,-5,-38,-6,-1,1,27
1499895351048931,18,2,1,35,3,3,4,32
1499895351071933,-6,-4,-8,-29,1,0,-1,5
1499895351071933,1,1,6,44,0,-1,0,21
1499895351072932,12,-5,-6,-41,-7,-5,-4,22
1499895351072932,-8,-1,18,38,-2,-2,1,-6
1499895351086938,-3,3,-2,15,3,1,-5,-67
1499895351086938,13,0,0,-23,0,1,1,33
1499895351087933,-7,-1,-9,35,0,-2,0,9
1499895351087933,7,1,1,-6,1,3,0,-6
1499895351099935,-1,4,5,-58,2,1,1,-2
1499895351099935,11,-8,10,46,-10,-4,-1,16
1499895351108939,-3,-3,-2,-6,-3,-1,1,62
1499895351108939,-8,-2,-10,24,0,-3,-3,-12
1499895351123935,2,2,-2,-4,3,0,-5,27
1499895351123935,-1,-5,-32,-46,-8,-4,-6,-17
1499895351125937,0,-3,-10,28,3,2,3,-8
1499895351125937,13,5,11,-46,-7,-4,-5,-13
1499895351146953,6,-1,-5,58,0,-3,0,25
1499895351146953,6,-5,-17,-44,-2,-4,-4,-18
1499895351147937,4,5,21,89,0,-1,-3,-60
1499895351147937,-6,-2,-8,23,7,3,1,-3
1499895351159954,-7,-6,-6,-80,-13,-6,-6,-15
1499895351159954,12,3,-6,3,2,0,-1,24
1499895351168940,-8,1,16,-13,1,2,2,1
1499895351168940,10,0,-3,28,5,1,2,10
1499895351183942,4,0,18,-6,-1,2,3,36
1499895351183942,-20,-4,-4,-6,-1,-2,-2,-17
1499895351185942,14,6,5,-36,6,0,0,-10
1499895351185942,-12,-3,0,39,-8,-7,-2,-6
1499895351206943,1,-3,-15,72,2,0,0,77
1499895351206943,-12,6,23,-86,-2,2,4,-32
1499895351207942,-5,-7,-19,-28,-12,-12,-5,-2
1499895351207942,-5,-5,-22,20,4,4,-1,-11
1499895351219956,-9,1,19,-9,-3,-3,0,37
1499895351219956,12,-6,-17,-7,-6,3,0,71
1499895351228940,-1,6,4,22,6,1,0,8
1499895351228940,9,-1,7,-3,-2,-3,-1,-4
1499895351243946,4,0,-2,27,2,1,-1,-27
1499895351243946,-23,0,-2,78,2,0,2,1
1499895351245943,-7,-4,-7,-63,-9,-2,-4,-34
1499895351245943,7,1,10,-25,0,0,0,7
1499895351266946,-7,-2,0,-23,2,-1,-2,-43
1499895351266946,12,-1,9,67,-5,-6,-5,-5
1499895351267950,-5,4,11,-34,-2,1,0,23
1499895351267950,-10,-6,-18,-31,-3,2,2,-7
1499895351279946,10,-6,-16,21,0,-2,1,53
1499895351279946,-3,0,-15,-48,-3,-1,0,-35
1499895351288945,-4,0,9,84,6,4,2,1
1499895351288945,-1,1,5,-2,-6,-4,-5,-21
1499895351303981,-11,0,-5,76,5,-1,-1,-36
1499895351303981,1,-3,-10,-78,-15,-3,-2,15
1499895351305945,-1,-5,-13,88,3,0,-1,5
1499895351305945,-10,-1,-3,-58,0,-2,1,3
1499895351327004,-2,-1,9,72,5,2,-4,-39
1499895351327004,-2,2,23,9,3,-3,-1,-40
1499895351327947,2,-2,-19,1,0,0,-2,-16
1499895351327947,-7,5,25,-87,-6,-1,-2,-30
1499895351339949,0,-10,-24,-2,-7,-2,-3,1
1499895351339949,-1,5,5,-9,1,-6,-1,0
1499895351348950,-15,-11,-21,-10,-4,3,-1,37
1499895351348950,2,-2,-13,-63,-1,-2,0,15
1499895351363979,-1,3,12,9,0,4,-1,-14
1499895351363979,-10,4,12,16,8,1,1,26
1499895351365980,-7,-6,-7,-9,0,-3,1,-8
1499895351365980,8,1,3,46,-1,-2,3,14
1499895351386954,-14,0,-14,-55,-3,-3,-2,18
1499895351386954,3,-6,-5,55,4,5,3,27
1499895351388951,-3,5,20,-18,-1,0,-1,-66
1499895351388951,1,-4,-9,16,2,4,-1,28
1499895351399952,0,-3,-11,-31,-11,-8,-2,3
1499895351399952,7,3,16,-27,0,0,-2,-26
1499895351408974,-1,-1,-4,-1,1,-1,-1,20
1499895351408974,13,-4,0,26,1,0,-1,8
1499895351423961,1,8,-2,24,5,3,0,4
1499895351423961,-6,-10,-17,-51,-9,-1,-6,-60
1499895351425957,6,-1,15,33,0,-2,-2,-13
1499895351425957,-7,2,-3,2,-1,-2,-2,-15
1499895351445956,-13,-4,-6,32,1,-1,-1,-57
1499895351445956,9,2,-2,-18,3,4,4,11
1499895351453955,2,3,13,-38,-3,-3,-3,10
1499895351453955,-3,-1,5,6,-3,1,-1,-2
1499895351459961,1,-6,-7,-22,-2,-1,0,-16
1499895351459961,-2,1,1,6,0,2,-1,71
1499895351468957,2,-5,-11,34,2,-1,-2,34
1499895351468957,-1,6,8,38,1,2,3,39
1499895351483955,1,-4,11,-44,-10,-8,-7,-75
1499895351483955,1,-3,3,32,-3,1,-1,-16
1499895351485958,-1,-2,-15,-40,-2,-1,0,2
1499895351485958,10,2,8,-23,1,-1,0,-18
1499895351506958,8,-3,-3,82,1,0,-1,46
1499895351506958,-4,1,-1,-81,-4,0,1,-31
1499895351507957,-1,4,4,-10,-5,-3,-2,4
1499895351507957,-2,-4,-13,-72,-2,0,-1,-11
1499895351528994,9,-3,6,115,3,1,-1,30
1499895351528994,-18,-2,27,40,13,3,2,-34
1499895351530963,5,0,-4,-33,-4,2,0,-2
1499895351530963,1,2,0,-46,6,0,0,8
1499895351543985,2,-4,-3,16,-6,-3,-1,88
1499895351543985,1,0,-21,16,-3,-2,0,10
1499895351545962,5,-1,2,-2,-1,-2,-5,-72
1499895351545962,-3,0,6,32,1,-3,-6,-18
1499895351567009,5,3,2,-34,1,2,3,20
1499895351567009,5,-1,-3,-21,1,1,0,-27
1499895351567962,-17,1,7,67,5,-3,1,3
1499895351567962,9,-9,-21,-55,-16,-7,-7,25
1499895351588962,-9,-5,-2,0,0,-1,-4,-48
1499895351588962,5,1,-8,-42,-1,1,-1,29
1499895351590963,6,0,5,-9,4,2,2,17
1499895351590963,-8,-4,0,43,1,0,2,-20
1499895351603033,5,5,8,-35,3,2,2,-15
1499895351603033,-12,-2,-4,37,-6,-4,-2,-36
1499895351610010,-9,0,-9,-62,4,0,3,39
1499895351610010,-22,-8,-2,40,-16,-4,-3,-41
1499895351626985,16,1,10,-34,-2,-3,-4,-43
1499895351626985,24,-5,-22,9,-2,-2,-4,63
1499895351627965,-13,2,9,0,-1,2,4,-5
1499895351627965,-2,0,-12,26,2,0,0,12
1499895351648966,-12,-10,-17,-18,2,1,-5,5
1499895351648966,-8,2,3,3,-3,-3,-3,6
1499895351650967,15,-1,5,-55,-1,1,4,18
1499895351650967,-16,0,-10,22,8,0,-4,4
1499895351663968,-4,0,-19,-61,-21,-7,-1,-16
1499895351663968,1,-2,8,19,4,-7,0,36
1499895351665967,1,-7,-13,22,-5,6,-2,-22
1499895351665967,-10,7,21,14,10,5,2,-2
1499895351686967,-1,-1,1,7,2,1,0,31
1499895351686967,19,-2,-21,44,-1,-3,-2,27
1499895351687968,-7,2,2,-68,-9,-6,-3,14
1499895351687968,-4,-10,-9,54,0,-2,-3,6
1499895351709031,-3,7,12,-42,4,1,1,-22
1499895351709031,-11,-2,-8,-1,-2,-2,1,-27
1499895351710975,9,-5,-7,44,1,-2,-3,1
1499895351710975,3,0,5,-33,-2,-3,-3,-51
1499895351722974,-23,5,15,14,5,1,5,97
1499895351722974,5,1,-13,-73,-4,-6,-7,-74
1499895351729971,-4,-3,13,108,2,4,3,-1
1499895351729971,11,-4,-28,-40,-14,-6,-4,27
1499895351746976,-16,-6,2,15,0,-2,-2,-10
1499895351746976,-3,4,13,-39,4,5,2,3
1499895351747974,-15,-2,-4,106,1,-5,-4,6
1499895351747974,5,2,8,-78,-4,1,3,10
1499895351769016,13,-7,-2,-6,-5,-6,-4,-25
1499895351769016,19,1,0,-10,-3,5,4,53
1499895351770974,-2,4,22,-15,4,0,-2,-1
1499895351770974,-7,-3,-7,45,3,-1,-1,-7
1499895351782972,-3,2,3,-41,2,2,-3,41
1499895351782972,-11,-5,-5,58,-5,-2,0,-3
1499895351789974,4,-1,-7,-46,0,-2,-2,-1
1499895351789974,-2,1,13,32,2,-2,-1,2
1499895351807005,7,-4,-4,44,3,1,1,-3
1499895351807005,-10,2,2,-57,-5,1,1,-13
1499895351807975,4,-1,-16,15,-3,-4,-1,0
1499895351807975,-2,0,7,-11,-7,2,0,12
1499895351829014,15,-7,-26,22,-6,-3,-4,61
1499895351829014,6,6,42,14,6,2,2,-14
1499895351830996,0,-4,-22,-33,-6,-3,-5,-16
1499895351830996,0,3,33,-7,3,-3,-1,-16
1499895351842984,-3,-4,-31,-18,-5,-1,0,-31
1499895351842984,-30,-9,-25,17,-4,-5,-13,-85
1499895351849979,13,-1,-14,-7,0,0,2,55
1499895351849979,-4,-8,1,-19,-10,-8,-2,10
1499895351866998,12,4,27,-24,2,4,1,-13
1499895351866998,21,0,6,5,1,0,5,21
1499895351867979,0,4,-15,-5,3,2,-1,-27
1499895351867979,-2,-2,-6,0,-4,-2,-1,-8
1499895351888983,-9,5,15,33,1,0,0,-59
1499895351888983,3,-9,-24,5,1,-1,0,16
1499895351890980,2,7,31,-25,7,4,3,9
1499895351890980,3,-2,-40,-63,-10,-1,1,-3
1499895351903045,3,-3,25,55,-7,-6,0,44
1499895351903045,17,-1,3,56,7,0,2,25
1499895351912005,-9,-9,-19,-39,-12,-6,-6,-31
1499895351912005,0,4,13,25,11,4,1,-7
1499895351926985,4,4,-13,-41,1,3,6,54
1499895351926985,-4,4,3,58,2,0,-2,4
1499895351927984,6,-8,-2,-85,-12,-4,-2,14
1499895351927984,-3,-6,-1,50,-2,-10,-1,12
1499895351949014,-8,-1,-11,-96,-7,4,-1,-18
1499895351949014,1,0,5,21,2,1,1,50
1499895351950983,-1,1,23,74,1,-1,1,-17
1499895351950983,-3,2,-19,-20,3,3,2,0
1499895351963988,-6,-2,-20,-23,-3,-6,-2,-35
1499895351963988,-7,4,33,56,4,0,-2,-14
1499895351969985,-9,-2,-1,-107,-10,-3,-4,-26
1499895351969985,18,1,7,57,2,1,2,37
1499895351986984,-5,4,5,3,10,6,2,-26
1499895351986984,-9,-7,-11,-16,-8,-4,-3,-21
1499895351987985,-13,1,2,-8,-3,-2,1,4
1499895351987985,20,1,-3,39,1,1,3,61
1499895352008987,-18,3,11,17,8,-2,-2,-67
1499895352008987,-7,-2,-4,-36,0,0,2,-13
1499895352010992,-14,3,8,3,-8,-1,-1,-19
1499895352010992,-16,-5,-1,11,0,-4,-3,-5
1499895352022991,9,1,-3,22,-1,0,-2,8
1499895352022991,-6,-4,-6,2,-2,-2,-2,2
1499895352031988,8,1,0,41,9,4,0,21
1499895352031988,-2,4,4,-32,1,2,-3,-25
1499895352046996,6,-8,-9,-63,-13,0,1,19
1499895352046996,-4,-1,-3,-17,1,-6,-4,-18
1499895352047990,2,2,10,56,6,4,4,-3
1499895352047990,-6,1,3,36,3,-2,-4,-46
1499895352069047,4,1,5,19,-3,-6,-3,3
1499895352069047,5,1,-1,-74,-4,2,5,42
1499895352070991,-3,2,-4,24,4,1,-3,-77
1499895352070991,6,-4,-8,23,1,-3,-2,9
1499895352083008,-19,-5,-3,-10,-7,-7,-4,-13
1499895352083008,-2,1,-3,1,-5,-3,-4,3
1499895352092001,5,-3,-9,-48,-8,0,-1,16
1499895352092001,-5,-8,-9,-13,-4,-1,-3,-13
1499895352107005,-7,3,5,34,6,3,0,-11
1499895352107005,-9,0,-4,-14,-2,-1,-1,-19
1499895352107994,5,-4,12,37,-1,-5,-5,17
1499895352107994,6,-2,-29,-36,-3,-2,-2,9
1499895352129029,-16,-5,1,55,-2,-5,0,27
1499895352129029,-14,-4,-5,-25,-1,0,-1,-60
1499895352131008,8,-3,3,2,-4,-5,-4,21
1499895352131008,-12,4,19,-59,-11,-1,3,59
1499895352142996,20,1,-5,40,8,-1,-4,-76
1499895352142996,-10,-4,-31,-18,-5,-4,-3,9
1499895352151997,4,1,20,56,6,-1,-1,3
1499895352151997,-8,-2,-14,-11,1,1,0,-36
1499895352166996,15,0,17,4,3,0,2,30
1499895352166996,-1,4,14,-6,-3,2,-1,-5
1499895352167997,-2,-15,-32,-32,-8,-13,-3,26
1499895352167997,-14,4,18,31,1,6,1,7
1499895352188997,3,-1,-6,12,5,-1,2,-4
1499895352188997,10,3,4,-31,-2,-5,-1,4
1499895352190997,-11,-6,-17,18,0,-1,-1,-2
1499895352190997,-4,1,8,28,0,-1,-3,-64
1499895352203042,2,-3,-12,-58,-10,-1,-4,17
1499895352203042,-5,5,24,84,10,3,3,22
1499895352212006,-6,4,-5,-31,2,-1,-1,-2
1499895352212006,5,-6,-3,-12,-2,-1,-1,-18
1499895352227007,5,0,-11,2,2,1,0,-4
1499895352227007,7,0,3,29,0,-1,-1,1
1499895352228002,-3,-1,-9,-19,-5,-3,-1,14
1499895352228002,-4,3,7,22,2,-2,-1,0
1499895352249011,-3,-1,-4,-4,-1,0,0,3
1499895352249011,15,-1,4,-16,1,2,2,10
1499895352251001,4,0,2,-7,-1,1,0,1
1499895352251001,5,1,7,41,6,2,2,15
1499895352263001,-14,3,8,-1,-13,-5,-2,-8
1499895352263001,4,-12,-7,-79,-9,-6,-5,23
1499895352272003,4,4,-1,-17,4,3,0,-2
1499895352272003,14,-3,-9,-14,2,1,0,25
1499895352287003,-3,-6,4,-4,4,0,2,-9
1499895352287003,-7,1,5,65,-4,-3,-1,-25
1499895352288004,-4,2,-5,-75,-5,-1,0,-8
1499895352288004,14,0,0,54,1,0,1,55
1499895352309049,-9,-7,-9,-45,-6,-11,-9,-56
1499895352309049,-7,0,-2,-9,5,8,2,2
1499895352311010,-21,-1,0,89,6,2,1,10
1499895352311010,16,-3,-17,-85,-12,-2,0,-22
1499895352323004,-9,8,17,39,5,1,-2,2
1499895352323004,-2,-8,-16,2,-6,-5,-4,5
1499895352332009,-2,0,-6,-23,-1,-2,0,-8
1499895352332009,-5,9,19,51,8,2,0,-7
1499895352347006,-5,-14,-33,-12,-7,-3,-3,13
1499895352347006,5,5,-1,-63,-2,0,1,3
1499895352348007,-7,-7,-6,35,-2,-1,-3,-36
1499895352348007,-6,-3,10,0,-4,-3,-4,29
1499895352369021,15,-2,-19,11,-1,1,1,-18
1499895352369021,-8,4,13,58,4,-1,0,-10
1499895352371012,2,-1,-3,-37,-4,1,3,47
1499895352371012,0,-2,9,-21,0,-1,-4,-47
1499895352383008,8,3,-10,26,3,1,0,35
1499895352383008,-11,-12,-15,-20,-5,-4,-2,0
1499895352392010,30,3,8,33,-5,0,1,32
1499895352392010,-28,-1,-9,-56,-4,-5,0,-18
1499895352407014,1,-2,13,-44,-5,-3,-3,35
1499895352407014,-9,2,4,58,3,0,-1,8
1499895352408012,12,-5,-10,13,1,-2,-2,-8
1499895352408012,0,-1,5,-19,0,1,-1,-2
1499895352429011,-4,1,10,-19,-5,-4,-4,-1
1499895352429011,-13,-4,-20,-14,-6,-1,-3,-2
1499895352431027,-3,-2,-3,0,1,-1,-1,31
1499895352431027,6,-4,-19,-35,0,-3,-7,-15
1499895352443033,-2,6,31,81,-4,-5,4,31
1499895352443033,5,-5,-17,8,0,2,-2,-20
1499895352452017,-16,0,9,-48,-2,0,-2,-26
1499895352452017,9,2,-7,4,3,4,2,2
1499895352467022,-4,1,-1,2,2,0,-1,-12
1499895352467022,10,4,16,25,-2,-3,-1,34
1499895352468020,-1,1,-15,-26,1,-1,-1,-18
1499895352468020,-10,-7,-3,9,-6,-4,-1,-6
1499895352489020,8,0,12,42,5,0,-1,-17
1499895352489020,-22,0,-20,-14,-3,0,3,-13
1499895352491015,-1,2,31,12,1,-1,-3,-1
1499895352491015,-4,-4,-11,5,1,-1,-1,8
1499895352512029,7,0,-9,-53,-1,3,0,0
1499895352512029,24,-2,-8,31,1,-2,-1,74
1499895352513016,-13,3,-1,27,4,1,1,-7
1499895352513016,3,-1,-4,9,1,0,0,-11
1499895352527026,-6,-4,1,-9,-4,0,-1,33
1499895352527026,7,-2,2,-8,-1,-3,-3,-57
1499895352528019,5,-3,2,16,-2,-4,-4,12
1499895352528019,1,5,7,-28,-1,0,2,19
1499895352549018,-6,-5,-23,-3,-2,1,-1,-8
1499895352549018,3,-5,6,-25,-7,-4,-3,7
1499895352551037,-6,2,13,25,6,1,0,-30
1499895352551037,-7,-5,-32,40,-7,-2,-4,-31
1499895352572023,-6,8,26,-82,-4,1,0,-24
1499895352572023,7,-8,-13,-11,-4,-6,-1,4
1499895352573019,-1,-2,-13,0,0,4,0,-6
1499895352573019,1,1,10,64,0,-9,-4,12
1499895352587019,4,3,-4,-64,0,8,1,-5
1499895352587019,-5,0,1,37,-2,-3,-2,-12
1499895352588022,-2,-1,14,18,3,-6,0,-11
1499895352588022,6,-8,-11,14,-2,-2,-4,11
1499895352609086,-6,1,-3,-3,1,0,1,3
1499895352609086,-9,-1,-2,-33,-6,-2,-2,-55
1499895352611022,-3,1,1,0,6,1,-2,9
1499895352611022,8,-1,-4,18,-3,-1,-2,-3
1499895352632022,3,-7,-20,-27,-1,-1,-3,-25
1499895352632022,-2,4,-2,-6,-6,2,0,8
1499895352633023,-5,-5,-10,-5,-9,-4,0,-4
1499895352633023,-13,6,19,-30,4,2,2,-16
1499895352646026,-4,-4,-7,75,6,-1,1,-13
1499895352646026,11,3,-3,-41,7,2,2,18
1499895352653024,0,-3,-6,-5,-6,1,-2,3
1499895352653024,-10,-4,15,-35,-14,-3,0,30
1499895352669043,-2,-4,-7,10,5,-2,-1,-2
1499895352669043,-6,-1,4,-2,3,-2,0,-6
1499895352671029,13,3,-1,16,-1,1,0,-2
1499895352671029,-4,5,16,5,6,2,1,2
1499895352691031,-14,-5,-22,41,-8,-2,-2,-37
1499895352691031,27,3,14,-68,3,3,2,34
1499895352693028,7,5,13,-24,-4,-5,-6,-48
1499895352693028,-15,-11,-13,-34,-14,-7,-6,-32
1499895352706087,-5,-5,-2,39,4,-2,0,-17
1499895352706087,-12,2,0,-39,1,-2,2,7
1499895352713029,-8,-5,-13,-10,1,5,1,5
1499895352713029,16,3,14,23,8,7,3,23
1499895352729064,13,2,13,12,2,-2,-2,25
1499895352729064,-16,-1,-1,-2,-12,-3,-4,-52
1499895352731044,-10,-2,-5,2,-4,-5,-1,4
1499895352731044,8,-3,-15,3,2,-2,-2,-18
1499895352752030,3,-6,-15,12,-1,-1,-2,53
1499895352752030,-1,-2,8,30,0,-1,2,21
1499895352753030,-4,0,-4,-20,-3,-3,0,-11
1499895352753030,-4,2,-3,-12,2,1,0,-4
1499895352766045,-2,2,5,3,1,0,1,5
1499895352766045,-10,-8,-16,59,-1,-5,-5,-6
1499895352773046,-10,-1,-3,-85,-5,0,2,36
1499895352773046,3,0,11,14,5,1,-4,-18
1499895352789035,10,-3,-9,-3,-5,-3,-4,-1
1499895352789035,7,1,3,-4,3,2,0,25
1499895352791032,6,2,11,69,4,2,3,20
1499895352791032,4,-2,1,-23,-1,-4,-3,-21
1499895352812036,-4,2,3,-38,-2,-2,-2,5
1499895352812036,18,1,5,28,7,2,-2,-2
1499895352813032,-6,-3,2,41,-5,-4,-3,-16
1499895352813032,-16,-1,-1,-54,-3,-2,2,-1
1499895352826074,-8,-3,-7,-5,-1,2,-1,20
1499895352826074,-33,0,9,29,2,-2,0,-10
1499895352833034,18,0,-12,-64,-3,6,1,16
1499895352833034,-3,-8,-23,9,-9,-4,1,29
1499895352849034,-2,-3,10,-2,4,-1,-1,16
1499895352849034,-1,-3,-3,-13,-6,-3,-2,-9
1499895352851035,-3,0,2,16,-2,-3,-4,4
1499895352851035,-4,-3,-13,23,-2,1,0,-17
1499895352872039,6,-3,-3,-13,-8,-4,-1,-6
1499895352872039,1,-2,11,10,4,1,-2,3
1499895352873036,5,2,4,-30,-15,-7,-5,-6
1499895352873036,-1,0,3,19,8,-1,2,3
1499895352886037,-3,0,2,47,2,4,-1,-5
1499895352886037,5,-5,-29,-100,-11,-2,-2,-6
1499895352893039,-2,-3,0,41,9,1,0,-1
1499895352893039,1,1,12,-15,0,2,-2,12
1499895352909053,-1,-1,-12,53,-9,-2,1,18
1499895352909053,0,3,23,-1,4,-2,-2,1
1499895352911041,-4,-5,-17,-46,-7,-4,-2,-11
1499895352911041,0,-1,4,-18,0,-2,0,19
1499895352931043,7,4,13,-15,3,2,2,3
1499895352931043,-7,4,14,44,2,4,-1,-23
1499895352933041,-6,-10,-16,-23,-6,-4,-1,-7
1499895352933041,16,3,9,39,0,0,-2,24
1499895352946040,-32,-2,-8,20,-3,-2,-2,-23
1499895352946040,2,0,-9,-29,-3,0,2,12
1499895352953042,-23,-4,-1,10,6,-2,-7,-59
1499895352953042,15,1,-3,6,-8,-5,-1,11
1499895352969055,0,3,18,18,3,6,0,-8
1499895352969055,-9,-11,-33,-34,-5,-2,-5,-55
1499895352971043,2,-2,0,35,3,-2,2,7
1499895352971043,-9,2,2,-5,2,0,2,-20
1499895352991043,1,2,8,-33,-8,-6,-4,-19
1499895352991043,-3,-3,-9,33,3,-1,0,16
1499895352993043,10,0,2,-12,0,3,0,16
1499895352993043,-16,-2,1,2,-5,-4,-7,-19
1499895353005057,2,1,11,7,-12,-6,-2,0
1499895353005057,6,3,-1,22,6,1,1,6
1499895353014050,-8,-1,4,14,-1,-3,-1,-1
1499895353014050,-4,1,3,-15,3,5,1,-6
1499895353029067,6,-6,-32,-41,3,-4,-3,1
1499895353029067,-8,-1,9,23,-8,-3,-2,-2
1499895353031046,6,3,17,25,3,3,2,15
1499895353031046,-10,-1,-12,-17,-6,0,-1,-5
1499895353051048,5,3,15,9,5,1,0,-16
1499895353051048,6,-6,-15,-35,-2,0,1,54
1499895353053047,-2,1,7,14,4,-1,-1,5
1499895353053047,-8,2,5,-37,-4,5,1,-8
1499895353065063,-4,-8,-8,83,3,-5,-2,-12
1499895353065063,-3,1,7,-76,-4,-2,-2,-43
1499895353074048,0,-5,13,13,0,-4,0,-5
1499895353074048,4,3,-2,3,1,-2,-1,-13
1499895353089051,-7,-5,-8,-44,-5,1,1,1
1499895353089051,10,4,6,31,4,-4,3,54
1499895353091050,16,2,-1,26,-6,3,-1,20
1499895353091050,6,-4,-10,-31,-1,-2,0,16
1499895353112058,-12,0,-6,-29,1,-3,-3,-30
1499895353112058,6,-6,-19,-30,-5,1,0,2
1499895353113051,-3,-3,-9,24,-4,-2,1,-2
1499895353113051,0,-4,9,23,-2,-4,-4,18
1499895353126052,-2,5,20,-6,0,2,0,0
1499895353126052,1,0,-3,-2,-3,0,-3,-46
1499895353134051,0,6,-8,-28,6,3,0,-8
1499895353134051,0,-10,-16,21,-1,-5,-2,-13
1499895353149052,-15,-2,-9,2,3,-1,0,-13
1499895353149052,1,0,12,4,2,0,0,-2
1499895353151053,-17,0,-5,-24,-7,-1,0,14
1499895353151053,-14,0,10,18,-2,-3,-3,-15
1499895353171070,18,-1,-9,2,1,2,2,19
1499895353171070,-6,-3,10,14,-7,-2,1,48
1499895353173054,1,1,-2,7,2,-1,-4,-43
1499895353173054,-1,0,2,42,7,-3,0,18
1499895353185058,-1,-5,-15,-47,-10,1,-1,0
1499895353185058,-7,3,2,20,1,2,1,2
1499895353194056,-2,2,-10,-34,0,0,-1,18
1499895353194056,-1,-4,-15,-20,-3,1,0,-16
1499895353209072,8,2,16,38,1,-6,-2,13
1499895353209072,6,1,2,30,2,-2,-4,-4
1499895353211056,11,-1,-3,-18,-5,-8,-3,-29
1499895353211056,0,4,-8,-33,4,8,1,-3
1499895353232057,4,4,-4,-20,1,3,2,11
1499895353232057,-17,-6,-2,39,-2,-2,0,-25
1499895353234059,-7,-5,15,-41,-6,-5,-4,12
1499895353234059,12,4,16,97,5,0,2,38
1499895353245063,-5,-3,-8,-122,-5,-2,-2,-19
1499895353245063,-6,3,-1,7,3,4,-1,-31
1499895353254059,0,0,10,46,-1,-1,-3,-4
1499895353254059,-5,-6,-9,-16,-6,-4,-3,6
1499895353269074,2,5,19,33,6,3,1,-2
1499895353269074,-3,-3,-6,-3,0,-1,-1,-10
1499895353271079,2,-4,-29,-9,2,0,-1,13
1499895353271079,-5,3,7,-30,-2,-1,-1,-14
1499895353291061,-6,-4,9,43,-6,-2,1,-12
1499895353291061,1,2,-3,-67,-7,-4,-4,24
1499895353293061,-3,-5,2,16,0,-3,-1,-8
1499895353293061,-6,-9,-31,23,1,0,0,-6
1499895353305102,-2,1,14,26,6,-1,-1,-5
1499895353305102,-1,-2,-11,-59,-11,-3,-1,11
1499895353314068,-13,3,4,14,0,5,3,-13
1499895353314068,4,2,8,4,2,-2,-1,-10
1499895353329104,0,-7,-8,-19,0,-2,-3,7
1499895353329104,10,0,7,34,0,-2,0,17
1499895353331084,3,2,3,-15,1,-5,1,13
1499895353331084,-3,-9,-34,-15,-9,-1,-2,-4
1499895353351086,-2,2,14,-4,7,0,0,-28
1499895353351086,-7,-2,-11,28,2,1,1,-21
1499895353353065,3,-1,-6,4,-1,-1,-1,11
1499895353353065,3,3,16,42,-4,-1,-1,-2
1499895353365079,5,-5,-10,-83,-13,-4,-2,4
1499895353365079,-7,1,-4,6,3,0,-3,0
1499895353374065,14,0,8,-1,-1,-1,1,76
1499895353374065,-6,1,12,-13,2,-2,-1,-7
1499895353389066,2,0,-15,63,1,-4,-3,16
1499895353389066,1,-2,17,-56,-3,1,0,-12
1499895353391066,-4,-5,-27,-9,-7,1,-1,-19
1499895353391066,8,2,12,16,8,-1,-1,9
1499895353412071,0,-5,-5,-35,-4,-1,0,12
1499895353412071,-1,4,18,75,2,-4,1,8
1499895353413068,-6,-6,-26,4,-2,2,0,-27
1499895353413068,7,2,25,-53,-3,-2,1,14
1499895353434073,-26,-6,-28,19,-2,-3,-3,-27
1499895353434073,10,0,5,-14,-2,1,0,-2
1499895353436069,-1,2,6,-30,-3,-1,0,-13
1499895353436069,-4,-4,-1,11,-1,-1,-2,-6
1499895353449096,-1,4,14,-8,-3,-5,-1,42
1499895353449096,-12,-8,-11,20,0,1,-3,-15
1499895353451092,10,-5,-17,13,3,-1,1,-31
1499895353451092,-4,3,-9,-93,-6,2,2,-6
1499895353471111,2,4,8,44,4,-1,0,4
1499895353471111,-2,-5,-2,-24,-7,-2,-1,-1
1499895353473071,-16,0,15,15,-2,-5,-6,4
1499895353473071,-8,-1,-9,0,3,1,2,-11
1499895353494074,3,4,3,-7,0,1,-1,-5
1499895353494074,0,0,-6,6,1,-3,-3,-19
1499895353500095,-1,4,15,17,5,4,3,-5
1499895353500095,6,-6,-21,-49,-6,-3,1,38
1499895353509114,-5,-3,-10,-10,-9,-6,-2,-5
1499895353509114,2,4,14,30,1,5,2,11
1499895353511073,-2,-4,-4,48,5,-6,-3,7
1499895353511073,3,3,8,-34,-4,-2,-2,9
1499895353531074,9,-3,-1,27,2,4,2,-7
1499895353531074,-1,2,-1,-45,-3,1,2,5
1499895353533078,-1,-4,-5,21,-1,-3,-4,0
1499895353533078,-7,-8,-2,-26,-7,-4,-7,-13
1499895353554080,2,-4,-13,8,-3,-2,-2,9
1499895353554080,-8,5,17,-12,6,1,-1,-2
1499895353556092,12,1,-16,16,-1,1,-1,0
1499895353556092,10,-1,5,31,1,-2,-1,3
1499895353568118,-10,-1,5,-27,-2,-1,-1,-28
1499895353568118,0,-5,-25,39,0,-4,-2,18
1499895353575117,-8,-4,3,-58,-5,0,0,-36
1499895353575117,3,3,-1,42,1,2,0,-25
1499895353591078,10,-2,-2,6,-1,0,-2,17
1499895353591078,7,-6,-11,24,3,-2,0,1
1499895353593079,-4,-2,4,-22,-6,-1,-1,8
1499895353593079,2,4,2,48,-2,-1,-1,-9
1499895353614085,1,-2,6,3,0,-5,-4,-8
1499895353614085,1,-4,2,8,1,1,-2,-10
1499895353617079,4,1,0,5,2,2,3,48
1499895353617079,-6,-2,-2,-43,-2,0,0,-25
1499895353628126,0,-4,-4,29,1,1,-1,12
1499895353628126,-2,3,-2,-6,-2,-4,-3,-3
1499895353637102,8,4,19,-79,-4,1,1,38
1499895353637102,-21,-1,-13,71,2,-3,-3,-51
1499895353651084,0,-2,-20,-93,-6,-2,-1,5
1499895353651084,-4,-9,-8,46,-11,-8,-5,-5
1499895353653083,-7,3,22,2,4,0,-4,4
1499895353653083,-13,-1,1,22,7,4,1,2
1499895353674100,17,2,0,13,3,-1,-1,13
1499895353674100,-3,6,12,-6,2,1,2,-5
1499895353680084,-5,-13,-28,-27,-6,-2,-1,-17
1499895353680084,15,1,11,29,2,-3,-2,-16
1499895353688103,-4,2,9,-30,-6,0,0,3
1499895353688103,-1,-7,-20,20,0,-1,0,-3
1499895353695103,0,1,-7,-64,-9,-3,-2,-13
1499895353695103,-4,-4,0,9,0,0,0,13
1499895353712129,-5,3,12,16,4,1,3,-48
1499895353712129,13,5,9,-36,3,-1,-1,25
1499895353713085,-14,-12,-29,33,-13,-7,-6,-56
1499895353713085,-1,-3,-10,19,0,-4,-5,-4
1499895353734103,2,1,3,-53,-5,-2,-2,12
1499895353734103,-2,5,9,2,4,2,2,6
1499895353736108,-2,6,5,8,9,1,0,-12
1499895353736108,-2,-8,-11,13,-4,-1,1,4
1499895353748088,-4,-3,-12,25,1,-4,-2,0
1499895353748088,-8,-1,-5,-30,-3,3,1,-18
1499895353755091,16,7,9,-4,-3,1,-2,25
1499895353755091,-3,-2,-3,-25,-3,-3,-2,-5
1499895353771090,-2,2,12,56,6,2,2,10
1499895353771090,-8,-7,-15,-29,-4,-5,-3,-11
1499895353773088,2,2,19,-51,-13,-8,-2,2
1499895353773088,1,-3,-12,-16,-2,4,1,19
1499895353794090,-16,3,12,-3,3,3,1,7
1499895353794090,4,-10,-19,58,-5,-5,-5,-26
1499895353796089,16,2,2,23,3,-2,0,25
1499895353796089,-5,0,6,-5,-1,0,1,2
1499895353808129,4,2,4,-8,0,2,1,27
1499895353808129,-4,-3,-6,12,-1,-2,-5,-4
1499895353816093,-3,1,7,-7,1,0,0,2
1499895353816093,-3,1,3,-24,-2,0,1,7
1499895353831109,3,-2,-7,40,0,1,0,14
1499895353831109,-2,1,4,-48,-3,-1,1,9
1499895353833093,-4,-2,-7,54,6,2,0,-15
1499895353833093,-2,0,1,-6,-4,-3,-4,18
1499895353854134,-4,-7,0,-10,-3,-1,-2,-28
1499895353854134,8,-1,-10,16,3,2,0,6
1499895353856110,-2,3,22,-7,1,0,2,5
1499895353856110,-3,-12,-21,-31,-10,-6,-5,-9
1499895353868096,-1,-1,-6,12,0,-2,-1,1
1499895353868096,7,4,12,-20,0,-2,1,35
1499895353875113,-9,-5,-26,19,1,3,-1,-26
1499895353875113,1,6,17,-8,-2,0,1,9
1499895353891115,2,-5,-26,3,-1,-6,-3,-18
1499895353891115,-20,-1,16,-35,-2,4,-1,-30
1499895353893095,5,-2,9,38,-4,-5,-1,13
1499895353893095,4,4,-4,-16,4,1,0,3
1499895353914109,-10,-4,5,68,1,-2,-6,-29
1499895353914109,6,2,-4,-30,0,-3,1,5
1499895353916096,7,-3,-5,-6,1,1,0,4
1499895353916096,-7,3,3,-18,-1,0,0,-19
1499895353928098,-1,2,11,13,-1,0,0,7
1499895353928098,0,-3,-16,-13,-1,-3,-2,-3
1499895353937098,-10,-2,6,10,0,1,0,-12
1499895353937098,6,4,5,-5,3,2,1,11
1499895353951119,0,0,7,23,0,0,1,35
1499895353951119,-6,0,8,-10,-5,-2,-2,7
1499895353953099,-5,-8,-31,-50,-11,-7,-6,-8
1499895353953099,1,4,14,25,4,0,0,12
1499895353974104,3,2,4,-31,0,1,1,2
1499895353974104,-5,-4,0,30,0,-3,-2,-1
1499895353976100,18,5,12,20,8,1,-1,23
1499895353976100,-11,-8,-15,-8,-7,-2,0,-13
1499895353988101,12,5,10,-18,4,3,0,-3
1499895353988101,10,3,5,-15,1,-1,1,10
1499895353997102,-11,0,-2,18,0,2,0,7
1499895353997102,12,-1,8,-28,-4,-8,-5,17
1499895354012127,7,-4,-4,-26,-1,5,2,3
1499895354012127,-8,-1,4,55,4,1,0,-7
1499895354013102,-6,-3,-3,9,3,-1,1,2
1499895354013102,-3,4,-6,-3,2,0,3,27
1499895354034107,-1,-3,-6,-5,-7,-6,-6,-25
1499895354034107,-1,3,23,-4,-7,-4,-2,1
1499895354036108,-9,-6,-12,31,4,-1,-3,-2
1499895354036108,11,1,22,-81,-1,3,2,43
1499895354048106,2,-3,-38,6,-3,-2,-2,1
1499895354048106,0,1,22,-6,-3,-2,-2,-14
1499895354057104,-4,2,5,35,-1,1,2,6
1499895354057104,-4,-2,-1,31,2,1,0,-14
1499895354071147,-8,1,20,3,0,-1,-1,4
1499895354071147,4,2,-11,-16,2,2,1,-7
1499895354073106,2,-5,-5,14,3,-3,-3,3
1499895354073106,5,-1,5,19,-1,1,-3,-5
1499895354094140,-7,1,-10,-37,-10,-4,-3,-31
1499895354094140,-6,-2,-3,22,2,-2,-2,8
1499895354096108,0,-2,-4,-5,-4,-4,-3,-7
1499895354096108,0,-2,-10,17,2,2,0,-8
1499895354108130,-2,4,15,9,2,-4,0,-7
1499895354108130,1,-11,-32,-69,-5,3,-3,3
1499895354117109,-1,-1,8,50,-2,-4,0,-8
1499895354117109,-15,-5,-9,-6,-6,-4,-2,-12
1499895354131111,9,6,25,21,2,1,2,-7
1499895354131111,-1,-11,-38,-63,-9,-5,-3,13
1499895354133110,-1,-1,-6,-23,0,1,0,-7
1499895354133110,12,2,-4,42,3,-1,-1,-19
1499895354154132,-25,-2,-4,-40,-5,-2,-3,39
1499895354154132,7,6,25,31,6,3,3,10
1499895354156110,-14,-7,-24,-47,-5,-2,-4,-14
1499895354156110,5,3,7,12,0,-2,-3,-10
1499895354168128,-4,-5,-1,-2,4,0,0,2
1499895354168128,-2,-4,-14,12,-3,2,0,-7
1499895354177115,0,6,13,-30,1,2,1,3
1499895354177115,-6,3,16,46,-9,-2,-1,-6
1499895354191113,-2,-11,-37,-35,-5,-2,-1,-9
1499895354191113,0,1,-4,10,-3,-9,-5,-6
1499895354193113,0,4,10,13,2,4,2,-4
1499895354193113,0,1,12,2,2,0,0,-3
1499895354214114,2,-4,-2,-27,-1,1,-1,-1
1499895354214114,-1,-1,-5,25,0,1,-1,-5
1499895354216114,-2,-5,-5,10,1,-1,0,5
1499895354216114,-11,-1,-5,-50,-2,0,-1,0
1499895354228122,-2,-5,-1,22,-7,-3,-3,11
1499895354228122,-1,-4,-24,-46,-2,-3,-1,-7
1499895354237114,7,4,16,-2,2,3,3,26
1499895354237114,-6,-5,-21,63,3,-2,-1,-1
1499895354251117,7,1,14,17,3,0,-1,-38
1499895354251117,-18,2,5,-19,-2,-3,-3,8
1499895354253116,-5,-2,-20,-8,-4,0,0,-29
1499895354253116,0,-3,17,21,0,0,-2,0
1499895354274118,4,2,-6,-35,-1,-1,-1,14
1499895354274118,11,6,30,65,3,2,3,7
1499895354276118,6,-2,-10,-41,-5,-3,-2,-4
1499895354276118,-1,-2,-4,-22,2,2,1,2
1499895354288118,-6,-3,-5,-14,1,0,1,3
1499895354288118,3,0,1,37,1,-1,-1,34
1499895354297120,-3,2,16,-46,-6,-4,-1,-1
1499895354297120,5,-5,-29,14,-2,0,-2,-12
1499895354312169,-8,-6,-4,16,0,-4,-3,14
1499895354312169,12,4,13,6,2,2,1,-9
1499895354313120,-2,2,-1,9,-4,0,-1,-37
1499895354313120,0,0,5,-6,-1,-2,-1,5
1499895354334141,3,-5,-2,17,1,1,1,4
1499895354334141,-7,-5,-16,14,-1,-3,1,-8
1499895354335142,-1,1,23,30,3,0,0,6
1499895354335142,-17,-2,-7,-16,-3,-2,-4,-23
1499895354348124,4,-3,-10,-42,-5,-1,-2,-42
1499895354348124,-7,0,12,2,0,1,-1,-2
1499895354356122,9,3,5,64,5,2,-1,-1
1499895354356122,-6,-5,-27,-97,-2,-3,-2,5
1499895354371125,1,2,8,55,-2,-4,0,0
1499895354371125,2,-1,8,12,1,-1,-3,7
1499895354373126,-1,-7,-30,-20,-7,-5,-3,14
1499895354373126,3,1,8,3,4,8,2,3
1499895354394130,1,3,3,-14,1,0,2,5
1499895354394130,0,2,7,-30,-5,-4,0,-13
1499895354396125,-9,-3,-7,10,3,-2,-5,-15
1499895354396125,-1,5,21,0,-2,0,1,-44
1499895354417126,-3,-9,-41,-9,-6,-4,-5,-6
1499895354417126,2,1,10,38,1,2,0,-7
1499895354419130,4,-4,-3,-54,-5,-1,-1,15
1499895354419130,3,2,1,69,7,-1,2,7
1499895354431126,-2,2,6,-68,-5,0,-1,5
1499895354431126,-2,-10,-25,36,-5,-6,-3,11
1499895354433126,-7,-1,18,16,0,-2,-5,-3
1499895354433126,12,0,-9,-11,-4,-1,-1,18
1499895354454128,2,5,13,53,10,4,0,12
1499895354454128,-2,-4,-20,-72,-5,-2,-3,1
1499895354455128,-5,-1,9,10,-4,-3,0,8
1499895354455128,9,-1,9,34,3,1,-1,10
1499895354476170,-9,-3,-17,-10,-4,-4,-1,5
1499895354476170,-2,3,4,-22,2,3,3,-15
1499895354478132,-2,2,-16,12,-2,2,-1,3
1499895354478132,-1,-2,31,-6,-2,-6,-2,1
1499895354491130,12,0,-4,21,2,1,0,17
1499895354491130,-7,-10,-5,-2,-1,-2,-1,-15
1499895354493130,-8,1,1,-9,2,2,2,-30
1499895354493130,0,-2,-16,20,1,-2,-1,2
1499895354514133,3,4,3,-65,-14,-4,-1,2
1499895354514133,2,-2,2,13,1,-2,-1,0
1499895354516132,6,-1,2,-31,-4,-3,-2,13
1499895354516132,-5,-6,-18,44,0,-2,-1,-1
1499895354536133,-10,-5,5,25,4,-1,-1,-8
1499895354536133,1,9,22,-2,-1,1,3,15
1499895354538136,1,-5,-27,-29,-2,-1,-2,-17
1499895354538136,-4,-3,3,-3,-9,-7,-4,8
1499895354551137,2,3,24,55,7,1,-1,6
1499895354551137,-5,-7,-39,-58,-5,-1,-3,-1
1499895354558134,-1,6,27,28,5,3,3,9
1499895354558134,0,-10,-41,-66,-8,-5,-3,1
1499895354574139,-1,1,5,10,3,0,-2,-5
1499895354574139,-2,1,4,51,7,-1,-1,-1
1499895354575152,-3,1,0,-24,-2,-1,0,1
1499895354575152,0,0,4,-17,-3,-1,-2,13
1499895354596168,2,-2,-8,-10,-4,-1,0,33
1499895354596168,-5,-2,5,35,1,1,0,-12
1499895354598136,4,-3,-5,12,-2,-1,-1,14
1499895354598136,-7,0,5,-1,-1,-3,-2,-10
1499895354611154,-11,-1,-5,38,5,3,-1,5
1499895354611154,-1,-1,-5,-52,-7,-2,-4,-15
1499895354618137,9,-4,-4,-30,-6,-1,0,-1
1499895354618137,0,2,-1,3,0,0,-2,24
1499895354634138,-5,-1,5,-15,-3,-1,-1,-22
1499895354634138,1,8,16,11,0,-3,-1,-5
1499895354636142,-7,-16,-36,-12,-3,0,-5,-2
1499895354636142,0,2,0,-7,0,-1,1,-8
1499895354656178,4,-3,-11,-13,0,0,1,-2
1499895354656178,-1,-1,8,49,0,-2,-3,-4
1499895354658140,3,7,13,-15,2,0,2,9
1499895354658140,-7,-3,-9,0,-8,-2,-2,-8
1499895354671157,4,-3,-7,-8,-7,-4,-3,2
1499895354671157,-3,-2,-8,-19,-3,-1,0,-1
1499895354678147,-5,5,18,35,3,1,-3,-27
1499895354678147,3,-4,-24,-18,2,1,2,-2
1499895354694148,-3,2,11,33,-2,-3,0,-18
1499895354694148,2,2,7,0,0,0,1,-6
1499895354696148,-2,-4,-14,-6,0,1,-2,19
1499895354696148,0,-2,8,50,3,-3,-4,1
1499895354716204,-1,-5,0,-35,-14,-7,-3,-5
1499895354716204,-4,-1,-5,0,5,2,3,5
1499895354719144,-6,-3,-3,16,-8,-7,-2,0
1499895354719144,-2,3,7,9,3,1,0,-4
1499895354731164,0,0,-4,5,4,-2,1,0
1499895354731164,6,-5,-8,-8,-3,2,-1,16
1499895354738145,4,5,20,26,4,1,5,8
1499895354738145,-11,-2,-7,-61,-10,-1,-3,-39
1499895354754185,0,-3,-1,45,4,-3,-1,14
1499895354754185,5,-1,-10,-71,-10,-7,-2,2
1499895354755149,-12,-3,-1,27,4,7,2,2
1499895354755149,5,-5,-12,-18,-2,-2,-1,0
1499895354776184,5,4,3,-41,1,3,1,-22
1499895354776184,0,-1,8,63,1,-2,-4,-12
1499895354778147,-2,-3,-13,-17,-2,-5,-2,-3
1499895354778147,6,1,9,-4,-1,1,0,10
1499895354791148,-7,-4,0,93,6,0,-2,-5
1499895354791148,0,0,-12,-72,-18,-1,-4,0
1499895354798148,2,-2,-16,29,-4,-6,-3,-4
1499895354798148,-3,2,8,20,-2,1,-1,15
1499895354814155,6,1,11,15,4,0,1,7
1499895354814155,-9,-11,-25,-4,3,-2,0,-7
1499895354816153,0,1,-5,-44,0,0,-3,4
1499895354816153,-7,0,4,-1,0,-1,0,-1
1499895354836150,-2,0,-12,-38,-4,-2,-1,-5
1499895354836150,-4,1,10,16,1,1,-1,-18
1499895354838154,18,6,18,9,1,4,1,41
1499895354838154,0,-6,-1,-9,-2,-2,-1,25
1499895354851161,9,0,4,-49,-3,1,1,0
1499895354851161,-10,1,-1,10,5,-3,-1,-28
1499895354858151,-3,-4,-2,31,-2,-5,-3,-9
1499895354858151,-2,4,5,-5,5,2,1,18
1499895354874168,3,-2,2,-6,-3,-1,-2,-5
1499895354874168,-3,1,3,6,0,2,2,18
1499895354875173,5,4,2,18,3,1,-1,0
1499895354875173,-4,-6,-15,-56,0,2,0,-9
1499895354897185,-7,-3,16,14,-5,-3,-3,-15
1499895354897185,10,-1,-21,-3,-2,-2,1,3
1499895354898175,-5,1,12,4,-1,-3,-1,-17
1499895354898175,5,6,15,24,4,0,-1,2
1499895354910195,-13,-7,-38,24,5,3,1,-15
1499895354910195,-3,-1,28,-29,-4,-5,-2,17
1499895354919155,6,-4,-13,-27,-3,-2,1,28
1499895354919155,-4,-4,-6,47,-3,-4,-3,-16
1499895354934156,-6,6,4,7,4,2,2,12
1499895354934156,-7,-5,-18,-17,-6,0,-4,-17
1499895354935155,-6,-8,-21,-29,-5,-4,-2,-13
1499895354935155,2,4,19,20,5,3,-1,-9
1499895354956195,-4,-5,-12,-29,-6,-4,-3,4
1499895354956195,12,2,1,22,7,0,2,13
1499895354958158,-3,0,16,-26,-5,2,-1,5
1499895354958158,-5,-2,-3,6,-7,-5,-2,-9
1499895354970198,0,4,10,23,1,-1,-1,-5
1499895354970198,-7,-10,-25,16,-2,-1,-1,0
1499895354979170,-2,3,5,19,4,1,1,-13
1499895354979170,-7,-2,1,-18,-2,-1,-1,-10
1499895354994178,7,4,4,-40,-1,-1,-1,-14
1499895354994178,-21,-3,6,30,-4,-4,-4,-5
1499895354996165,-5,-2,-3,29,3,1,-1,-2
1499895354996165,10,1,5,-5,-1,-5,-3,-10
1499895355017162,1,-8,-26,-12,-2,5,1,2
1499895355017162,0,5,23,2,3,1,0,12
1499895355018161,-10,3,4,-8,-1,-1,0,-13
1499895355018161,1,1,3,30,1,-3,-2,1
1499895355030161,-6,-7,11,-6,-6,-4,-3,2
1499895355030161,2,-1,6,-75,-7,-1,-2,-8
1499895355039162,-1,-2,2,30,-3,-5,-3,1
1499895355039162,0,-4,-21,-10,-3,-2,-2,-11
1499895355054204,0,1,1,20,1,-3,-1,6
1499895355054204,6,0,-3,26,5,5,1,12
1499895355056163,4,4,16,-10,-2,-2,1,-8
1499895355056163,0,-4,-15,-34,-1,-1,-1,22
1499895355076205,-1,-2,-1,52,1,-2,1,-11
1499895355076205,2,0,-3,-40,0,-1,0,-6
1499895355078164,9,5,11,-4,2,2,1,38
1499895355078164,-11,-10,-25,-4,-11,-4,-2,-16
1499895355090165,0,-1,13,-13,-3,-2,-1,17
1499895355090165,0,0,-10,9,4,0,0,-1
1499895355099165,-4,-2,-1,34,1,-1,-3,-33
1499895355099165,-10,1,8,-14,3,3,3,8
1499895355114167,3,-6,-10,21,0,0,-3,5
1499895355114167,-1,-1,4,-40,-6,-3,-2,-3
1499895355115168,-1,-1,-10,-37,-2,-7,-2,-4
1499895355115168,1,1,10,72,1,4,-2,5
1499895355136168,0,-1,-1,-25,0,-2,-2,-31
1499895355136168,4,4,21,28,-1,0,1,16
1499895355138171,-7,-10,-25,-4,-5,-4,-5,-18
1499895355138171,1,1,-5,-41,-4,-3,-1,-1
1499895355150168,-8,-2,3,-4,1,-1,1,5
1499895355150168,2,1,-18,30,2,2,-1,4
1499895355159169,-4,-3,24,-58,-9,0,0,-16
1499895355159169,0,4,-1,49,9,2,3,-9
1499895355174174,14,-5,-7,-52,-11,-1,-2,44
1499895355174174,-14,2,10,20,0,-3,-1,-19
1499895355175190,-1,-8,-22,-8,1,1,0,15
1499895355175190,-5,0,-2,-11,0,0,-2,-35
1499895355196191,-3,0,-5,-18,-1,-4,0,2
1499895355196191,3,0,-4,26,5,0,0,-15
1499895355198171,-4,3,13,-3,-6,0,-1,6
1499895355198171,6,-2,4,-21,-2,-3,-2,7
1499895355210213,-2,4,2,13,2,-1,0,-2
1499895355210213,-8,-5,-1,1,-2,-1,-3,-12
1499895355219173,-4,3,-2,20,3,0,1,-9
1499895355219173,6,-6,4,12,-7,-6,-3,22
1499895355234190,-19,0,-19,-58,-1,2,-1,-13
1499895355234190,0,2,4,34,1,-2,1,21
1499895355235195,16,2,-6,-1,5,5,2,6
1499895355235195,15,-8,-5,-28,-5,-4,-2,17
1499895355256193,-6,-1,11,37,1,-1,-3,7
1499895355256193,6,0,1,-13,3,-1,0,0
1499895355262213,-7,2,6,-14,-6,-6,-2,-4
1499895355262213,-3,-4,-21,-2,3,6,2,0
1499895355270216,4,0,9,8,0,-1,0,-8
1499895355270216,0,3,4,25,0,-1,-1,0
1499895355279176,4,-6,-7,-49,-7,-5,-4,2
1499895355279176,-5,3,8,-5,3,2,2,-10
1499895355294177,7,4,0,-21,0,1,2,8
1499895355294177,-10,-6,0,49,-2,-1,-2,-13
1499895355295178,8,-1,-14,-9,0,0,-1,-9
1499895355295178,-14,4,14,8,-2,-3,0,-21
1499895355317178,0,0,-3,25,4,-1,-1,-9
1499895355317178,-2,1,12,-57,-2,1,0,6
1499895355318178,-1,-2,-6,45,-5,-1,-2,-11
1499895355318178,-1,0,3,-29,1,0,2,30
1499895355339199,10,1,-7,11,0,2,0,5
1499895355339199,-4,-3,1,9,-2,-2,-1,-3
1499895355340196,-5,-3,-9,-13,-3,-6,0,-10
1499895355340196,8,-1,-14,-4,-2,2,0,7
1499895355354220,-20,-2,3,67,-4,-10,-3,-12
1499895355354220,7,-5,-8,-14,-2,3,-2,3
1499895355355186,-1,2,7,2,5,4,5,7
1499895355355186,1,5,7,13,-2,-4,-1,-5
1499895355377221,-2,-6,-16,-39,-5,-3,-3,3
1499895355377221,6,-4,-3,-31,-8,-5,-3,-14
1499895355379183,1,5,14,38,6,1,1,2
1499895355379183,-3,-2,-1,-10,3,2,1,-3
1499895355399187,2,2,11,8,-2,0,-1,-6
1499895355399187,-5,-7,-16,-3,-4,-3,-1,-2
1499895355400184,-5,-2,-2,-22,-5,0,-2,-1
1499895355400184,-3,-2,-10,33,1,-2,-2,-7
1499895355414191,6,-2,15,-20,1,-1,-3,17
1499895355414191,1,-1,-16,19,1,-3,-2,-7
1499895355415184,-3,2,14,39,2,-2,-1,-1
1499895355415184,-8,-10,-28,-44,-8,-4,-5,-9
1499895355436190,0,3,10,2,0,3,2,1
1499895355436190,0,2,-10,8,0,-7,-1,-9
1499895355438202,6,-2,-13,-35,1,9,2,4
1499895355438202,-5,1,26,48,1,-2,-1,-8
1499895355459186,1,-1,-5,-17,-2,1,0,1
1499895355459186,-1,-3,-13,13,-2,-2,0,-4
1499895355465220,-5,-5,-15,3,1,-3,-3,-3
1499895355465220,2,1,4,-31,3,1,0,3
1499895355473204,-1,-2,7,-48,-11,-2,-2,-3
1499895355473204,4,2,-14,-13,0,-1,-2,-6
1499895355480207,-2,1,12,38,2,-2,-2,2
1499895355480207,0,-3,-2,22,1,3,1,1
1499895355496189,1,0,-6,0,0,-1,0,-7
1499895355496189,-2,3,18,4,-2,0,-2,6
1499895355498188,-1,-3,-1,-33,0,0,0,0
1499895355498188,2,1,3,5,-4,-4,-3,-4
1499895355519229,-5,-2,-6,1,3,-3,-2,-3
1499895355519229,1,-1,7,5,1,4,2,7
1499895355520210,-5,-4,-6,21,-2,-1,-1,4
1499895355520210,-4,-3,-2,-30,-9,-1,-1,-5
1499895355533196,-1,-2,-8,-13,-3,-8,-1,-3
1499895355533196,2,0,5,-5,6,7,1,5
1499895355540193,-1,-2,-1,20,-3,-3,-2,-1
1499895355540193,-2,1,4,0,-2,-2,0,-1
1499895355556191,-2,-5,-6,35,2,-3,-1,-2
1499895355556191,1,0,9,-21,-8,-3,-1,7
1499895355558192,-6,-5,-19,-21,-1,-2,0,-15
1499895355558192,1,-1,-3,-23,-1,-2,-1,2
