timestamp,emg1,emg2,emg3,emg4,emg5,emg6,emg7,emg8
1499894520643218,13,-2,7,-4,-4,-3,-20,1
1499894520643218,3,-1,2,10,1,4,19,42
1499894520644214,-1,9,12,15,2,-4,3,42
1499894520644214,-13,-3,1,39,-4,5,4,-69
1499894520656229,-2,-2,-6,48,7,0,-20,-20
1499894520656229,-1,-7,-9,-58,-12,-12,1,0
1499894520665216,7,7,10,-100,-3,2,0,-28
1499894520665216,22,7,-5,-57,5,3,-5,53
1499894520680215,-26,-9,4,31,-6,2,14,-17
1499894520680215,-6,12,7,111,5,5,4,-71
1499894520682216,-24,-2,4,21,8,0,1,-17
1499894520682216,-24,-3,-6,-33,-3,-2,-7,-11
1499894520703217,32,3,-2,-60,-3,-4,-7,-72
1499894520703217,-11,0,17,4,10,1,-15,9
1499894520704217,42,-10,-30,31,0,-1,12,-3
1499894520704217,-5,7,29,81,-5,1,30,60
1499894520725220,15,-2,-7,-21,-4,-7,-16,55
1499894520725220,-9,5,17,-39,5,3,0,-36
1499894520727220,-14,-7,-36,-6,-1,0,-27,44
1499894520727220,9,-7,16,12,-12,-8,22,6
1499894520740219,6,1,11,-48,6,-2,0,86
1499894520740219,19,-1,-5,26,5,3,-38,-28
1499894520742221,-4,2,8,-90,-5,8,30,-19
1499894520742221,4,4,6,68,5,1,0,78
1499894520764220,-3,-1,-14,-24,-3,-2,-15,-63
1499894520764220,68,-2,-15,-36,1,-4,-1,39
1499894520766220,-96,-8,9,117,1,-4,-5,-52
1499894520766220,-14,1,-20,-81,0,0,1,-13
1499894520785221,-1,-4,11,-31,-3,-2,-7,21
1499894520785221,-33,-8,-13,71,-6,-4,15,-19
1499894520787224,38,5,10,-37,1,0,-2,-32
1499894520787224,-13,-3,4,43,12,1,-2,-36
1499894520800236,24,9,4,33,-2,6,-7,39
1499894520800236,-14,-7,-48,-5,-2,-6,-1,-49
1499894520802223,-45,-15,23,-22,-18,-8,-9,-15
1499894520802223,55,-1,-26,-1,-2,-3,-1,37
1499894520823227,-12,1,4,-11,-5,-4,-11,-52
1499894520823227,-65,-10,-36,25,1,1,40,39
1499894520824224,26,21,30,77,6,0,-3,-39
1499894520824224,-21,-13,-22,-82,-1,1,-9,-71
1499894520845227,5,-7,4,61,-3,-2,-4,3
1499894520845227,-11,2,37,-96,0,2,-5,-10
1499894520847227,31,-6,-41,53,-4,-5,11,35
1499894520847227,11,13,20,65,2,3,8,76
1499894520860226,-27,4,20,2,-7,-1,-3,-104
1499894520860226,1,-2,16,-7,10,2,-10,1
1499894520866227,5,4,-11,6,1,-2,5,6
1499894520866227,8,-6,11,54,-10,-7,-11,32
1499894520883227,-20,-18,-18,122,5,-3,3,-1
1499894520883227,19,2,-14,-95,-26,-7,-3,14
1499894520884228,22,10,12,-25,7,6,-9,-11
1499894520884228,-59,-9,-23,40,-1,-7,-8,-21
1499894520905229,88,12,24,-31,10,7,24,33
1499894520905229,-59,-19,-32,-28,-4,-7,-11,54
1499894520907235,22,12,24,49,12,6,2,85
1499894520907235,-21,-6,-5,-23,-10,-7,5,-54
1499894520919244,-52,-12,-16,-32,-5,-1,-4,-2
1499894520919244,43,8,15,-31,-3,4,1,17
1499894520926233,-15,-8,-15,-45,-6,-5,-10,-8
1499894520926233,1,-3,-26,-25,3,2,1,-29
1499894520943231,5,0,9,-8,3,-2,3,40
1499894520943231,5,23,13,103,16,7,-6,-54
1499894520944231,-20,-27,-19,-84,-22,-12,-4,-14
1499894520944231,34,3,13,36,1,5,21,57
1499894520965232,-21,5,-21,-27,4,0,-11,-49
1499894520965232,31,5,34,82,3,-2,-1,20
1499894520967232,-30,7,9,-82,-3,1,-2,40
1499894520967232,7,0,-1,-23,4,1,1,-25
1499894520979234,-33,-6,-32,-50,-10,-5,-5,26
1499894520979234,54,-14,-25,71,7,-1,1,35
1499894520986234,3,13,3,1,-2,3,-4,-3
1499894520986234,-24,-16,24,32,-6,-3,-5,-80
1499894521003235,54,10,10,49,0,3,3,15
1499894521003235,-35,-7,-42,-5,-15,-9,3,-22
1499894521004236,4,-6,-20,1,0,1,-16,-37
1499894521004236,-22,7,46,-102,-6,-4,-5,-29
1499894521025238,0,-1,-2,109,12,1,1,-8
1499894521025238,-7,-11,0,-111,-18,-5,-7,1
1499894521027239,43,9,7,56,7,2,8,78
1499894521027239,-11,-8,-35,13,-2,0,7,-38
1499894521039237,-10,2,28,13,1,0,-4,1
1499894521039237,1,-10,-12,-24,0,0,0,39
1499894521046252,-11,2,-18,-21,-3,0,-7,-69
1499894521046252,0,0,-1,-13,2,2,-5,-12
1499894521063239,-18,0,-21,-83,-11,-5,-1,65
1499894521063239,14,3,12,30,1,-1,3,-14
1499894521064237,0,-3,29,83,-4,-8,-3,-24
1499894521064237,-12,-5,-30,-66,-9,-8,-7,2
1499894521085241,-23,-7,-41,-25,0,3,2,-7
1499894521085241,5,11,42,5,8,6,-2,-1
1499894521087240,-49,-6,-20,39,-5,-5,-2,-5
1499894521087240,2,2,25,-30,4,-3,-1,47
1499894521099253,-24,1,-27,43,-2,-1,-2,-82
1499894521099253,-9,-9,2,-45,-1,1,3,9
1499894521106240,4,-3,4,64,0,-4,-2,2
1499894521106240,21,24,20,21,8,7,8,-36
1499894521123242,-38,-26,-4,60,-8,-10,-14,-20
1499894521123242,7,7,5,10,0,1,6,-58
1499894521124241,2,-11,-28,23,1,-2,-1,-36
1499894521124241,-8,0,3,-56,-2,-1,-7,24
1499894521145258,23,11,17,-7,4,5,6,25
1499894521145258,22,-6,-4,-31,-11,-7,0,42
1499894521147246,21,11,9,-50,7,2,1,61
1499894521147246,35,12,16,28,1,0,3,64
1499894521159259,-12,-13,-21,66,3,-1,1,-42
1499894521159259,-29,-6,-7,-40,-13,-6,-10,-24
1499894521166245,-14,-2,-1,30,5,0,0,-59
1499894521166245,-6,5,0,-98,-4,4,0,23
1499894521183244,14,-1,14,14,-16,-9,-3,15
1499894521183244,8,2,6,79,13,3,-5,-45
1499894521184244,-41,-19,-27,-73,-4,-1,-3,-18
1499894521184244,7,2,11,28,-1,-5,4,-3
1499894521205248,29,4,-17,-68,-1,3,4,43
1499894521205248,-61,-15,-29,56,-1,-4,-9,5
1499894521207254,3,5,13,1,-1,-5,0,17
1499894521207254,-22,0,5,-3,1,2,0,0
1499894521219261,29,4,3,-35,2,0,9,-22
1499894521219261,-22,5,-3,36,1,4,-3,8
1499894521228248,9,-10,-1,11,1,1,2,-42
1499894521228248,-8,6,10,66,1,-3,-4,19
1499894521243247,7,-4,-4,-47,-5,-3,-6,31
1499894521243247,10,1,0,27,2,-1,3,21
1499894521244248,-11,10,24,6,0,4,0,-20
1499894521244248,18,-16,-52,-30,-2,2,-4,-11
1499894521265250,7,8,38,62,7,-4,-11,-1
1499894521265250,4,-2,-2,-69,-14,-4,2,-40
1499894521267253,2,0,12,25,0,-2,0,28
1499894521267253,28,7,20,-12,6,2,-3,-42
1499894521279252,17,-5,-11,60,5,1,0,-10
1499894521279252,-6,8,24,-107,-2,2,3,65
1499894521288253,8,0,-2,3,-2,-1,0,38
1499894521288253,-34,-17,-31,2,-10,-5,-3,-16
1499894521303250,-5,1,24,-1,6,-4,-2,-8
1499894521303250,44,-2,-24,28,-4,3,7,54
1499894521304257,-16,-2,-10,-48,1,2,8,-18
1499894521304257,-1,4,35,75,-4,-9,-6,77
1499894521325254,6,7,-10,-2,4,7,-2,-23
1499894521325254,-3,0,-7,-70,0,-2,3,-7
1499894521327253,6,-10,-22,-36,-5,-4,-8,-12
1499894521327253,0,-4,-3,35,1,1,5,29
1499894521339276,-34,0,10,33,-6,-5,-2,-55
1499894521339276,1,10,-4,2,0,0,-5,-17
1499894521348255,11,2,5,5,3,-2,-1,-11
1499894521348255,-1,-2,10,28,-2,1,2,11
1499894521363255,2,-5,1,-35,-7,-3,-1,8
1499894521363255,-2,1,-8,58,1,3,5,22
1499894521364256,-7,-7,-15,-64,-6,-4,-8,17
1499894521364256,18,2,4,16,-5,-2,3,-4
1499894521385257,30,1,-22,-54,-4,0,-3,65
1499894521385257,-60,-10,6,77,6,-3,4,-108
1499894521387258,44,2,1,-55,-4,6,5,93
1499894521387258,-21,-6,-19,64,-1,-4,-8,-87
1499894521399271,-14,6,22,-128,-10,-2,-6,-12
1499894521399271,-4,-2,19,43,1,-2,-5,31
1499894521408258,-10,1,5,-40,-2,-1,0,-28
1499894521408258,-3,-8,-51,-33,-1,-1,-1,3
1499894521423257,-11,-8,-34,0,-1,-1,2,6
1499894521423257,19,-4,9,-15,-6,-4,-8,17
1499894521424259,1,7,35,-33,2,-4,0,-5
1499894521424259,14,0,-15,-17,3,10,3,-64
1499894521445261,-41,-6,-16,-29,-1,-1,1,4
1499894521445261,16,-3,-17,27,6,2,4,96
1499894521447260,-4,8,34,90,7,4,-3,-40
1499894521447260,-1,-3,-7,-25,-7,-7,-2,-13
1499894521459276,18,1,14,-42,2,0,-2,16
1499894521459276,-9,6,26,91,12,3,1,-51
1499894521468262,-10,-11,-28,-25,-23,-5,-2,-4
1499894521468262,-6,4,9,-5,4,2,4,39
1499894521483262,9,-6,16,-38,-9,-5,2,-4
1499894521483262,3,2,1,23,-2,-6,-13,-81
1499894521484262,-4,-6,-41,33,6,0,-3,12
1499894521484262,25,3,9,-68,-2,1,2,68
1499894521505264,-2,-1,15,60,3,4,6,-13
1499894521505264,22,-4,-21,33,5,0,7,30
1499894521507265,-5,-6,-22,-60,-18,-5,-21,-75
1499894521507265,13,-5,2,59,0,-2,7,66
1499894521519278,6,3,17,50,-7,-10,-6,25
1499894521519278,-25,1,-2,-47,-4,1,2,-33
1499894521528264,17,-7,-26,-3,3,0,-2,95
1499894521528264,-1,2,9,25,7,2,-1,23
1499894521543272,0,-2,1,-72,-12,-3,-5,-18
1499894521543272,-12,2,9,10,1,-1,5,22
1499894521544265,5,3,24,87,9,1,2,24
1499894521544265,0,-4,-8,-128,-21,-5,-6,23
1499894521565267,-30,4,2,39,15,1,-5,4
1499894521565267,29,-16,-39,5,-13,-4,0,0
1499894521567268,14,8,43,60,6,-2,-5,-39
1499894521567268,-7,-10,-33,31,0,-1,-1,-38
1499894521579267,-11,8,17,27,7,4,5,50
1499894521579267,8,-1,5,-89,-10,-2,-2,-2
1499894521588269,-44,-3,-6,60,1,0,1,-85
1499894521588269,-8,-6,7,15,-1,-1,0,-15
1499894521603268,13,-8,-36,-37,-6,-2,-3,47
1499894521603268,7,6,-8,21,-2,0,-2,11
1499894521604271,7,4,16,-16,3,2,3,19
1499894521604271,-13,2,26,-74,-4,-1,-7,-20
1499894521625270,-27,-6,-17,19,-2,-2,3,16
1499894521625270,-1,1,6,-3,4,-1,-2,48
1499894521627271,11,0,3,47,3,5,4,10
1499894521627271,-12,5,-2,-14,2,-1,-5,-44
1499894521639272,29,10,11,23,3,4,5,12
1499894521639272,-16,-15,-21,-57,-11,-9,2,-55
1499894521648272,8,-1,4,21,1,-7,-10,42
1499894521648272,26,-6,-9,56,-6,0,5,69
1499894521663273,-3,0,-9,-69,6,8,9,34
1499894521663273,5,5,40,75,0,0,2,-6
1499894521664272,-9,1,14,-21,-7,-5,-3,12
1499894521664272,4,-1,-12,0,1,-4,1,-3
1499894521685295,30,5,-12,9,-4,1,2,14
1499894521685295,-25,-12,0,4,8,-2,-4,-4
1499894521687275,-7,-4,-19,-117,-13,0,4,29
1499894521687275,-6,11,40,123,10,4,0,-45
1499894521708277,-17,-18,-17,14,-7,-8,-13,-119
1499894521708277,8,9,26,-25,3,1,8,15
1499894521709275,-3,-1,-19,45,6,2,-2,-15
1499894521709275,-24,-1,-14,-74,-1,3,-1,-70
1499894521723282,7,12,42,101,1,-1,2,8
1499894521723282,14,-8,-34,-110,-14,-2,-1,36
1499894521724276,-8,-3,2,36,3,-8,-2,-49
1499894521724276,-2,0,-9,25,3,3,2,23
1499894521746294,-19,-9,-4,-13,0,-2,-5,-34
1499894521746294,-5,6,5,-21,-5,-3,-6,11
1499894521747298,26,0,-11,7,1,4,13,100
1499894521747298,-2,-5,3,-41,-9,-7,-8,45
1499894521768289,24,8,11,40,9,5,8,19
1499894521768289,-7,4,4,16,0,1,-4,-57
1499894521769305,-1,-2,-2,-13,3,2,3,43
1499894521769305,6,-5,-4,-44,-11,-10,-8,32
1499894521783279,32,1,-16,12,-1,1,-4,32
1499894521783279,-10,-3,-19,-43,-1,-5,-3,21
1499894521784280,-20,-5,8,22,8,1,-5,-86
1499894521784280,11,10,22,28,-1,4,8,43
1499894521805280,-15,-16,-41,-38,-10,-8,-5,-20
1499894521805280,12,1,23,37,1,1,-7,20
1499894521807288,11,3,2,-1,1,2,5,59
1499894521807288,-12,-5,-35,68,3,-3,-1,-30
1499894521828281,-11,-3,4,-16,-4,0,0,-50
1499894521828281,-1,5,5,17,0,2,0,-5
1499894521829283,10,-2,-5,-8,-10,-1,0,52
1499894521829283,-13,-3,6,-9,0,-2,-7,-2
1499894521842299,12,-1,-19,-38,-6,-5,0,-27
1499894521842299,1,-7,-11,68,3,-1,-5,38
1499894521849319,-2,7,29,14,6,1,-2,-78
1499894521849319,-7,-6,-35,-34,-7,0,2,-30
1499894521865287,-18,0,17,44,2,-4,-6,-3
1499894521865287,28,10,0,-81,-4,-1,5,65
1499894521867300,-24,-12,2,-22,-7,-3,-6,-89
1499894521867300,12,-5,-9,-37,6,-2,7,57
1499894521888288,-12,0,-19,40,-3,2,1,-39
1499894521888288,0,2,-6,2,3,3,-5,-15
1499894521890286,13,-4,-1,77,1,-4,-5,21
1499894521890286,-2,2,10,-85,-4,1,8,2
1499894521902326,7,1,41,40,7,1,-6,37
1499894521902326,1,-4,-51,-59,-6,-4,-5,-40
1499894521909331,4,4,-13,47,-4,-2,-1,21
1499894521909331,-11,-12,17,34,1,-3,-7,-59
1499894521925308,-3,-4,-7,-70,-6,-1,4,26
1499894521925308,25,2,37,24,5,3,4,81
1499894521927309,-27,1,-17,40,0,-1,3,-44
1499894521927309,-7,1,4,11,-7,-4,-5,6
1499894521948298,8,2,-4,-23,4,3,1,34
1499894521948298,-23,-6,3,29,1,-2,2,32
1499894521949289,10,6,-8,-96,-3,2,2,-16
1499894521949289,10,1,12,28,6,1,-3,19
1499894521962351,-6,0,15,72,2,-4,4,-7
1499894521962351,-32,-3,4,-74,-12,-8,0,-81
1499894521969331,31,-4,-14,-33,1,4,-5,52
1499894521969331,-15,3,1,47,-6,-2,-2,2
1499894521985294,-17,-4,0,-8,0,-1,5,19
1499894521985294,6,-4,-38,22,-2,-9,-5,-4
1499894521987292,-5,1,7,-20,-4,2,6,47
1499894521987292,0,4,15,25,8,2,-6,-56
1499894522008303,4,8,4,-35,-4,2,-2,-26
1499894522008303,-11,-10,22,67,-1,-2,2,-14
1499894522009292,-12,0,-6,-58,-11,-8,-5,-28
1499894522009292,0,2,6,68,9,4,-2,-9
1499894522022313,6,-11,-28,-52,-18,-7,-2,39
1499894522022313,-27,16,25,87,15,4,-7,-78
1499894522029297,13,-11,-16,-25,-5,-4,-2,-28
1499894522029297,-14,0,-4,3,2,-1,-4,-56
1499894522045359,0,-3,-11,-12,3,-1,0,-22
1499894522045359,3,7,26,46,3,4,-1,18
1499894522047312,2,-3,-6,-46,-17,-6,-1,21
1499894522047312,-3,-7,-15,-33,-6,-7,-6,4
1499894522068305,-23,1,8,-3,0,1,-1,-75
1499894522068305,29,1,-10,-1,2,-1,-1,2
1499894522069301,0,6,13,28,11,3,-1,6
1499894522069301,14,5,-6,-81,0,1,1,18
1499894522082300,-7,-13,7,81,-7,-6,-18,-14
1499894522082300,-11,-9,-27,-59,-8,-2,4,-10
1499894522096364,2,1,0,-1,-3,-3,-1,-10
1499894522096364,3,-4,-19,-64,-6,-2,-3,-38
1499894522105317,2,4,-5,17,5,0,-6,34
1499894522105317,5,-3,-1,-5,-6,1,-4,-5
1499894522107304,-13,-5,17,18,4,1,12,-34
1499894522107304,7,3,16,6,-1,0,-5,51
1499894522128299,1,10,19,47,8,4,6,-35
1499894522128299,-10,-11,-22,-67,-10,1,0,48
1499894522129304,-17,8,19,11,10,2,1,-33
1499894522129304,0,-17,-58,-42,-16,-10,-9,-19
1499894522142300,-2,1,3,-5,2,-1,0,17
1499894522142300,13,3,20,-15,6,4,1,25
1499894522149340,7,8,15,59,7,2,-2,-2
1499894522149340,-13,-13,-2,30,-4,-3,-3,18
1499894522165302,8,5,0,-3,2,-1,4,-5
1499894522165302,5,-8,-4,-68,-10,-5,-2,15
1499894522167302,7,1,4,-9,-2,1,-2,31
1499894522167302,2,0,-22,48,0,-1,1,-12
1499894522188309,3,-5,-17,-88,-7,-2,2,60
1499894522188309,13,9,15,-14,11,7,13,31
1499894522189313,-9,-10,-7,32,-6,-7,-15,-33
1499894522189313,11,3,3,7,0,0,3,3
1499894522201365,-20,-1,9,13,-7,-6,-1,-10
1499894522201365,19,4,6,-10,1,4,2,18
1499894522210304,-23,-7,-19,-25,2,0,-6,-2
1499894522210304,0,1,2,37,0,-1,3,-3
1499894522225312,5,-3,-4,3,-2,-1,-4,7
1499894522225312,-20,2,11,84,0,-2,-5,14
1499894522227307,10,1,-15,-88,-9,0,2,-5
1499894522227307,-33,-9,3,45,2,-1,-1,12
1499894522248315,-16,1,2,-39,-4,-2,-2,-62
1499894522248315,-15,0,2,56,2,-5,-6,-17
1499894522249313,-2,-7,-11,-26,-9,-1,2,17
1499894522249313,2,6,3,-16,3,2,2,-26
1499894522261369,10,-6,-22,-38,-6,-4,-5,1
1499894522261369,-2,1,-4,13,-2,0,-8,-38
1499894522270310,-6,0,15,85,8,-2,3,64
1499894522270310,7,3,16,35,8,2,0,-47
1499894522285309,8,7,12,-36,-7,-1,2,30
1499894522285309,-7,-16,-32,-20,-6,-7,-8,-31
1499894522287334,14,3,-1,-11,3,-2,-2,-23
1499894522287334,11,2,9,41,-6,0,-5,36
1499894522308319,18,-8,-27,40,2,-3,-2,-6
1499894522308319,-25,1,11,-44,-3,-1,-2,2
1499894522309309,-1,5,27,46,3,0,1,-12
1499894522309309,8,-9,-34,-33,-7,-4,0,61
1499894522321370,-7,4,30,21,5,2,-2,-5
1499894522321370,20,4,4,-19,1,-1,-2,35
1499894522330311,-10,-2,-2,16,-4,0,17,-12
1499894522330311,0,0,11,-20,5,2,-8,8
1499894522345321,1,-6,-8,-35,-2,-1,1,14
1499894522345321,0,-3,-9,77,0,-3,0,-1
1499894522347313,15,0,0,-84,-6,0,0,68
1499894522347313,-24,5,17,-23,7,3,1,-112
1499894522368329,12,-2,-1,34,-12,-5,5,102
1499894522368329,-27,-4,-4,34,2,-1,-4,-78
1499894522369318,8,3,3,-21,4,2,-2,-47
1499894522369318,23,-9,-12,-24,-13,-8,-2,51
1499894522381317,3,9,22,20,15,7,-2,1
1499894522381317,-20,-16,-40,-52,-10,-4,-5,-41
1499894522390314,-8,1,4,-20,2,1,-4,-67
1499894522390314,-9,5,20,44,-2,0,1,20
1499894522405322,-6,-2,0,17,-1,-9,-6,-77
1499894522405322,6,2,0,-45,1,9,-2,8
1499894522407317,-2,-10,-28,50,6,-4,-12,-4
1499894522407317,18,-2,5,-54,-6,-3,-3,-2
1499894522427337,-1,1,-11,7,3,0,11,-2
1499894522427337,16,3,11,-16,-1,-2,2,-1
1499894522429316,-7,-6,-18,7,-4,-2,-4,-8
1499894522429316,-13,5,27,45,-2,-3,-2,48
1499894522441339,4,4,5,-47,1,2,-1,29
1499894522441339,-25,-16,-14,50,0,-8,-2,-27
1499894522450319,12,6,14,-10,1,2,2,15
1499894522450319,-6,1,-8,-31,-3,3,9,-7
1499894522465338,2,2,8,-3,-3,-5,-9,-18
1499894522465338,6,4,20,14,4,4,1,20
1499894522467340,-2,-2,-7,3,0,-2,-5,-25
1499894522467340,-6,-2,1,34,7,0,2,-20
1499894522487320,-4,-5,-34,-65,-8,2,0,3
1499894522487320,18,3,6,-20,-6,-4,3,27
1499894522489323,-5,0,-5,22,9,-2,-12,-6
1499894522489323,4,6,26,33,5,2,5,60
1499894522501356,7,-9,-35,-38,0,3,-1,-11
1499894522501356,2,1,-5,-10,-9,-5,-3,11
1499894522511322,10,2,-4,-55,-4,1,5,12
1499894522511322,0,1,11,38,8,-1,-1,14
1499894522525340,-6,-12,-16,45,1,0,-4,-33
1499894522525340,4,4,3,-66,-3,1,0,3
1499894522531323,-20,-8,-2,59,-10,-7,-4,13
1499894522531323,6,5,4,-28,1,0,6,-15
1499894522548330,10,7,24,26,10,2,1,32
1499894522548330,-18,0,-11,34,-4,0,-4,-77
1499894522549336,-10,-4,3,-57,-5,-6,-8,-85
1499894522549336,-4,-8,-31,1,-2,0,-4,17
1499894522561380,-9,2,27,47,3,2,-10,-58
1499894522561380,6,0,1,-55,4,-1,2,-3
1499894522570326,-2,-3,-16,-10,-7,-1,-1,41
1499894522570326,1,-1,8,21,-5,-1,3,-7
1499894522585346,-18,2,-3,-68,1,-1,-3,21
1499894522585346,7,3,9,27,-3,-10,-1,5
1499894522587330,3,-7,-2,101,-1,1,-1,19
1499894522587330,-2,1,-1,-128,-5,0,-4,-5
1499894522607336,-8,-8,-17,63,0,3,4,2
1499894522607336,4,6,12,-49,-1,2,0,-5
1499894522609333,3,4,4,3,4,0,5,33
1499894522609333,-4,-12,-28,48,2,-2,-2,6
1499894522638328,3,4,21,45,6,2,1,-80
1499894522638328,-21,-14,-7,-49,-1,-6,-7,-27
1499894522639336,-1,6,7,-34,-8,-3,0,21
1499894522639336,-13,-7,-16,13,-1,0,-4,-3
1499894522645367,-7,9,18,-36,-5,-2,0,-34
1499894522645367,12,1,10,62,9,4,-2,53
1499894522647365,-14,-7,-13,-6,0,-2,-4,-4
1499894522647365,3,4,14,-25,-5,-5,-6,2
1499894522668342,-18,-4,-6,17,-3,-1,1,-16
1499894522668342,24,1,-8,7,0,-1,-6,-16
1499894522669335,-8,-12,-25,1,2,1,2,-24
1499894522669335,-3,3,0,1,-9,-4,-1,6
1499894522690331,27,-8,-22,-1,-4,-1,2,96
1499894522690331,1,5,20,59,5,0,1,-53
1499894522692334,11,5,32,-25,2,2,1,32
1499894522692334,-10,-2,-25,29,3,3,1,-9
1499894522705349,11,-8,-27,-66,-5,-3,-2,34
1499894522705349,-9,1,6,105,-4,-4,1,33
1499894522707367,5,-8,-14,-67,-7,-3,-2,42
1499894522707367,-18,-2,-5,-4,7,2,3,-42
1499894522727333,6,10,17,-73,-9,-3,-6,38
1499894522727333,-8,-7,-24,-18,-1,-1,4,-24
1499894522729335,14,6,7,19,1,-2,-1,38
1499894522729335,9,5,39,-22,3,5,0,-26
1499894522751334,2,-9,-54,-24,-3,-5,-4,-27
1499894522751334,10,0,8,85,0,4,10,24
1499894522752359,-8,3,20,-11,0,0,-5,11
1499894522752359,20,0,2,-1,-3,-3,0,15
1499894522764336,-12,3,13,-12,4,1,-1,-31
1499894522764336,8,-4,-13,-20,-6,-5,-2,59
1499894522771406,-8,5,21,30,2,2,3,-9
1499894522771406,26,-2,-11,-19,-8,0,2,71
1499894522788342,-18,-2,-3,10,2,-1,0,-10
1499894522788342,13,4,8,-23,-1,0,-3,19
1499894522789343,9,-7,-27,37,-2,-2,3,-23
1499894522789343,4,1,11,-69,-1,-6,-10,-37
1499894522810377,-8,2,-1,62,1,0,1,-9
1499894522810377,-23,-5,-14,-21,-1,3,0,-18
1499894522813345,-6,-7,4,0,-4,-4,0,-22
1499894522813345,8,5,-1,-5,4,1,-2,-5
1499894522824344,-3,-1,16,53,4,0,2,-5
1499894522824344,1,7,19,-33,-5,-3,-9,-66
1499894522831340,4,-9,-60,-29,0,0,0,9
1499894522831340,-23,-4,-6,-58,-2,-2,2,5
1499894522847398,1,-7,18,34,-2,-1,-2,-44
1499894522847398,1,2,2,85,8,2,1,14
1499894522855341,0,8,5,-100,-15,-5,-3,32
1499894522855341,9,-8,-5,99,2,0,3,-15
1499894522870344,10,7,6,-92,-2,2,1,46
1499894522870344,-11,-10,-5,37,0,-1,-4,-18
1499894522872342,-9,-2,-2,26,3,-2,-2,-15
1499894522872342,-12,1,1,33,-2,-1,1,-26
1499894522884343,-9,1,6,-5,-1,-4,-1,-25
1499894522884343,-11,-3,-2,-7,-1,-1,-8,-3
1499894522891343,-7,-3,-7,-47,-4,-3,-2,-14
1499894522891343,-2,-4,-20,-6,-4,0,6,29
1499894522908344,0,-1,-10,17,1,-6,-8,10
1499894522908344,8,5,9,-38,-3,6,2,37
1499894522909344,4,-5,-2,74,9,7,4,-4
1499894522909344,-11,-1,24,-66,-14,-7,-5,5
1499894522930348,-12,-9,-15,-46,-5,-3,-2,50
1499894522930348,9,9,31,7,6,-1,4,-26
1499894522932346,-1,-8,-21,39,-5,0,-5,-5
1499894522932346,-2,-5,-13,90,4,-3,-5,-6
1499894522944351,17,6,26,-47,-4,2,5,58
1499894522944351,3,3,8,-82,-3,-3,-2,-7
1499894522951401,3,-1,4,40,1,1,4,4
1499894522951401,-6,-7,-33,-78,-5,-3,-5,-29
1499894522968366,1,-3,-6,107,-1,-2,-1,10
1499894522968366,2,3,-5,-18,1,0,3,55
1499894522969353,-2,0,6,-19,0,-2,-1,-9
1499894522969353,5,5,6,-8,3,2,0,5
1499894522990364,-6,-3,3,31,5,1,-6,-28
1499894522990364,-5,-6,-27,-25,-7,-3,-4,36
1499894522992350,11,8,23,6,4,2,1,-10
1499894522992350,-7,-4,-6,51,-11,-3,2,60
1499894523005350,1,1,-1,67,5,-1,-6,-51
1499894523005350,-14,-18,-13,-66,-10,-6,-2,-13
1499894523011358,8,1,-4,-75,-6,-5,-5,15
1499894523011358,5,3,14,43,7,1,-1,0
1499894523027371,4,4,12,11,0,3,5,33
1499894523027371,-8,-4,-34,-58,-9,-3,-1,1
1499894523029352,9,5,21,82,1,-4,-3,18
1499894523029352,9,5,20,-5,-3,-3,-1,-7
1499894523050410,-10,-9,-14,-16,2,4,1,-13
1499894523050410,1,3,16,24,6,0,-1,-36
1499894523052356,-19,-9,-56,-35,-6,-1,0,-35
1499894523052356,4,5,19,22,8,6,0,30
1499894523064360,10,-10,-23,-31,-16,-13,-9,26
1499894523064360,-10,-11,12,19,0,-2,-1,-11
1499894523071369,12,7,7,-75,-4,0,-1,12
1499894523071369,-22,-2,-6,-14,1,-3,-7,-103
1499894523088359,16,5,-15,6,4,3,7,42
1499894523088359,-7,1,23,25,3,6,10,-37
1499894523089355,-4,-4,-4,24,-4,-6,-12,7
1499894523089355,-1,-3,-10,-14,4,0,4,2
1499894523110414,3,0,15,-8,2,5,3,-10
1499894523110414,13,1,-11,-1,-4,-2,-2,88
1499894523112361,-5,1,22,42,7,-1,1,-32
1499894523112361,-6,-4,-19,-21,-10,-1,-3,-10
1499894523124378,2,-6,23,-3,-3,-2,-2,19
1499894523124378,8,3,-21,-41,-7,-1,2,23
1499894523133358,-3,-3,-10,21,2,-2,-2,-57
1499894523133358,13,6,7,11,1,1,0,6
1499894523147360,-5,0,1,6,3,0,-1,-29
1499894523147360,-9,-1,-1,-14,-9,-5,-7,-46
1499894523149359,2,3,24,57,6,0,4,28
1499894523149359,-10,-20,-57,-15,-9,-10,-5,-13
1499894523170360,0,7,9,3,4,4,4,3
1499894523170360,-4,-3,-20,28,3,-1,-4,-13
1499894523172363,5,2,19,-41,-4,3,-1,3
1499894523172363,-18,0,3,54,2,-2,-1,-27
1499894523184360,1,1,-5,-123,-7,2,2,-15
1499894523184360,-8,4,25,75,3,-5,-9,-82
1499894523193371,-8,-9,-52,-34,-2,-1,2,3
1499894523193371,4,4,28,15,5,3,1,-6
1499894523208365,-9,1,-5,-28,-4,-5,-6,-37
1499894523208365,16,-2,4,23,0,-5,-1,-8
1499894523209364,-22,0,20,29,2,5,-4,0
1499894523209364,12,0,5,-90,-9,-2,-1,4
1499894523230366,1,4,-7,24,1,2,4,-1
1499894523230366,-43,2,9,-19,2,-2,-2,11
1499894523232380,18,-4,-15,31,-4,-4,-2,19
1499894523232380,1,-3,-12,-6,2,1,-1,32
1499894523244364,-9,-5,12,37,-10,-9,-7,-1
1499894523244364,19,0,1,-6,1,3,2,73
1499894523253366,-25,1,-13,-30,-2,-3,-8,-42
1499894523253366,-1,-2,10,44,3,3,6,10
1499894523267422,2,3,12,12,7,0,2,-32
1499894523267422,-6,-12,-12,-52,-9,0,-1,14
1499894523269365,-2,4,-5,-3,-6,-4,-4,2
1499894523269365,23,12,4,-54,-5,-1,-3,12
1499894523290366,-9,-5,-5,32,3,-1,3,2
1499894523290366,-2,-2,-20,24,4,1,-6,7
1499894523292366,3,-5,-6,4,2,1,4,-1
1499894523292366,-9,4,13,-58,-3,-1,4,33
1499894523304368,17,-2,-17,55,-11,-9,-9,7
1499894523304368,-17,-2,5,-35,2,-1,-5,-58
1499894523313369,6,2,23,29,1,4,7,32
1499894523313369,-16,-9,-8,43,3,-3,-5,-2
1499894523327374,21,2,-3,-37,-8,-2,-3,-14
1499894523327374,7,10,1,-19,1,1,4,6
1499894523329368,-11,-11,-11,1,-7,-6,0,-9
1499894523329368,2,-2,8,21,0,2,-3,-12
1499894523350435,-17,-7,-1,-1,-1,0,-5,-57
1499894523350435,13,2,11,36,2,-1,2,-27
1499894523352377,-3,-1,-4,-64,-4,1,-2,-3
1499894523352377,5,6,1,28,3,1,6,26
1499894523364370,-32,-13,-25,-56,-3,-5,-7,16
1499894523364370,8,-5,-20,-8,1,-1,1,15
1499894523373371,-2,1,19,62,-3,1,0,-26
1499894523373371,4,-4,-5,-64,-7,-2,-3,-9
1499894523387373,-2,9,2,37,8,3,3,21
1499894523387373,0,-9,-20,-13,-9,-5,0,21
1499894523389379,3,-3,7,2,1,-3,-7,-9
1499894523389379,-5,-3,-17,-12,1,-1,-1,-15
1499894523410413,0,5,15,14,-1,4,5,23
1499894523410413,1,3,10,41,4,0,0,-16
1499894523413373,4,7,31,-57,-3,-2,1,15
1499894523413373,-5,-11,-36,70,-3,-1,-2,-20
1499894523424395,2,-5,6,-3,-3,-2,2,45
1499894523424395,6,6,-3,-54,-4,3,1,-13
1499894523433376,5,1,-2,4,-1,-2,0,-1
1499894523433376,12,3,4,11,8,1,0,42
1499894523447429,1,-4,-14,-18,-4,-2,-1,20
1499894523447429,14,-7,-1,21,-3,-2,1,7
1499894523449375,5,6,12,4,7,4,-1,1
1499894523449375,-1,5,20,3,-5,-4,-2,3
1499894523470379,-20,-17,-39,-4,-8,-3,0,-61
1499894523470379,12,0,-20,-9,2,-5,-6,30
1499894523472377,3,3,14,-36,-4,1,5,1
1499894523472377,8,0,-1,-34,-1,3,-4,82
1499894523484379,-6,4,13,-3,5,-2,-4,-26
1499894523484379,-7,-3,-2,35,-5,1,3,-9
1499894523493378,4,1,-5,-11,0,-1,2,33
1499894523493378,-13,0,-1,11,3,2,2,-33
1499894523508389,9,-3,-8,3,0,1,0,28
1499894523508389,1,-3,2,47,5,1,-4,7
1499894523509381,-4,3,6,-44,0,-1,-1,-28
1499894523509381,-8,5,13,-2,-1,3,1,-9
1499894523530384,7,-14,-26,21,-2,-3,-4,17
1499894523530384,-4,2,10,28,3,0,1,-2
1499894523532398,-4,-5,-20,-35,-2,2,1,14
1499894523532398,12,8,28,54,2,-2,-4,-19
1499894523544412,-14,3,23,-76,-10,1,0,69
1499894523544412,-5,-7,-4,20,-8,-8,-2,16
1499894523553382,1,-4,-6,15,5,0,-3,-52
1499894523553382,4,-1,0,-32,-7,-4,2,-9
1499894523567421,-21,7,23,44,8,8,11,32
1499894523567421,6,-3,-21,-31,-2,0,-4,-13
1499894523569388,-14,1,14,34,0,-1,-1,7
1499894523569388,-20,-12,-32,-34,-7,-2,-4,-57
1499894523589399,1,5,5,43,4,0,-2,-10
1499894523589399,15,1,-5,-49,-2,1,1,49
1499894523598387,-4,2,17,71,4,0,1,1
1499894523598387,7,-11,-39,-44,-12,-3,2,10
1499894523612385,-5,5,7,24,4,1,-3,-26
1499894523612385,-7,3,9,-17,1,3,-5,-16
1499894523614385,14,-6,-15,21,-1,-4,-4,26
1499894523614385,-13,9,26,10,3,1,1,-96
1499894523627386,18,-4,4,15,-3,-7,-4,2
1499894523627386,13,5,1,-31,1,5,2,12
1499894523629386,-8,-10,-18,-15,-5,-5,-3,7
1499894523629386,3,6,18,69,4,1,-3,15
1499894523650444,-15,-10,-33,-121,-6,0,0,-67
1499894523650444,-2,1,19,74,1,-3,5,-15
1499894523652389,0,-8,-17,-60,-8,-1,-5,30
1499894523652389,-13,-9,-16,4,-1,-9,-9,-69
1499894523672408,-3,2,17,35,1,0,-3,20
1499894523672408,4,-3,-17,-32,0,6,2,-1
1499894523674388,-10,5,19,37,2,1,1,3
1499894523674388,13,-13,-36,24,-1,-2,-1,43
1499894523688398,-8,-6,-8,-36,-6,-5,-4,-21
1499894523688398,-33,0,-2,-49,-6,-7,-5,-35
1499894523689390,12,2,-7,15,2,2,2,11
1499894523689390,-20,3,39,10,8,2,0,-3
1499894523710390,27,-1,-30,10,-2,-4,-9,31
1499894523710390,1,-5,-15,23,-6,-5,0,18
1499894523713392,-1,0,5,-59,-9,-5,-5,-75
1499894523713392,-3,-6,2,-17,1,0,-1,-31
1499894523732392,-14,2,22,23,5,3,4,-55
1499894523732392,1,-5,-7,4,1,-2,-9,46
1499894523734392,14,1,-4,4,-5,-1,-2,33
1499894523734392,-3,-8,-4,5,-4,-5,-4,3
1499894523747412,-1,2,1,-2,0,0,2,0
1499894523747412,-2,1,2,-6,3,1,0,-18
1499894523754451,-17,4,6,5,2,0,3,-4
1499894523754451,22,2,9,15,-2,0,1,41
1499894523770413,10,-4,-15,-24,-2,2,1,23
1499894523770413,-8,5,13,21,0,1,4,-21
1499894523772394,2,-6,-6,100,4,-2,-1,39
1499894523772394,-4,0,-4,-79,-2,-2,-3,-53
1499894523793396,6,4,14,-16,-4,-3,1,9
1499894523793396,3,0,4,-4,2,1,1,3
1499894523795395,-17,-5,-19,-26,-4,-3,0,-5
1499894523795395,-4,2,22,80,8,5,3,22
1499894523807437,11,2,0,-60,-8,-2,0,0
1499894523807437,-16,-2,-8,-17,1,1,-2,-46
1499894523814397,-1,-2,-5,-21,-2,-9,-5,0
1499894523814397,-5,2,22,35,-2,4,0,15
1499894523830402,17,-2,-28,6,1,0,-1,21
1499894523830402,-4,0,27,-1,-4,-4,0,3
1499894523832397,0,-1,3,10,3,0,-2,-16
1499894523832397,-4,-1,-22,-60,-7,-5,-2,12
1499894523852466,5,8,22,29,7,2,1,12
1499894523852466,2,-5,3,28,-3,-7,-5,29
1499894523854401,-2,-2,-27,-15,0,-1,2,-13
1499894523854401,-2,-1,12,26,-2,0,-1,10
1499894523867426,-3,-2,-3,-35,-6,-4,-4,-4
1499894523867426,1,8,-2,-54,3,5,3,-13
1499894523874400,-13,-11,5,74,-2,-4,-3,5
1499894523874400,29,-2,-10,-105,-10,-4,-4,40
1499894523890420,-19,-2,-7,121,7,-2,2,-50
1499894523890420,2,-2,-13,-77,2,-1,-6,55
1499894523892401,-3,1,6,-6,-2,3,3,-20
1499894523892401,16,1,-20,43,6,1,-1,30
1499894523912404,-6,-4,5,-56,-9,-3,-2,9
1499894523912404,1,-2,29,12,-2,-2,-1,-13
1499894523914403,1,3,-8,26,0,2,3,16
1499894523914403,-11,-4,-1,1,0,1,0,11
1499894523927422,2,1,-6,-23,1,2,1,2
1499894523927422,-1,-3,-15,38,-2,-2,0,-20
1499894523934429,6,0,18,-35,-3,1,0,25
1499894523934429,-5,0,-4,-15,-3,-7,-4,-64
1499894523950440,2,-1,4,29,4,4,1,4
1499894523950440,0,3,3,-13,-13,3,-1,-10
1499894523952417,-1,-14,-33,14,2,-4,-3,-2
1499894523952417,-6,2,5,-68,-3,0,1,60
1499894523972406,-9,1,5,64,6,-2,-3,-32
1499894523972406,-11,-3,-8,-5,-8,-5,5,-35
1499894523974406,6,-2,14,-38,0,2,-7,-6
1499894523974406,-5,4,3,8,5,1,2,-13
1499894523987452,-20,-5,-3,20,2,-1,-6,-18
1499894523987452,2,8,-3,-63,-7,0,3,56
1499894523994410,-5,-6,-14,-42,4,0,2,-35
1499894523994410,8,-4,2,46,-6,-6,-3,8
1499894524010445,-1,2,27,-8,-2,-1,2,25
1499894524010445,3,-1,-17,55,7,3,-6,-59
1499894524012409,-20,1,14,-50,-6,-3,-2,-30
1499894524012409,-5,2,-10,2,1,0,-1,2
1499894524032410,9,-11,-25,8,0,-5,1,14
1499894524032410,-6,4,24,-16,1,2,-1,-32
1499894524034410,-13,-5,10,26,-5,1,0,15
1499894524034410,28,-7,-20,18,-1,-3,-4,-8
1499894524047468,-2,5,15,-11,-2,0,1,-27
1499894524047468,7,-2,1,-2,8,-1,4,39
1499894524054458,8,4,4,-9,0,0,-4,0
1499894524054458,-22,-4,-4,-3,-6,-2,0,5
1499894524070449,4,2,12,-2,4,6,-1,4
1499894524070449,2,-10,-17,28,-4,-2,1,11
1499894524072411,12,2,-2,1,-3,-3,0,17
1499894524072411,-53,2,5,63,5,-1,0,-19
1499894524092414,17,-9,-23,-100,-16,-7,-7,-9
1499894524092414,-3,2,18,67,6,0,-3,0
1499894524094413,8,-2,-24,-21,3,4,1,9
1499894524094413,7,5,13,8,1,1,3,49
1499894524106417,-13,-2,-3,-45,-2,0,-1,-2
1499894524106417,0,-7,6,17,-5,-6,-6,-9
1499894524115414,5,6,4,-2,1,-2,2,5
1499894524115414,13,1,3,-21,-5,-1,1,13
1499894524130436,12,-5,-4,39,-1,0,2,88
1499894524130436,1,0,-18,-58,3,6,-1,-28
1499894524132414,-3,-2,26,93,-2,-6,-4,-15
1499894524132414,1,-3,-9,-14,1,0,0,-24
1499894524152459,6,9,-1,-14,0,-3,-1,10
1499894524152459,5,-10,-4,18,-2,-2,9,70
1499894524154417,-2,4,-5,-62,-1,3,-4,-2
1499894524154417,-3,-1,-3,-4,-3,-2,-1,-23
1499894524166459,-10,5,15,-11,-5,0,-1,-21
1499894524166459,5,-5,-6,17,2,0,1,23
1499894524175419,5,1,-17,-24,-2,-1,-1,10
1499894524175419,-37,-10,10,19,-7,-6,-4,-45
1499894524190434,19,4,12,35,6,3,2,14
1499894524190434,-12,-2,-15,-21,-4,-3,-5,-12
1499894524191420,10,-2,3,2,-3,-1,2,21
1499894524191420,-8,-1,-13,18,-3,-2,-7,-36
1499894524212430,1,-9,-16,8,-6,-12,-4,-7
1499894524212430,-1,7,15,-7,4,2,-1,-12
1499894524214420,-1,2,5,63,6,2,0,6
1499894524214420,13,-3,-5,-118,0,5,4,17
1499894524226441,-5,0,17,25,2,0,-1,-15
1499894524226441,3,2,9,19,0,-4,-2,-20
1499894524243427,-3,-9,-43,-20,-3,-2,0,31
1499894524243427,7,1,14,13,0,2,0,14
1499894524250478,-12,-7,-15,17,0,-1,0,-26
1499894524250478,5,6,12,-7,12,6,2,6
1499894524252427,-17,-14,-48,-10,-17,-9,-7,-29
1499894524252427,-9,2,7,8,3,0,3,43
1499894524272443,19,-2,-14,-19,-6,-3,-4,34
1499894524272443,-3,-1,10,66,4,-3,-2,4
1499894524274424,21,4,5,-70,-4,1,2,-3
1499894524274424,-31,-2,-6,17,-3,0,-1,68
1499894524286450,0,-3,4,28,-1,1,0,-29
1499894524286450,0,-3,-9,10,-5,-3,-1,-11
1499894524295427,-18,10,21,3,6,1,-2,25
1499894524295427,9,-8,-16,-11,-9,-5,-4,-16
1499894524310463,-9,0,1,50,5,2,0,7
1499894524310463,-12,-6,-14,-112,-12,-1,-6,-43
1499894524312430,9,4,22,42,2,-6,2,-17
1499894524312430,12,7,5,6,5,5,-1,-25
1499894524332428,-14,-2,9,18,0,0,-4,2
1499894524332428,-3,-10,-35,-19,-7,-6,-1,2
1499894524334427,-12,-2,21,58,8,3,-1,-30
1499894524334427,9,0,-4,-94,-12,-6,-3,-34
1499894524346483,-2,-11,-34,-8,-3,-3,-4,48
1499894524346483,1,6,26,23,1,0,-1,-71
1499894524355438,5,1,7,16,0,1,0,3
1499894524355438,-2,0,-6,-10,1,-4,-2,55
1499894524370430,-8,-8,-17,-41,-11,-2,-2,-16
1499894524370430,10,1,-14,18,-4,-2,0,36
1499894524372429,-7,0,14,-15,-2,1,0,-26
1499894524372429,14,-2,-21,22,1,-1,0,-16
1499894524392434,-12,0,-6,-19,0,1,1,-22
1499894524392434,8,9,20,39,6,0,-2,27
1499894524394430,-4,-7,-34,-68,-16,-5,4,-12
1499894524394430,11,-2,6,24,4,-1,-6,8
1499894524406457,-1,2,10,-8,5,2,4,-16
1499894524406457,17,7,-7,36,6,8,5,45
1499894524415434,-15,-15,-9,-38,-13,-9,-8,-18
1499894524415434,-5,0,3,40,6,0,0,-28
1499894524430432,2,7,10,2,1,-2,-1,4
1499894524430432,-6,-9,11,-10,-4,-4,-11,-84
1499894524431453,9,6,-4,-22,6,5,1,27
1499894524431453,-3,-6,-8,8,-6,-2,2,26
1499894524452500,-12,0,27,-3,-2,-8,-6,-56
1499894524452500,-22,-3,-14,-18,-6,-1,3,-10
1499894524454435,8,-4,-7,-15,1,-1,-5,27
1499894524454435,21,1,2,32,6,2,-2,-25
1499894524466481,12,5,2,-34,0,4,5,5
1499894524466481,-14,-8,-14,-24,-8,-2,-2,11
1499894524475434,-3,-3,-9,36,1,-3,-4,-18
1499894524475434,-7,3,14,5,4,0,1,0
1499894524490454,11,-1,-2,-10,0,2,0,38
1499894524490454,-17,-7,-12,-2,-5,-7,-3,-31
1499894524491438,9,4,18,-7,4,5,1,12
1499894524491438,0,3,1,43,3,1,2,-3
1499894524512439,-7,-2,14,-41,-9,-7,-3,8
1499894524512439,-8,-5,-32,23,3,-3,-3,5
1499894524514439,-6,-2,-4,-23,1,1,0,-4
1499894524514439,6,-1,9,-25,-7,-2,1,52
1499894524535440,-5,-1,-13,50,4,-3,1,-17
1499894524535440,21,3,16,-24,1,4,8,68
1499894524536440,-10,-5,-7,18,3,-4,-11,-35
1499894524536440,-5,3,0,47,2,1,3,-4
1499894524550505,-11,1,-1,-85,-8,-4,-5,-16
1499894524550505,-7,-3,-4,24,1,-3,-3,-3
1499894524551440,8,5,8,-18,2,0,4,27
1499894524551440,3,-8,-16,-22,-13,-1,-1,-7
1499894524572460,-4,-4,-12,61,2,-1,-1,3
1499894524572460,6,1,5,-63,-5,-1,-2,1
1499894524574443,-24,0,0,-11,-3,2,3,-3
1499894524574443,1,0,0,-19,0,-2,-10,-35
1499894524602512,5,-6,-25,17,-2,-1,-1,6
1499894524602512,3,2,4,7,-3,1,2,33
1499894524604447,-5,5,11,41,4,-2,-4,-55
1499894524604447,10,-7,-2,-49,-7,-4,-1,29
1499894524610481,-9,-4,0,-14,-2,1,0,1
1499894524610481,3,1,-4,21,4,-2,0,11
1499894524612450,8,4,15,7,3,3,3,-4
1499894524612450,-1,-2,-7,12,-2,-3,-2,-15
1499894524632446,-5,0,7,21,3,0,-2,-17
1499894524632446,-11,2,4,-40,2,1,0,-18
1499894524634445,9,-4,-16,57,-5,-2,-1,28
1499894524634445,-5,4,23,-30,4,0,-1,-3
1499894524655446,12,1,-5,-15,-2,0,0,10
1499894524655446,-19,-2,-7,18,-3,-3,-3,-30
1499894524657451,-3,-1,-2,-3,-1,1,3,5
1499894524657451,5,-1,-6,6,-1,0,-1,30
1499894524670447,2,1,15,19,6,0,4,38
1499894524670447,13,-2,-2,-39,-8,-5,-6,-85
1499894524683449,-7,2,25,16,-7,-5,-1,-8
1499894524683449,-2,-6,-26,-8,-1,-2,0,-18
1499894524692452,-13,8,16,43,6,4,1,-59
1499894524692452,18,-3,4,-31,-8,-2,-2,49
1499894524694449,-5,0,1,-59,2,2,2,7
1499894524694449,-3,-3,2,49,-5,-3,-2,-52
1499894524715470,-9,-4,-11,14,2,-4,-2,-9
1499894524715470,2,-6,-1,-14,-1,2,-1,9
1499894524721510,1,0,2,26,4,-2,-2,0
1499894524721510,2,2,13,-16,-1,3,1,-7
1499894524729450,3,6,1,41,4,1,-3,6
1499894524729450,-18,-5,-5,-46,-10,-8,-1,0
1499894524736449,3,-5,-10,-52,-3,-3,-6,-31
1499894524736449,-9,9,9,2,8,1,-1,-62
1499894524752519,-1,-14,-22,45,-6,3,0,8
1499894524752519,-5,-5,-5,-33,2,-1,0,-6
1499894524754457,3,1,-4,23,-2,0,0,20
1499894524754457,-4,4,9,-42,1,-2,2,18
1499894524775452,2,-14,-20,-24,-8,-6,-5,-14
1499894524775452,2,4,2,37,4,1,0,53
1499894524776452,10,-2,-5,38,-1,-1,1,-8
1499894524776452,-12,0,2,-48,-8,-3,-5,-27
1499894524789452,4,1,-1,-34,-7,-5,-2,15
1499894524789452,-2,5,19,39,9,4,2,-10
1499894524796486,6,-14,-35,-19,-7,-6,-1,52
1499894524796486,-5,-2,-8,29,1,3,-1,-15
1499894524812456,1,2,6,-19,-2,0,-1,-7
1499894524812456,-3,2,-1,-31,-4,-2,-2,-10
1499894524814455,7,0,2,52,1,1,-3,6
1499894524814455,-4,-9,-11,-4,-1,-2,-3,11
1499894524835460,3,6,2,8,8,1,6,44
1499894524835460,-39,-4,8,9,-6,2,-5,-94
1499894524837514,15,3,3,-81,-6,-4,0,14
1499894524837514,11,-4,-6,14,-3,-3,1,30
1499894524849496,10,13,23,-10,3,3,3,17
1499894524849496,1,-20,-50,68,-6,-8,-6,55
1499894524856457,-23,7,16,-63,1,6,-2,-56
1499894524856457,-12,-7,-14,4,-2,-2,1,-12
1499894524872473,8,5,10,-38,-2,-3,-2,-2
1499894524872473,10,5,18,19,-2,-1,0,7
1499894524874457,-3,-1,-4,11,-1,-2,-1,0
1499894524874457,3,0,0,9,3,1,1,-2
1499894524894479,-2,-4,-8,-4,-5,-2,-6,8
1499894524894479,6,1,-4,14,-2,-2,-1,-4
1499894524903460,0,0,6,-1,2,2,1,14
1499894524903460,0,4,3,6,4,2,3,1
1499894524908464,-6,-9,-24,-7,-7,-3,-4,-16
1499894524908464,-1,1,10,8,3,-1,-1,6
1499894524917495,4,3,20,-29,-4,-4,-4,-45
1499894524917495,-2,-8,-26,39,3,-3,-5,-4
1499894524932467,-13,0,4,-42,-1,-2,1,5
1499894524932467,11,0,-6,-11,-1,3,0,20
1499894524932467,4,4,8,37,2,1,1,21
1499894524932467,-5,2,8,-18,0,-2,-2,17
1499894524954506,-2,-9,-12,-3,-6,-2,-4,-19
1499894524954506,1,0,-2,15,1,2,3,-20
1499894524955463,6,-3,23,6,0,-3,-1,42
1499894524955463,-12,4,23,3,-4,-2,-5,1
1499894524969471,0,-2,-32,-32,2,-2,1,-2
1499894524969471,14,-3,-12,12,-2,2,4,17
1499894524977481,-10,0,-2,-33,-2,3,1,-1
1499894524977481,8,-4,0,11,-4,-4,-3,-4
1499894524992466,-1,4,13,-3,1,0,-1,-22
1499894524992466,4,-1,-9,-19,-1,-1,-2,17
1499894524993465,-21,-8,-22,6,1,-2,1,7
1499894524993465,30,4,3,-17,2,4,2,0
1499894525022467,-6,6,31,97,0,-3,-1,-15
1499894525022467,-4,-5,-25,-65,-10,-3,-2,-1
1499894525023466,-35,-11,-2,29,-2,-6,-16,-56
1499894525023466,-7,2,-3,-16,-1,-1,5,9
1499894525028467,-1,-5,1,7,-3,0,-5,7
1499894525028467,-7,6,19,17,8,-4,-2,-9
1499894525037488,5,4,-8,-2,-4,4,-1,1
1499894525037488,-1,-7,-9,-11,-5,-5,-3,10
1499894525052507,1,0,0,-35,0,0,1,-11
1499894525052507,-4,-2,14,33,-1,-1,-2,15
1499894525053470,10,0,-11,-2,4,2,2,-15
1499894525053470,0,-1,9,15,0,1,-1,-1
1499894525074473,0,-6,-21,9,-2,1,2,16
1499894525074473,-4,1,-10,-58,-3,-4,-4,-5
1499894525075469,11,2,15,96,0,-2,1,22
1499894525075469,-6,1,14,-90,-6,-1,-1,14
1499894525089470,-1,-1,-5,-2,-2,-1,-2,-49
1499894525089470,6,-2,-6,25,2,1,-2,16
1499894525097483,6,-2,12,31,0,-5,1,-8
1499894525097483,-17,1,-2,-28,-1,2,0,-13
1499894525112475,-12,-3,3,4,0,0,-1,-31
1499894525112475,-5,-9,-31,-15,-4,-5,-6,-11
1499894525112475,5,7,10,-20,3,1,2,12
1499894525112475,-4,3,5,14,2,-1,-2,11
1499894525134481,11,-1,-10,39,0,2,4,73
1499894525134481,-9,1,12,-43,-3,0,1,-43
1499894525135474,-2,-2,4,5,-3,-3,0,-8
1499894525135474,12,0,-17,-6,-4,-4,-7,-26
1499894525149479,0,2,-1,-11,3,1,-2,9
1499894525149479,33,-2,20,44,-9,-3,0,6
1499894525157477,-21,-5,-25,-29,-8,-5,0,-8
1499894525157477,-2,-4,-4,-34,-3,-3,-4,7
1499894525171531,-3,4,14,42,1,2,4,4
1499894525171531,-1,3,-11,8,5,3,1,-2
1499894525179475,0,0,3,12,0,0,-3,-11
1499894525179475,16,-2,0,-22,-4,-1,2,53
1499894525194496,-4,-2,5,-29,-3,-3,-4,0
1499894525194496,-9,-6,-6,41,0,-4,0,31
1499894525195477,3,3,-5,13,-2,5,1,13
1499894525195477,-6,-2,1,-26,-4,-5,-2,2
1499894525208509,8,1,-4,-19,2,5,0,10
1499894525208509,-1,5,12,-13,5,0,0,-3
1499894525217502,3,3,12,1,-5,-1,-1,17
1499894525217502,-7,-8,-22,15,-2,-10,-5,-12
1499894525232499,10,-1,4,-10,1,2,-3,14
1499894525232499,-6,0,8,-7,3,0,0,-34
1499894525232499,6,4,-14,-27,5,6,3,13
1499894525232499,-16,1,5,30,1,1,1,-45
1499894525254482,0,-6,-10,-9,-7,-6,-4,-4
1499894525254482,3,4,1,-3,6,2,3,20
1499894525255493,9,-9,7,5,-8,-6,-5,11
1499894525255493,7,3,16,49,5,4,2,40
1499894525277482,-6,-5,-17,-59,-3,-2,-2,-85
1499894525277482,-5,2,-1,12,-7,-5,-5,1
1499894525278481,3,-4,-17,-22,0,-1,0,12
1499894525278481,19,2,-3,17,0,4,3,67
1499894525292485,-1,-2,15,3,3,-3,-4,-14
1499894525292485,-5,2,13,-11,-3,0,1,11
1499894525292485,-5,-5,-8,7,2,1,9,-17
1499894525292485,-3,-1,0,36,0,-1,-9,-8
1499894525314505,-4,-2,4,-47,1,2,-2,8
1499894525314505,-2,-3,-12,8,0,0,-2,-14
1499894525315504,3,10,37,-27,-2,-2,1,17
1499894525315504,-8,-10,-41,21,-1,-1,0,-34
1499894525337498,-3,2,10,7,-5,-4,0,18
1499894525337498,-2,-4,1,7,-2,-5,-2,-4
1499894525338489,-6,-1,-6,-1,2,2,-4,-5
1499894525338489,-4,0,13,3,1,1,0,-7
1499894525352548,1,-2,-7,-25,-2,-3,-3,0
1499894525352548,-6,3,3,-13,-6,2,1,-5
1499894525352548,-2,-4,-3,41,-4,-5,-7,-11
1499894525352548,-3,-9,-25,-13,-1,-2,-3,-31
1499894525374508,-5,-2,-4,28,-1,-7,0,15
1499894525374508,0,3,15,-8,5,7,1,-5
1499894525375491,-4,-3,-13,-38,-1,0,-1,-1
1499894525375491,-4,2,2,7,-2,-2,-1,-10
1499894525397550,2,-1,1,15,1,2,1,-4
1499894525397550,0,-3,-9,-15,-1,-4,-3,8
1499894525398510,3,-1,-2,-2,-1,-2,-4,-5
1499894525398510,1,2,11,-6,0,-2,-1,3
1499894525412489,-3,1,2,13,-1,-3,-3,0
1499894525412489,0,-1,2,6,0,0,-3,3
1499894525412489,-1,-2,-8,-1,3,-2,0,2
1499894525412489,-5,1,3,-9,-1,1,-1,-12
1499894525434490,0,0,-4,-8,-4,-1,-1,2
1499894525434490,-1,-1,3,20,0,0,-1,-1
1499894525435491,-1,-2,-14,-9,-3,-4,-3,-6
1499894525435491,-4,-2,-7,-27,-2,2,2,-2
1499894525459496,1,-1,19,82,3,0,-1,4
1499894525459496,0,0,-1,-39,2,0,1,17
1499894525460493,-2,-3,-8,-7,-3,0,-1,-6
1499894525460493,-2,-1,3,-6,-2,-2,-2,-7
1499894525472509,-1,1,-6,-10,-2,-2,-2,3
1499894525472509,3,-1,0,22,1,-1,-2,-1
1499894525472509,-2,-1,-3,-7,3,1,-1,5
1499894525472509,-2,1,1,2,1,-1,-3,-4
1499894525494527,0,-1,-4,-7,-3,-1,0,1
1499894525494527,0,-1,-3,-2,-3,-5,-2,-5
1499894525495494,-1,0,-4,-11,-1,0,-1,1
1499894525495494,-3,-2,3,12,-5,-5,-2,-5
1499894525517551,0,0,-5,-15,4,7,2,2
1499894525517551,-4,-4,-1,1,-3,-3,-2,-4
1499894525517551,-1,-1,2,13,-3,-2,-2,1
1499894525517551,0,0,-2,-27,1,1,0,2
1499894525532517,-1,0,1,19,-3,0,0,0
1499894525532517,-2,-2,-3,-7,-3,-1,-2,-2
1499894525532517,-1,-1,1,10,1,-2,-1,-1
1499894525532517,0,-2,0,-4,-1,-3,-1,-1
1499894525554578,-1,-2,-5,-5,0,-1,-1,0
1499894525554578,-2,0,-3,-17,-1,4,1,-5
1499894525555498,0,-2,-4,-6,-1,-3,-1,-1
1499894525555498,-1,-2,2,6,-2,-2,-1,-3
1499894525577518,-2,-2,-3,-13,3,3,-1,-1
1499894525577518,-2,-2,0,19,-3,-1,-1,-1
1499894525577518,-1,-1,-2,-10,-1,-2,-2,0
1499894525577518,0,0,-2,0,-2,0,-2,0
1499894525592502,-1,0,1,-4,-1,-2,0,-1
1499894525592502,-1,-1,-7,3,5,2,0,1
1499894525592502,0,-1,2,-14,-3,-1,-1,-2
1499894525592502,-2,1,0,23,2,0,-1,-1
1499894525614523,-2,-2,5,-10,-4,-3,-1,0
1499894525614523,-1,0,-6,-4,-4,-1,0,-2
1499894525615501,-1,-2,-4,-7,7,0,-2,0
1499894525615501,1,1,1,-2,-1,-1,0,1
1499894525637502,-1,0,-4,-7,2,0,-1,-1
1499894525637502,-1,0,1,4,-2,0,-2,-2
1499894525637502,-2,-1,0,5,-5,-2,0,-2
1499894525637502,-1,-2,1,-1,0,-5,-1,-2
1499894525652551,1,0,-3,-4,-1,4,1,-2
1499894525652551,0,-2,1,5,5,-2,-1,-1
1499894525652551,0,1,-3,2,-6,0,-1,0
1499894525652551,-1,-1,-1,-10,-12,-1,-2,-3
1499894525674525,0,-2,-4,7,3,-6,1,1
1499894525674525,2,1,4,-2,-3,3,-2,-1
1499894525675525,1,2,1,-1,1,2,1,0
1499894525675525,-2,-1,-1,8,0,-2,-3,-2
1499894525697542,-1,-2,-2,-12,-8,-2,-1,0
1499894525697542,-1,-2,0,-3,-4,-4,-1,-1
1499894525697542,-2,-1,-1,4,2,1,0,0
1499894525697542,0,0,-1,-7,-2,4,1,2
1499894525712507,-2,1,-5,-5,-2,-3,-3,-3
1499894525712507,-2,1,-2,10,3,-3,-2,0
1499894525712507,0,-2,3,-3,-9,-10,-4,-1
1499894525712507,0,1,-1,7,7,8,2,-2
1499894525734509,2,-2,1,-2,3,0,-3,-2
1499894525734509,0,-1,-1,1,-1,0,-1,0
1499894525735508,0,-2,-10,-20,-3,-1,0,-2
1499894525735508,-2,-1,13,33,0,-4,-2,-1
1499894525757516,-1,0,1,-6,-3,-1,-1,-1
1499894525757516,-2,-3,0,-1,-2,0,-1,-1
1499894525757516,-2,-3,-5,-5,3,1,-1,0
1499894525757516,-1,0,-5,-12,0,-2,-1,0
1499894525772532,-2,-2,-3,-4,-5,-4,0,0
1499894525772532,-1,-2,2,0,-3,-2,-2,-1
1499894525772532,-2,-2,0,12,5,4,0,0
1499894525772532,0,-2,-2,-4,-1,-1,-3,-1
1499894525794514,0,-1,1,4,-1,-2,-3,-1
1499894525794514,-1,-2,-4,-9,-6,-2,-2,-2
1499894525795512,-1,0,1,5,7,-1,-2,0
1499894525795512,1,-2,-4,-6,-5,0,-2,0
1499894525817518,-2,-1,-1,-5,-7,-1,0,1
1499894525817518,-3,-2,0,1,1,1,1,1
1499894525817518,0,0,1,14,-2,-1,-2,0
1499894525817518,0,-1,-1,-13,1,-4,-1,-3
1499894525832513,1,-1,-1,-9,-2,-1,-1,0
1499894525832513,1,-2,-4,-5,-1,-2,0,-2
1499894525832513,-1,0,1,9,-7,-5,-2,-1
1499894525832513,-2,-1,-5,-8,10,0,0,-1
1499894525854516,-3,0,0,-1,-2,4,-1,-1
1499894525854516,-2,0,0,-4,2,-3,-1,-1
1499894525855518,-1,0,-2,-1,5,2,-1,0
1499894525855518,-1,-2,-2,-6,-12,-10,-4,-1
1499894525877536,-1,-1,2,3,7,7,2,1
1499894525877536,-1,0,2,1,-3,1,-2,-2
1499894525877536,-1,-2,-4,-6,-7,2,1,-1
1499894525877536,0,-2,-4,9,0,1,2,0
1499894525892519,0,-1,4,-2,-8,-9,-4,-1
1499894525892519,-1,0,0,4,0,-5,-3,-3
1499894525892519,-1,1,2,-1,-8,-1,1,-1
1499894525892519,-2,-2,-3,-10,10,6,0,-2
1499894525914541,-2,-2,-2,24,5,-1,0,-2
1499894525914541,1,0,0,0,2,-1,-2,-1
1499894525915518,0,0,2,-3,-3,-2,-1,-1
1499894525915518,0,-1,-4,-9,-10,-4,-2,0
1499894525937525,-2,-1,-3,-4,1,-2,-1,0
1499894525937525,0,-1,-1,1,-4,-2,-1,1
1499894525944520,-1,-1,-3,-3,-1,3,0,-1
1499894525944520,0,-2,2,3,2,2,1,-2
1499894525952527,0,-1,-3,-3,-3,-3,-1,-1
1499894525952527,0,-1,0,1,-2,-3,-1,-2
1499894525952527,-1,-1,-2,-8,-2,-4,0,-1
1499894525952527,-3,-1,0,8,5,2,0,-1
1499894525974543,-3,-2,-3,-6,2,-3,-1,-2
1499894525974543,0,1,-1,3,9,3,0,-1
1499894525975521,0,-3,0,2,-2,-3,-2,-2
1499894525975521,0,-1,0,0,-6,-3,-3,-1
1499894525997529,1,-1,-2,-8,-4,-2,0,0
1499894525997529,-2,-1,-3,-2,-7,3,1,0
1499894525997529,0,-1,3,7,4,0,0,-2
1499894525997529,-2,-1,-1,-2,5,-3,-1,-1
1499894526020526,0,0,-2,-4,-4,-4,-2,-1
1499894526020526,0,-1,-2,2,-1,-2,-1,-1
1499894526021531,-1,-1,-5,-11,-5,3,-1,-1
1499894526021531,-1,-1,1,27,19,4,2,0
1499894526034525,1,0,-3,-3,-7,0,1,-1
1499894526034525,-2,-2,-1,2,2,-8,-4,-1
1499894526035525,-1,-1,1,-10,-23,1,-1,-3
1499894526035525,-2,0,-2,-14,5,-4,-2,-1
1499894526057532,-3,-2,-2,6,10,7,0,-1
1499894526057532,-1,-1,1,2,-6,-2,0,-1
1499894526058533,-1,-2,-2,1,2,-2,-1,-2
1499894526058533,-1,-2,-1,-5,-11,-2,0,-2
1499894526071572,-1,0,1,2,-2,-6,-2,-2
1499894526071572,-1,-2,-3,-9,-3,1,-1,0
1499894526079527,-1,-1,-1,0,9,0,-1,-1
1499894526079527,-3,1,0,-2,-6,2,0,-1
1499894526094531,0,-1,-1,-4,-1,0,-3,-1
1499894526094531,-2,0,1,1,1,2,0,-2
1499894526095529,-1,0,-1,0,2,-4,-1,-2
1499894526095529,1,-2,-2,-1,-8,-2,0,-1
1499894526117538,-2,0,2,0,-5,-5,-2,0
1499894526117538,-2,-1,-1,-2,-1,3,-2,0
1499894526117538,-1,-1,-1,3,6,2,0,-1
1499894526117538,-1,-1,-2,-8,-2,-6,-1,-1
