timestamp,emg1,emg2,emg3,emg4,emg5,emg6,emg7,emg8
1499876628194204,-26,-1,-16,97,-1,-3,9,-9
1499876628194204,24,-6,-21,6,2,1,0,49
1499876628195204,-56,0,28,-51,0,-1,-6,-98
1499876628195204,29,7,-38,27,-8,-4,-12,-1
1499876628195204,-26,9,46,36,10,5,1,-50
1499876628195204,10,-2,0,47,-7,-7,-15,24
1499876628196196,-1,-2,-8,-45,-5,-1,-17,15
1499876628196196,8,-20,-21,-7,-4,2,33,4
1499876628201206,-46,-3,13,-36,-4,-3,-3,-20
1499876628201206,11,5,68,59,-4,-4,0,3
1499876628216223,12,1,-28,-93,2,-1,-24,38
1499876628216223,-51,-2,16,30,1,-1,-7,-44
1499876628222254,90,6,2,-46,5,8,41,62
1499876628222254,-4,7,5,-19,10,0,-62,34
1499876628233224,-65,-19,21,99,-5,0,79,44
1499876628233224,61,0,-22,-8,4,0,-40,82
1499876628246198,-12,-7,39,-4,1,1,7,-9
1499876628246198,4,10,-13,-41,-4,2,26,-12
1499876628261201,33,11,-5,79,11,3,-20,50
1499876628261201,-19,-25,3,-58,-7,-5,2,-45
1499876628300188,-28,-21,-66,46,-5,-2,3,31
1499876628300188,-15,4,18,32,6,2,2,-26
1499876628301193,11,8,53,-3,5,-2,-10,-51
1499876628301193,72,-4,5,-37,-16,-1,19,13
1499876628302209,-37,3,91,10,2,4,-37,16
1499876628302209,-17,-17,-39,-87,-22,-12,26,-40
1499876628305253,18,-13,12,55,4,-1,-12,-25
1499876628305253,-61,-8,-63,64,18,6,4,-26
1499876628312255,56,18,39,-128,-7,0,19,33
1499876628312255,-7,3,53,-26,-4,2,3,37
1499876628319252,-3,-33,-23,-30,-9,-2,-4,-4
1499876628319252,16,10,27,-8,1,-6,20,15
1499876628328201,-16,-12,-60,22,-1,0,-8,-18
1499876628328201,82,12,-14,-61,3,-2,-19,90
1499876628342258,-26,15,17,-51,-2,9,37,51
1499876628342258,-37,-33,43,61,2,-1,-9,8
1499876628351196,14,11,66,87,-5,-7,-9,-22
1499876628351196,-23,10,-55,52,2,3,6,-9
1499876628381231,18,1,-67,-88,-12,-6,-19,15
1499876628381231,-6,-10,69,40,-4,-5,-22,-9
1499876628382212,-1,7,-51,16,0,3,24,-19
1499876628382212,-3,-1,-83,-14,8,3,4,-18
1499876628389232,11,-7,69,33,7,0,-2,66
1499876628389232,-24,16,-56,-83,4,3,-6,-67
1499876628394218,17,-7,28,42,-5,-4,7,77
1499876628394218,-1,3,-51,-48,-15,-5,-6,-10
1499876628411215,25,14,-7,-16,-4,2,11,-10
1499876628411215,-32,-10,27,83,-1,-3,1,-4
1499876628412195,-53,-8,-67,32,9,-3,-52,19
1499876628412195,28,8,89,127,1,-4,55,-27
1499876628433236,-4,1,-27,-67,-21,0,38,-2
1499876628433236,31,16,-16,2,-7,0,4,58
1499876628435235,-6,-3,-13,61,-2,-4,-11,-49
1499876628435235,-43,-8,34,45,11,2,-28,-44
1499876628448205,-7,-5,-49,-5,6,1,-2,50
1499876628448205,17,19,-20,-20,2,1,-10,-34
1499876628454209,11,-4,44,23,1,-3,13,-28
1499876628454209,24,-8,-67,-13,-18,-7,-16,-63
1499876628471239,-77,-21,94,63,3,-3,-5,4
1499876628471239,20,13,-34,-45,4,0,-8,20
1499876628472222,2,19,-35,-10,6,7,-3,-9
1499876628472222,2,-11,71,29,4,2,7,48
1499876628493244,-1,-3,-26,16,0,-2,-9,-17
1499876628493244,22,13,-18,-52,-6,-2,-6,0
1499876628495237,-6,-10,-68,-67,-21,-11,-2,-3
1499876628495237,-10,-19,106,6,5,0,-24,-44
1499876628507245,15,12,-24,-7,6,4,12,41
1499876628507245,-28,-6,-46,12,7,7,3,32
1499876628514238,28,27,44,-61,10,5,11,-21
1499876628514238,14,-19,-62,-8,-9,-1,-21,59
1499876628531229,-2,5,-4,108,6,-8,-30,-53
1499876628531229,-13,-15,-31,20,-3,-1,32,-31
1499876628532219,-5,2,3,-30,2,0,-3,-37
1499876628532219,-14,2,-20,26,0,5,14,25
1499876628553205,3,4,37,31,10,1,-13,-84
1499876628553205,18,2,-88,29,-6,-2,12,117
1499876628555224,2,-40,-23,0,-20,-11,-1,27
1499876628555224,26,4,59,-48,11,2,0,4
1499876628567247,6,4,-52,-28,0,2,-6,33
1499876628567247,6,7,44,42,3,0,-11,-50
1499876628576210,-17,7,-46,-17,13,6,14,-18
1499876628576210,-22,-25,-32,-55,-23,-14,-16,38
1499876628591234,-26,22,14,89,8,4,10,-51
1499876628591234,22,-32,61,-107,-15,-7,-13,-52
1499876628592205,-10,22,22,16,9,5,19,14
1499876628592205,-32,3,50,68,4,-1,-1,-56
1499876628613258,51,-14,-79,-98,-10,-8,-1,80
1499876628613258,-18,6,28,25,6,1,-18,-41
1499876628615244,3,7,2,-12,3,6,13,49
1499876628615244,-24,6,18,34,6,4,7,-96
1499876628627254,-20,-6,13,20,-6,-3,7,-12
1499876628627254,16,-9,25,23,0,-2,-5,13
1499876628636213,4,-5,-20,-6,5,-2,-10,20
1499876628636213,29,1,-24,12,-2,-3,-6,84
1499876628651231,-26,8,51,18,1,1,0,-32
1499876628651231,-13,-2,30,-48,-2,-5,-11,-65
1499876628652214,-2,-21,-1,-33,-7,-5,10,-6
1499876628652214,22,24,2,47,15,7,5,14
1499876628673254,-12,-22,-10,-37,-21,-12,-17,-80
1499876628673254,-6,-9,-22,32,3,3,3,17
1499876628675228,-5,-9,55,29,0,0,-11,-27
1499876628675228,23,16,-15,-90,2,1,6,34
1499876628687249,25,12,-3,14,7,5,12,16
1499876628687249,-4,-9,-34,59,-15,-12,-11,-4
1499876628696211,-12,6,-33,-69,-5,-4,-9,31
1499876628696211,-35,-30,-5,-7,-2,-1,0,-16
1499876628711263,16,17,14,-3,4,2,-2,78
1499876628711263,-10,2,-8,-15,-2,2,7,-15
1499876628712231,4,6,19,38,1,2,-3,9
1499876628712231,33,12,-58,-28,-8,-5,8,88
1499876628733255,-11,3,9,8,8,3,2,-19
1499876628733255,8,-7,17,40,5,3,-13,41
1499876628735251,11,-1,-42,25,-6,-5,16,49
1499876628735251,-12,-4,31,12,1,3,-1,-23
1499876628747253,-10,-8,17,-40,-4,-4,-16,-36
1499876628747253,-4,8,-31,-41,-3,0,15,66
1499876628756215,7,1,38,39,0,3,-10,34
1499876628756215,-24,9,-17,-71,-1,1,4,-69
1499876628771250,40,-3,-62,96,3,0,11,93
1499876628771250,-74,-29,57,-46,-14,-13,-21,55
1499876628772239,-8,-12,-43,-34,-4,-3,-2,-4
1499876628772239,8,-5,63,28,-6,-5,-4,-2
1499876628793260,-13,2,62,8,-4,-3,-7,-11
1499876628793260,19,8,-19,-8,3,2,10,6
1499876628795217,0,-6,43,8,-5,-2,1,-18
1499876628795217,-34,-2,-28,-16,9,4,-7,-40
1499876628807258,9,7,-45,63,3,3,2,-35
1499876628807258,-5,-7,16,-4,-1,-1,0,-22
1499876628816256,42,20,56,82,9,2,6,0
1499876628816256,-34,-1,-69,-51,-21,-5,-4,-57
1499876628831265,-8,-20,53,-20,0,-3,-3,10
1499876628831265,-6,-2,-67,4,-4,-2,1,-25
1499876628832219,-31,-1,53,4,1,-1,-3,-24
1499876628832219,19,18,23,66,9,4,-4,39
1499876628853259,2,-2,-43,22,-9,-5,-5,26
1499876628853259,28,10,3,-45,6,4,11,52
1499876628855259,10,3,-16,-48,-4,-3,-6,-65
1499876628855259,-22,-5,-3,88,1,-2,-6,27
1499876628867266,14,3,-4,-83,1,2,1,-16
1499876628867266,16,14,8,126,11,3,4,13
1499876628876222,-32,-24,2,21,-15,-10,-13,-7
1499876628876222,40,-3,84,-119,-11,-2,-3,39
1499876628891251,-11,13,3,8,-2,-3,-6,32
1499876628891251,7,2,93,0,2,5,10,-38
1499876628892222,24,11,-56,-25,5,9,20,52
1499876628892222,-9,-20,-40,62,-6,-10,-24,19
1499876628913274,-14,6,-27,7,3,0,-10,-43
1499876628913274,4,-10,17,2,0,-2,16,12
1499876628915225,0,3,27,-31,3,3,-2,-19
1499876628915225,4,-5,-19,36,5,-4,-1,-26
1499876628936277,-51,-2,-4,-42,-4,2,3,-29
1499876628936277,7,6,-20,61,-4,-5,-18,-30
1499876628937245,-1,-9,2,-29,0,-3,-2,15
1499876628937245,11,12,13,-1,10,5,12,13
1499876628951229,5,-3,-14,5,0,0,-1,-20
1499876628951229,-35,-5,9,-42,-9,-4,-7,-3
1499876628952246,-13,-13,32,26,-3,-5,-3,-73
1499876628952246,-9,8,36,-46,-8,-1,1,35
1499876628973292,8,-27,-11,-39,-12,-7,-6,-25
1499876628973292,-2,19,-1,58,9,3,9,15
1499876628975232,61,22,-33,-74,3,4,-9,50
1499876628975232,-24,-13,-59,-41,-7,-5,8,-68
1499876628987248,24,-2,38,-14,3,3,3,12
1499876628987248,-13,-9,-12,-27,-6,-4,-2,-5
1499876628996234,-23,-5,9,-18,-4,0,-2,-35
1499876628996234,26,18,24,102,16,8,3,-9
1499876629011263,4,-18,-76,-56,-17,-9,-7,24
1499876629011263,-36,-4,36,-27,6,3,5,-69
1499876629012250,11,14,26,35,8,0,-1,26
1499876629012250,13,-9,3,-20,-6,-2,-6,94
1499876629033270,-21,3,5,23,1,-1,4,22
1499876629033270,3,6,26,-22,5,2,-6,6
1499876629035268,-31,-22,-22,34,-16,-7,5,-42
1499876629035268,3,1,12,58,9,3,-13,6
1499876629047263,24,11,-30,-2,6,3,15,58
1499876629047263,10,-7,52,15,-3,-2,-8,-6
1499876629056238,-17,7,-42,34,0,1,2,-49
1499876629056238,-13,-20,25,-12,-11,-9,-5,26
1499876629071275,5,2,-2,2,9,4,-1,9
1499876629071275,30,33,-6,27,10,7,-1,36
1499876629072239,-42,-29,53,1,-16,-16,-13,-65
1499876629072239,-8,-1,8,-50,2,-2,-4,-22
1499876629093273,-9,-7,12,39,-7,-3,-3,-30
1499876629093273,7,13,-64,5,2,2,6,-5
1499876629095270,6,-5,24,3,0,-5,-14,108
1499876629095270,-32,-3,31,-11,-1,0,0,-72
1499876629116247,-28,10,70,57,3,0,9,-52
1499876629116247,21,-30,-65,-39,-16,-7,-9,19
1499876629117235,20,7,-3,-73,-2,-1,6,-10
1499876629117235,-23,5,7,17,2,-2,-8,-31
1499876629131265,0,4,-5,-36,-2,-2,-1,13
1499876629131265,44,3,-23,34,-2,0,9,68
1499876629132257,-12,-11,15,22,5,1,-2,-80
1499876629132257,23,14,-38,29,0,2,3,5
1499876629153301,-23,-10,17,-54,-7,-4,-13,-25
1499876629153301,-14,-15,9,-27,-2,-1,8,-76
1499876629155275,-18,-4,10,-4,-1,-1,-3,11
1499876629155275,31,10,-9,0,5,5,13,9
1499876629176275,-7,4,-15,16,5,2,-5,3
1499876629176275,-9,-11,-29,-51,-18,-13,-15,6
1499876629177244,19,9,-59,-31,6,8,10,6
1499876629177244,-26,-20,45,22,-6,-5,-9,-51
1499876629191252,26,0,3,45,3,1,-1,-1
1499876629191252,-55,2,8,-109,-4,-2,-5,-38
1499876629192240,8,17,-45,95,11,5,5,-2
1499876629192240,-14,-16,30,-84,-18,-10,-9,19
1499876629213299,-12,-1,24,-3,-2,-5,1,-22
1499876629213299,9,-2,1,14,-1,-2,-15,-36
1499876629215279,32,11,33,62,11,9,18,34
1499876629215279,-24,-6,-79,-76,-3,1,7,10
1499876629236274,0,-2,33,59,3,0,-5,-4
1499876629236274,-4,4,25,42,-4,-6,-10,10
1499876629237248,-1,-2,5,-34,-3,0,0,-2
1499876629237248,27,10,-9,61,7,3,-1,72
1499876629250251,-12,-2,25,-106,-3,1,0,-48
1499876629250251,16,3,-48,75,-5,-5,11,69
1499876629257287,-23,-8,22,-9,-1,0,-22,-77
1499876629257287,-25,-8,19,13,-1,-4,18,-5
1499876629272283,34,7,-38,9,0,-2,-11,14
1499876629272283,1,-2,84,-22,10,7,0,-32
1499876629281251,-5,-9,-4,59,-10,-7,-10,43
1499876629281251,-7,6,-41,-11,-2,-1,-2,-8
1499876629296257,3,-9,-10,-34,-2,0,-9,39
1499876629296257,-1,9,-23,22,2,4,14,-8
1499876629297246,-11,-9,18,12,-4,-7,-2,-3
1499876629297246,23,7,7,46,6,-1,-5,-6
1499876629318315,2,-8,-42,-20,-6,-2,-7,27
1499876629318315,-7,5,75,-27,3,1,-3,-6
1499876629320284,7,-8,42,-57,-8,-1,12,64
1499876629320284,-3,4,75,35,0,-2,-5,-18
1499876629332249,12,6,21,7,6,1,6,-11
1499876629332249,-10,-3,10,1,-1,-3,2,-15
1499876629341287,20,-7,3,-76,-12,-9,-17,49
1499876629341287,-31,7,-19,25,8,5,2,20
1499876629356249,-13,-11,-15,-26,-12,-7,8,-26
1499876629356249,23,-4,-5,-4,2,1,-5,7
1499876629357249,-7,5,92,-7,-3,-3,-2,-13
1499876629357249,23,6,-3,-39,-2,2,6,1
1499876629378312,-10,0,11,32,0,-3,-6,17
1499876629378312,13,11,-52,41,9,8,6,16
1499876629380289,-15,-15,-94,39,-4,-1,4,-10
1499876629380289,15,-6,-24,-23,-6,-3,-8,-11
1499876629392291,-16,8,11,23,4,2,9,-55
1499876629392291,-6,4,-31,-32,-2,-4,-7,-9
1499876629401252,-3,-6,31,52,11,4,2,-2
1499876629401252,3,-6,-46,-38,-9,-4,-2,-10
1499876629416253,3,10,44,-8,4,4,5,37
1499876629416253,-1,-21,-27,8,-13,-7,-16,-16
1499876629417253,6,13,4,34,4,1,13,-11
1499876629417253,-23,2,0,49,4,3,-8,-21
1499876629438293,3,-5,-2,9,0,0,2,21
1499876629438293,-13,-3,28,-30,-4,-3,-2,7
1499876629440254,15,15,-25,5,4,4,-1,13
1499876629440254,-2,-13,26,-3,-3,-2,-2,-11
1499876629452293,-9,-7,4,52,-4,-7,0,-29
1499876629452293,-3,-1,14,-87,-5,0,-5,-10
1499876629461262,-3,2,-46,5,1,1,-1,-24
1499876629461262,-7,-2,14,-37,-4,-4,-7,-16
1499876629476265,-5,-8,-6,25,-7,-5,-8,-5
1499876629476265,3,3,5,0,3,1,4,8
1499876629477257,-14,0,10,36,-3,-2,-4,-16
1499876629477257,13,-8,-9,-48,-4,-4,3,8
1499876629498262,5,-10,-54,-39,-3,2,2,7
1499876629498262,-29,19,49,10,0,0,-3,-63
1499876629500289,7,-17,4,-28,5,1,1,0
1499876629500289,-6,2,-6,98,0,0,0,-12
1499876629512295,8,5,57,29,1,3,1,0
1499876629512295,12,-15,-53,-32,-2,0,0,-1
1499876629521259,-16,1,33,-83,-6,-5,-5,11
1499876629521259,-10,0,-26,20,8,2,1,-52
1499876629536274,12,-3,-23,12,-5,-3,-2,85
1499876629536274,-30,4,28,75,6,2,2,5
1499876629537266,1,-2,-1,-19,0,0,4,2
1499876629537266,21,-4,-36,-54,-5,-2,2,36
1499876629558307,-12,6,-9,24,5,2,-1,-41
1499876629558307,31,-5,-4,28,0,0,4,73
1499876629560299,-13,-3,-18,21,-5,-2,-12,-24
1499876629560299,13,1,-4,-83,-6,2,6,73
1499876629581267,-2,3,-30,-6,1,1,0,-21
1499876629581267,-2,-13,23,3,-7,-4,-3,-11
1499876629582262,4,7,-17,4,2,2,-4,20
1499876629582262,1,-5,4,21,-1,-2,-2,-6
1499876629595323,12,-2,-29,40,-4,-3,-2,41
1499876629595323,-9,-5,7,-15,-10,-7,-5,-30
1499876629602264,-1,10,10,3,6,2,4,-15
1499876629602264,-19,2,25,23,2,2,-1,-25
1499876629618266,1,3,-2,-51,2,1,1,-7
1499876629618266,-9,-3,16,7,2,-1,-1,6
1499876629620303,-1,0,8,20,-1,0,-4,-75
1499876629620303,10,1,-11,-56,-7,-5,8,104
1499876629641276,0,-4,-29,-5,-1,-2,-2,-31
1499876629641276,-1,6,10,-11,5,5,4,-32
1499876629642269,5,-1,2,17,-1,0,-4,5
1499876629642269,-3,-1,-70,38,4,1,-16,-7
1499876629656275,-21,-6,90,21,-2,-2,25,-26
1499876629656275,-3,3,9,-74,-7,-2,-8,19
1499876629657273,22,-5,81,10,0,0,-3,28
1499876629657273,12,-2,62,-46,-4,1,3,-16
1499876629678327,-33,-21,22,-2,-8,-7,-4,-15
1499876629678327,8,12,15,9,7,0,3,26
1499876629680269,-5,-2,64,-23,1,2,3,-32
1499876629680269,6,-5,-97,84,-2,-2,-4,10
1499876629701279,16,-4,-42,10,-2,-4,-11,9
1499876629701279,-26,-9,12,22,-3,-1,3,-2
1499876629702269,3,4,-68,-41,-2,-2,-3,10
1499876629702269,3,3,34,50,2,1,1,-24
1499876629716279,-3,12,46,-32,7,5,1,-10
1499876629716279,28,-15,-46,5,-7,-5,-2,15
1499876629717276,-47,5,13,59,3,-3,4,-66
1499876629717276,-20,1,15,-22,-4,0,-1,-92
1499876629738311,10,7,-37,27,3,2,-5,34
1499876629738311,7,-10,26,11,1,0,-1,-71
1499876629740276,2,-7,14,-44,-6,-6,-3,50
1499876629740276,17,-2,17,11,-4,-1,18,8
1499876629761283,-3,12,14,0,2,3,-4,-28
1499876629761283,-9,-1,5,10,-1,0,10,-57
1499876629762273,12,-2,-26,19,1,-1,-15,43
1499876629762273,-14,-2,20,-10,5,0,-3,4
1499876629775320,19,0,26,-25,-8,-5,-11,19
1499876629775320,-7,0,-20,6,-4,0,-1,24
1499876629782279,-10,-12,29,14,-4,-3,2,-23
1499876629782279,14,9,-1,26,7,1,-2,24
1499876629798343,-20,-9,-4,-74,-4,-2,1,-21
1499876629798343,-4,-3,-14,-2,1,-2,-6,11
1499876629800313,5,6,-23,-4,0,2,3,5
1499876629800313,7,5,26,-65,-4,-1,-5,-13
1499876629821276,-13,-11,-31,71,-5,-7,-8,20
1499876629821276,18,10,-3,13,0,0,-2,62
1499876629822276,25,1,-128,11,9,6,9,43
1499876629822276,-44,-25,19,-16,-12,-9,-9,24
1499876629835344,-16,-4,69,-24,0,2,5,-36
1499876629835344,20,-1,51,9,0,-2,-5,35
1499876629842281,-4,-2,70,1,-4,-3,-4,-2
1499876629842281,4,8,9,47,9,3,0,3
1499876629858340,12,1,-2,-47,-2,2,0,-7
1499876629858340,-16,-3,4,-6,-5,-5,-5,-23
1499876629860320,-2,5,-20,-2,-2,-3,9,70
1499876629860320,0,-6,0,38,3,-2,-14,-26
1499876629881281,7,-3,-15,-35,-2,-2,2,-1
1499876629881281,-1,-7,4,3,3,-1,-1,4
1499876629882282,13,19,-2,-41,2,0,1,-25
1499876629882282,-7,3,34,13,-4,0,0,-6
1499876629903357,-11,-16,-23,77,4,0,1,2
1499876629903357,5,10,-6,8,3,0,-3,-38
1499876629905300,-10,-10,-38,-44,-9,-4,-1,-5
1499876629905300,7,0,2,11,-1,-1,3,-10
1499876629918300,-2,7,-4,-35,-7,-2,-8,-55
1499876629918300,-6,2,-22,-46,4,2,3,14
1499876629920301,2,-4,13,-11,-4,0,0,-13
1499876629920301,16,-3,2,-32,2,-1,1,-40
1499876629941287,-23,1,-1,23,-4,-6,-6,-2
1499876629941287,-10,-7,-1,-8,-1,1,3,2
1499876629942295,20,8,35,20,3,-1,-2,-4
1499876629942295,-11,-7,-21,1,-2,-2,-2,10
1499876629955303,13,-1,-4,25,-1,0,6,24
1499876629955303,-4,4,13,-13,0,3,0,-9
1499876629962286,1,-2,-36,-54,-4,0,-1,44
1499876629962286,-7,-5,52,7,-2,-3,-4,-8
1499876629978324,-9,0,13,17,-2,-3,-3,1
1499876629978324,3,-2,-23,-52,-6,-2,-2,-22
1499876629980287,-8,10,17,-9,3,2,2,-29
1499876629980287,10,-7,-8,63,-6,-7,-4,18
1499876630001289,-2,10,-3,-17,7,3,-3,24
1499876630001289,6,-6,17,75,0,-2,-4,-46
1499876630002287,-11,-14,3,-58,-6,-4,-2,-14
1499876630002287,-6,5,-6,-25,-1,1,2,-8
1499876630015306,26,2,2,16,0,0,4,-31
1499876630015306,-1,2,-29,33,4,0,0,30
1499876630022297,-5,-3,0,25,0,-1,-1,-17
1499876630022297,-7,12,-1,-2,3,1,0,12
1499876630038313,4,-10,-36,-40,-6,-1,2,37
1499876630038313,-14,1,-5,-5,0,-3,-5,4
1499876630040294,8,0,14,46,2,2,3,-2
1499876630040294,-1,-5,-31,-2,2,0,-2,-57
1499876630061304,-16,9,15,-21,1,1,3,45
1499876630061304,-16,-2,26,-36,-9,-2,0,-13
1499876630062301,-7,-5,-15,22,-4,-4,-4,-40
1499876630062301,1,11,-22,42,5,5,5,24
1499876630074362,8,-16,26,11,0,-4,-4,-2
1499876630074362,2,-1,-4,-9,-2,0,1,18
1499876630083301,-9,-10,-28,10,-6,-5,-5,10
1499876630083301,4,9,-5,-85,-4,0,5,2
1499876630098337,-2,-3,3,1,-2,-3,-8,-2
1499876630098337,3,3,-10,8,3,-1,-2,-9
1499876630100297,20,7,30,32,4,-1,0,48
1499876630100297,-8,-11,-50,-3,-1,-2,0,17
1499876630121307,6,-2,-15,15,-9,-4,-4,19
1499876630121307,6,5,5,19,4,2,2,11
1499876630122296,2,-4,0,36,0,-2,-4,-2
1499876630122296,4,4,27,-100,-7,0,1,6
1499876630134297,-22,0,5,46,4,0,-1,-78
1499876630134297,-3,-4,-28,6,-5,-4,-5,9
1499876630143334,-5,-12,-6,-8,-1,0,3,-6
1499876630143334,15,-1,18,-6,1,3,1,27
1499876630158339,8,-2,-14,-9,-4,-4,3,14
1499876630158339,3,12,1,5,2,0,-4,-40
1499876630160299,-16,-10,-13,9,-7,-5,-4,-42
1499876630160299,-25,-1,2,-36,-4,-6,-8,-41
1499876630181299,17,5,9,-12,5,4,2,26
1499876630181299,-3,-8,-6,1,-8,-6,-3,12
1499876630182308,-13,-4,-10,-43,-6,-2,-1,-11
1499876630182308,7,10,22,31,8,3,0,19
1499876630194300,-6,-5,-5,3,-7,-4,-4,4
1499876630194300,-4,-16,-14,-45,-7,-2,2,-6
1499876630203338,0,12,15,9,6,0,0,6
1499876630203338,-2,-17,-3,44,-1,-3,-1,4
1499876630218351,3,13,21,14,7,0,1,2
1499876630218351,4,-7,-6,19,-2,0,2,15
1499876630220302,2,3,8,-10,-2,-2,-1,-2
1499876630220302,2,2,-18,9,3,1,-1,6
1499876630240348,-8,-1,27,28,3,0,-1,6
1499876630240348,-1,-11,-15,-48,-8,-5,-2,-41
1499876630242310,1,-4,-17,-17,3,0,-2,13
1499876630242310,-6,7,19,78,6,2,3,1
1499876630254347,11,-10,-5,-34,-11,-9,-11,-5
1499876630254347,-6,0,6,-45,-5,0,3,-20
1499876630263340,6,8,7,-29,0,-1,-1,-2
1499876630263340,-9,-21,-23,-21,-10,-4,-4,-5
1499876630278379,3,3,-2,-11,4,3,3,12
1499876630278379,-4,4,-27,27,5,2,-1,13
1499876630280309,9,-10,7,19,-7,-3,-4,-14
1499876630280309,-5,4,11,-17,-1,-1,-1,-19
1499876630301306,-19,-5,-22,-6,-7,-3,-3,-14
1499876630301306,7,0,12,35,8,3,2,18
1499876630302306,-23,12,-3,-17,-3,1,1,-21
1499876630302306,22,-25,-47,-41,-5,-6,-6,40
1499876630314352,-1,8,18,6,3,2,0,-42
1499876630314352,-5,0,2,0,0,-1,1,67
1499876630323307,-2,6,26,24,3,0,-5,10
1499876630323307,7,-12,12,-17,-1,-1,0,3
1499876630338342,-3,-5,-13,20,0,-1,2,-9
1499876630338342,5,0,4,17,2,-1,-2,46
1499876630340313,1,-3,-7,7,3,2,3,-19
1499876630340313,-4,12,-8,2,-2,-1,-1,-25
1499876630361310,6,-6,-8,-21,-4,-2,-6,52
1499876630361310,2,5,11,2,-4,-1,2,-2
1499876630362311,4,-1,12,-1,3,1,1,26
1499876630362311,4,10,-2,56,-3,-2,-2,20
1499876630374353,-19,-9,-24,-23,0,-2,-2,-30
1499876630374353,3,3,8,-10,-1,0,-2,9
1499876630383311,19,-3,-6,14,2,1,2,31
1499876630383311,-27,8,-8,79,7,3,-1,-49
1499876630398353,-24,-11,30,-96,-16,-4,-4,33
1499876630398353,-15,3,25,35,3,-1,-2,0
1499876630400326,-2,-12,-37,-2,-11,-8,-4,-6
1499876630400326,3,5,-78,10,6,4,3,18
1499876630421318,-1,2,-23,9,2,0,2,-14
1499876630421318,3,-4,15,-20,-1,0,-2,-52
1499876630422314,-16,-4,72,1,-2,-1,-3,12
1499876630422314,-12,4,48,10,-1,-2,-2,-17
1499876630434351,19,10,-51,-59,0,1,4,-15
1499876630434351,16,-4,14,14,0,-3,-4,37
1499876630443326,17,13,61,54,12,3,0,-77
1499876630443326,-40,-17,17,4,-18,-10,-5,16
1499876630458378,2,-14,5,-1,0,-2,-2,-22
1499876630458378,-9,6,20,-1,4,2,3,0
1499876630460331,-4,-6,-38,-16,-2,2,-1,8
1499876630460331,8,9,10,-2,7,2,-2,8
1499876630481316,-1,1,13,11,0,1,1,-2
1499876630481316,11,-2,-22,-46,-9,-5,-3,-6
1499876630482319,-37,-3,-1,48,3,-2,-2,3
1499876630482319,25,-7,-34,-34,1,0,0,-6
1499876630494329,11,12,25,55,2,0,0,22
1499876630494329,-7,2,-8,2,1,1,0,-19
1499876630503320,11,-3,-14,-6,0,0,0,2
1499876630503320,-9,0,32,-29,-8,-6,-6,-51
1499876630517326,4,-2,-2,-10,-4,-2,1,-5
1499876630517326,-7,0,1,22,5,1,-4,-19
1499876630526322,-2,-1,-23,-25,-2,1,2,-9
1499876630526322,-3,-3,15,-47,5,2,1,19
1499876630541321,10,1,21,78,0,-2,-4,11
1499876630541321,-9,0,-14,15,-9,-6,-2,-15
1499876630542323,0,-3,-20,-48,0,-1,-1,75
1499876630542323,16,-11,13,4,1,1,2,2
1499876630563323,-12,0,-22,-12,1,2,0,-15
1499876630563323,7,-1,0,21,5,2,2,6
1499876630565330,-5,-3,-17,23,-8,-7,-5,18
1499876630565330,19,0,4,-8,-3,-1,-2,53
1499876630578330,19,-2,-11,-4,-2,-1,2,85
1499876630578330,-14,1,13,13,4,3,-1,-26
1499876630580328,15,-7,17,-27,-5,-3,-2,6
1499876630580328,-7,4,-23,23,-6,-1,1,0
1499876630601336,-1,8,15,7,7,5,3,-1
1499876630601336,-6,3,1,-18,-11,-6,-2,19
1499876630602324,4,-12,-20,-16,-3,-3,-2,-24
1499876630602324,0,-2,7,-10,0,0,0,59
1499876630623386,0,8,23,22,8,5,1,-26
1499876630623386,-9,-3,-20,42,0,-2,-1,-13
1499876630625358,-8,-5,-21,-29,-6,-5,-4,-19
1499876630625358,4,2,2,7,-3,-2,0,-6
1499876630638370,-5,-2,2,-19,-1,-4,-3,-18
1499876630638370,-1,0,10,13,5,2,1,-3
1499876630640333,-6,3,13,-2,3,3,2,-33
1499876630640333,1,-8,-11,-29,-9,-4,-2,-10
1499876630661338,-2,-2,-13,36,-4,-3,-4,-13
1499876630661338,8,-5,1,-28,-1,0,0,2
1499876630662327,-14,1,-7,29,0,1,-1,-21
1499876630662327,3,7,9,-16,2,0,-5,-27
1499876630683397,18,3,9,-11,2,-2,1,19
1499876630683397,-28,-3,47,54,-2,-2,-3,-17
1499876630685363,11,-13,-85,-71,-3,0,-1,-4
1499876630685363,-7,6,27,-2,1,1,2,-12
1499876630697331,4,-7,-11,-16,-4,-3,-3,3
1499876630697331,16,-2,-3,20,3,0,1,19
1499876630704374,-14,2,-3,6,3,2,3,3
1499876630704374,1,6,34,46,2,-3,-5,-2
1499876630721348,-5,-7,-47,-46,-11,-4,-4,-7
1499876630721348,2,-5,-5,-11,-4,-3,-2,3
1499876630722331,-3,4,29,46,2,1,1,21
1499876630722331,8,-5,-29,-51,1,1,4,20
1499876630743365,-7,2,0,6,5,2,4,-11
1499876630743365,18,-4,0,-20,-6,-5,-6,62
1499876630745352,-10,-3,16,-3,-2,-2,-3,-2
1499876630745352,-4,-1,-7,22,1,0,-1,-31
1499876630757382,-11,-4,5,21,1,0,-1,-4
1499876630757382,5,2,-9,-42,-1,1,1,3
1499876630764370,3,3,-4,34,-2,-4,-2,24
1499876630764370,-22,5,7,32,7,3,1,-20
1499876630781360,3,-11,-27,-71,-16,-9,-4,-53
1499876630781360,-2,-4,-31,-52,-6,-1,-8,-27
1499876630782344,10,-4,38,-8,-5,-2,-4,0
1499876630782344,-10,8,14,17,3,0,1,-8
1499876630803368,-5,2,18,8,2,1,-4,30
1499876630803368,-3,3,-2,20,4,1,3,-14
1499876630805339,-4,6,15,-17,3,1,-1,-14
1499876630805339,5,-19,-47,-23,-18,-10,-6,16
1499876630817371,2,4,-22,53,10,4,3,13
1499876630817371,-8,-12,-6,-35,-3,-5,-4,-4
1499876630824404,-11,5,2,23,2,1,0,-8
1499876630824404,6,-4,4,0,0,0,0,1
1499876630841349,2,4,16,2,-1,1,-1,-2
1499876630841349,-13,7,6,-3,9,6,5,-16
1499876630842339,7,-4,-23,56,-11,-5,-2,-20
1499876630842339,-3,-5,-11,-37,-7,-6,-8,80
1499876630863361,12,0,7,27,1,2,4,69
1499876630863361,-5,7,-16,0,0,0,-2,-53
1499876630865350,-5,-8,-18,-25,0,-1,-4,-10
1499876630865350,4,5,30,14,3,2,1,-18
1499876630877341,-11,-1,-28,5,-1,-1,-1,-22
1499876630877341,-1,-8,16,-42,-6,-1,0,60
1499876630884346,32,-1,-32,-30,-4,-3,3,43
1499876630884346,-3,2,17,34,4,2,-1,-31
1499876630900387,-7,-2,36,-41,-2,-1,1,-27
1499876630900387,0,-6,-33,5,-7,-2,-1,-3
1499876630902341,-6,5,4,19,-3,-2,-2,0
1499876630902341,4,3,8,-20,1,1,3,-1
1499876630923415,4,5,20,31,3,1,-2,-14
1499876630923415,-5,1,-14,24,1,-3,0,-7
1499876630925343,5,-6,9,-43,-3,-3,-2,13
1499876630925343,-8,-7,-34,34,-2,0,1,-34
1499876630937382,-7,6,16,-44,-2,-1,-1,-4
1499876630937382,3,-6,-1,26,-3,-3,0,5
1499876630944406,-21,-3,-32,-27,-5,-4,-4,-56
1499876630944406,11,6,-90,-9,3,3,0,3
1499876630961360,-4,-4,-24,2,-1,-2,-3,-5
1499876630961360,-2,8,7,52,-2,-1,0,7
1499876630962346,18,-3,67,-91,-3,-1,-1,75
1499876630962346,-12,-8,65,-10,-5,-4,-3,-11
1499876630983406,2,1,40,14,4,2,2,-15
1499876630983406,14,2,53,-1,2,1,0,-4
1499876630985347,-1,3,6,100,-1,0,2,42
1499876630985347,10,-11,-12,-56,-13,-6,-3,14
1499876630997360,19,-13,-14,-59,-8,-6,-1,38
1499876630997360,15,8,10,13,7,5,3,-7
1499876631004390,-26,-8,-24,-35,-3,-2,-2,-45
1499876631004390,-6,7,7,-28,2,1,4,24
1499876631021360,-11,-4,-6,35,-3,-3,-5,-26
1499876631021360,6,-3,3,-14,-4,-3,-2,0
1499876631022370,0,9,16,36,6,1,-1,-23
1499876631022370,-17,-8,-39,-1,-1,-2,0,3
1499876631043416,5,6,-11,-3,3,2,-1,-14
1499876631043416,-13,-13,12,16,-5,-4,-3,-14
1499876631045383,-9,-2,14,3,-2,-3,-3,8
1499876631045383,-13,-1,9,9,5,0,-1,-31
1499876631057410,-7,7,9,-60,-3,-2,0,1
1499876631057410,0,-8,-21,27,-4,-3,-2,-19
1499876631066351,6,-1,-8,-9,-2,-1,0,-2
1499876631066351,7,1,3,9,1,-1,-1,-10
1499876631081363,-12,-1,18,72,2,2,-2,27
1499876631081363,4,3,-17,24,-1,0,-1,-5
1499876631082362,1,-2,-16,-104,-7,-1,1,19
1499876631082362,11,-6,-10,-8,-2,-2,-3,5
1499876631103423,-6,3,12,1,2,0,0,-19
1499876631103423,-7,-2,7,-9,0,0,-2,1
1499876631105353,-8,-3,-9,37,4,1,-4,-21
1499876631105353,2,5,7,-2,-5,0,0,1
1499876631117383,-9,-8,23,26,-4,-3,-2,-11
1499876631117383,-13,-12,-47,-33,-8,-5,-3,-3
1499876631126357,9,5,2,22,1,1,-1,-8
1499876631126357,-17,-1,24,-14,0,1,1,-8
1499876631140422,13,-3,-26,-10,3,-1,-3,-6
1499876631140422,-9,7,-9,18,2,-2,-4,-6
1499876631142368,-16,5,37,18,-2,-1,-2,23
1499876631142368,13,-7,-21,-1,-5,-5,-4,-22
1499876631163361,-2,-1,-16,40,-3,-2,-2,0
1499876631163361,-4,-1,6,2,-3,-1,-1,-1
1499876631165356,4,-5,-9,14,5,0,0,6
1499876631165356,3,8,27,11,6,3,2,-4
1499876631177411,-7,-15,-55,-11,-7,-3,-2,16
1499876631177411,5,-5,-14,-17,2,0,2,-5
1499876631186358,-6,-6,-6,-34,-9,-6,-8,-53
1499876631186358,-6,2,5,64,2,-2,0,5
1499876631200396,-2,6,6,-88,0,1,1,15
1499876631200396,-2,-7,9,7,-3,-1,-2,0
1499876631202392,3,2,-8,26,6,4,5,-8
1499876631202392,-1,-2,9,-3,-5,-3,-3,6
1499876631223412,0,-4,5,32,-1,-3,-2,-33
1499876631223412,1,3,4,-19,0,1,1,24
1499876631225359,16,-1,10,3,-1,-1,0,-7
1499876631225359,19,-1,-10,-1,3,0,0,20
1499876631237410,3,7,-16,-11,0,0,2,19
1499876631237410,-4,4,12,29,3,0,1,1
1499876631246362,6,-1,-5,-36,-8,-1,1,0
1499876631246362,-18,-13,-11,2,-3,-2,-4,1
1499876631261380,5,5,21,-28,2,0,0,-8
1499876631261380,2,-1,-49,19,2,0,0,3
1499876631262363,-5,-3,8,16,0,-1,1,0
1499876631262363,8,10,19,1,-1,2,1,-24
1499876631291382,-8,-6,10,5,3,-1,-3,-5
1499876631291382,-2,-3,1,-22,-3,-2,-1,4
1499876631292366,-12,5,-9,43,3,-1,-1,37
1499876631292366,17,-2,-7,-55,-5,0,1,-8
1499876631297365,7,-3,-6,31,-3,0,-3,29
1499876631297365,-2,6,14,-9,-3,-1,1,-21
1499876631306365,0,0,-3,-16,4,1,2,-9
1499876631306365,-1,4,6,18,5,0,-1,1
1499876631321379,-5,-6,-14,-13,-3,-1,0,-11
1499876631321379,8,0,4,-8,-3,-3,-4,23
1499876631322366,0,5,-4,13,2,1,3,0
1499876631322366,-32,-7,-4,-30,-6,-5,-2,-50
1499876631343399,-3,-3,3,-37,-6,-2,0,-33
1499876631343399,0,-5,-41,0,-1,-2,-3,29
1499876631345367,21,3,-17,-26,1,3,1,11
1499876631345367,-9,0,-20,19,5,-1,-1,3
1499876631357403,-4,4,8,22,-1,-2,-1,-6
1499876631357403,-11,-8,53,-42,-4,-2,3,-14
1499876631366369,-11,-1,31,9,1,0,2,-9
1499876631366369,7,-2,-11,8,-2,1,-1,44
1499876631381403,3,-8,5,22,-4,-4,-4,-24
1499876631381403,6,8,11,38,5,4,0,3
1499876631382371,-6,-2,-4,-52,-6,-3,-6,-21
1499876631382371,3,-1,22,-5,-3,0,0,-20
1499876631403419,-6,2,-38,-3,3,1,-1,25
1499876631403419,4,1,25,-6,1,0,-1,-19
1499876631405370,11,-7,-17,18,-3,-3,-2,23
1499876631405370,-34,4,14,-42,-4,-7,-10,23
1499876631417401,-12,-10,-29,9,-8,-4,-3,-8
1499876631417401,-1,-1,6,-6,5,1,-2,12
1499876631426375,-10,2,-1,45,3,3,0,-13
1499876631426375,15,-2,-10,-69,-8,0,1,7
1499876631440418,-5,0,15,22,3,2,-2,1
1499876631440418,4,3,-27,-14,2,0,-2,20
1499876631442372,-17,-4,2,18,-6,-3,2,8
1499876631442372,7,-6,-9,33,3,-2,-1,-8
1499876631463394,-4,5,36,-6,-2,-2,-1,-12
1499876631463394,5,1,3,-14,1,2,0,-30
1499876631465410,1,4,-46,10,1,-1,0,-7
1499876631465410,1,-2,4,21,-3,-1,1,15
1499876631485448,0,-1,-3,-22,-1,1,-1,-11
1499876631485448,-5,-1,0,1,-4,-2,-1,12
1499876631487375,2,4,5,45,9,1,-1,-6
1499876631487375,-3,6,5,-16,2,3,3,-9
1499876631501375,-11,-8,12,20,-2,-1,1,-1
1499876631501375,8,2,24,7,-2,-2,-8,-63
1499876631502377,14,-3,-14,-19,-4,-1,-3,6
1499876631502377,-5,-3,-48,21,3,0,-1,-17
1499876631523437,2,6,26,24,5,1,1,22
1499876631523437,-20,0,-9,-5,-10,-2,1,-22
1499876631525377,7,-8,12,-42,3,-3,-5,-4
1499876631525377,3,-5,-16,20,-14,-2,-1,-23
1499876631546396,26,1,-27,-21,3,1,1,21
1499876631546396,-22,0,48,43,0,-5,-4,3
1499876631547380,-2,-8,-16,-93,-16,-4,-4,3
1499876631547380,10,8,42,43,7,1,-1,4
1499876631560421,6,-13,-22,-39,-2,-1,-2,-2
1499876631560421,10,0,-29,4,2,3,2,20
1499876631562380,-17,-6,-9,7,-5,-3,-4,-23
1499876631562380,6,3,16,0,0,0,-2,13
1499876631583381,3,8,9,-18,-4,-2,-2,9
1499876631583381,19,-3,-23,-5,3,0,1,55
1499876631585384,-25,4,21,11,4,2,1,-28
1499876631585384,-5,-3,-23,11,-5,-5,-1,9
1499876631606396,3,3,8,14,-1,-2,-3,15
1499876631606396,-10,-4,-15,-43,-11,-4,0,9
1499876631607414,4,2,7,18,4,-1,-1,-11
1499876631607414,-8,-6,8,-9,1,0,-1,0
1499876631620420,22,-5,-26,53,3,2,1,-18
1499876631620420,-31,-3,12,-81,-7,-6,-4,-14
1499876631627409,0,8,48,42,4,1,-1,23
1499876631627409,2,6,10,40,1,-1,0,-8
1499876631643449,-11,-6,-21,-60,-3,0,0,1
1499876631643449,16,-3,8,16,0,-1,-2,-5
1499876631645384,5,-9,-55,-1,-1,-1,-3,35
1499876631645384,8,5,24,-22,7,3,2,-3
1499876631665432,-28,-4,-1,51,-7,-3,-2,-12
1499876631665432,-9,-2,-5,24,2,-1,1,35
1499876631666387,-2,-9,2,-27,-4,-4,-4,-17
1499876631666387,-4,4,-5,1,-1,1,1,13
1499876631679420,-1,7,13,10,1,0,-1,-24
1499876631679420,-9,-11,-39,-57,-3,0,-5,10
1499876631687431,12,7,21,60,-2,1,5,-11
1499876631687431,22,-9,7,-82,0,0,-3,36
1499876631702426,-48,-7,0,19,-5,-6,-5,-2
1499876631702426,14,1,-22,-15,5,2,0,-7
1499876631703392,7,6,27,-7,3,-1,0,8
1499876631703392,-3,-5,-36,1,-5,-2,-3,-20
1499876631725460,8,3,-13,-8,5,1,4,-11
1499876631725460,-1,-15,5,59,-4,-7,-4,3
1499876631726390,-2,1,16,17,4,2,2,6
1499876631726390,4,-5,-24,-31,-7,-3,-2,-14
1499876631739399,-31,3,6,-5,1,1,0,-2
1499876631739399,23,10,5,1,1,2,3,-48
1499876631747434,7,1,-20,-3,2,-1,-2,-11
1499876631747434,-19,-8,17,52,-2,-6,-6,61
1499876631762429,37,-3,-27,-79,-11,-3,-1,10
1499876631762429,-9,7,2,-2,3,3,5,-36
1499876631763395,-19,-12,-18,-1,-11,-7,-8,18
1499876631763395,14,7,11,14,6,4,3,-17
1499876631785465,-4,0,17,13,1,0,-1,-14
1499876631785465,6,-8,-22,2,0,-2,-5,-12
1499876631786393,2,2,-13,-39,-7,0,0,-8
1499876631786393,-14,-11,-22,2,-3,-3,0,-11
1499876631799426,13,1,16,26,2,0,-1,4
1499876631799426,1,7,15,-17,-1,-1,0,2
1499876631807463,1,4,-4,18,1,0,1,-5
1499876631807463,-4,-1,11,-15,-1,0,-1,-25
1499876631822433,16,-6,-4,28,-2,-7,-6,86
1499876631822433,-5,5,5,-3,-11,-1,2,-45
1499876631823427,7,-4,-12,-71,-6,-4,-5,54
1499876631823427,1,-2,21,22,4,4,0,-18
1499876631845440,4,9,9,14,3,2,1,-1
1499876631845440,4,-13,-42,-3,1,-1,-2,12
1499876631846435,-7,-3,0,-1,-6,-6,-3,-10
1499876631846435,-10,-3,12,21,-3,0,1,-13
1499876631859430,24,7,7,20,6,4,0,-2
1499876631859430,-33,2,5,15,0,-2,-3,-1
1499876631867440,1,0,0,-26,1,4,2,-24
1499876631867440,0,0,-10,-1,-4,-4,-3,3
1499876631882435,-20,-1,3,-26,-4,-3,-1,-47
1499876631882435,9,0,6,25,2,0,4,-24
1499876631883430,11,2,-18,3,3,2,6,0
1499876631883430,-11,9,36,5,2,-3,-4,-28
1499876631913425,-10,-10,-29,-1,-4,-2,0,33
1499876631913425,-13,-7,-1,-3,0,3,0,-70
1499876631914403,-15,-10,0,31,-2,-3,-3,-13
1499876631914403,21,7,2,0,11,5,1,18
1499876631919443,-2,-5,0,6,-2,-2,-1,-11
1499876631919443,-1,-5,-3,-7,-5,-3,-1,28
1499876631927468,-8,2,-4,-5,0,2,2,-60
1499876631927468,-1,5,-3,11,-2,-1,-2,18
1499876631942441,-15,4,17,-78,-2,2,-1,-16
1499876631942441,17,-7,-32,18,-2,-3,-1,52
1499876631943434,-11,-5,5,-5,1,0,-2,-18
1499876631943434,3,0,-11,-23,-3,-4,-1,-5
1499876631965402,6,7,27,25,1,-2,0,-19
1499876631965402,4,0,0,7,2,-2,-1,15
1499876631966402,2,4,-10,-1,1,-1,-3,-6
1499876631966402,-9,-1,8,-49,-1,1,-1,-9
1499876631979415,7,-8,-11,55,3,1,0,44
1499876631979415,-2,11,10,-100,-4,1,0,-8
1499876631987437,0,-9,6,6,-7,-5,-4,13
1499876631987437,-6,-3,-16,-15,-1,-1,-1,-3
1499876632002441,3,1,15,-6,4,2,1,-17
1499876632002441,-2,-1,22,23,6,3,-1,-8
1499876632003404,11,0,-5,-5,1,-2,0,47
1499876632003404,1,-2,12,32,-3,-1,1,-18
1499876632025469,-23,0,5,-9,-2,0,-1,-29
1499876632025469,-25,-7,-6,-10,-5,-5,-5,3
1499876632026412,26,2,6,1,2,1,3,33
1499876632026412,-11,2,11,13,0,0,-1,11
1499876632039448,1,-4,-22,7,-4,-3,-3,-6
1499876632039448,5,5,3,58,-1,-3,-2,30
1499876632047448,-7,-18,3,-78,-14,-7,-5,-24
1499876632047448,4,0,-33,-11,-1,-2,0,41
1499876632062446,4,-6,-9,2,0,0,-1,-15
1499876632062446,6,2,15,13,2,1,0,21
1499876632063409,-10,9,21,9,0,0,-1,-44
1499876632063409,5,1,24,-12,-5,-2,-1,-20
1499876632085452,-5,-9,2,-14,-5,-4,-3,2
1499876632085452,4,-3,1,13,0,0,0,0
1499876632086410,-3,9,26,87,9,2,1,15
1499876632086410,-4,-6,-16,-75,-8,1,1,22
1499876632099453,0,-2,-18,18,3,-1,-2,-12
1499876632099453,-3,1,7,-30,-4,-2,-3,-3
1499876632107476,7,3,-10,9,3,2,3,2
1499876632107476,1,-9,-9,8,-2,-4,-1,12
1499876632122449,6,4,30,32,-3,-2,-2,0
1499876632122449,4,-3,-21,-15,-2,1,3,28
1499876632123414,-24,-4,0,26,2,-1,-2,10
1499876632123414,17,-2,-36,13,2,0,0,8
1499876632145476,2,2,-21,-76,-7,-2,0,-24
1499876632145476,-21,-7,0,15,-8,-5,-2,7
1499876632146413,1,2,6,4,2,2,1,-33
1499876632146413,-8,-6,-10,11,-3,-2,-3,-6
1499876632159489,13,6,32,5,3,2,1,11
1499876632159489,-43,2,-36,-5,1,1,-2,-8
1499876632167414,9,-4,12,9,-8,-6,-4,12
1499876632167414,-3,-1,19,30,6,1,2,-7
1499876632182454,-1,2,-12,35,1,0,0,-15
1499876632182454,22,2,14,-96,0,-1,1,2
1499876632183416,-5,-1,-1,-14,0,0,0,-9
1499876632183416,0,-4,-22,23,-3,-2,-3,1
1499876632205470,-2,12,7,-45,2,-1,1,8
1499876632205470,7,-9,-5,41,-3,-2,-4,-6
1499876632206418,-5,-4,-24,-7,1,-1,1,2
1499876632206418,-1,0,11,13,0,-1,-2,-17
1499876632219459,-13,3,16,-23,1,1,0,1
1499876632219459,14,-3,-20,-2,-2,-1,-1,1
1499876632227462,-3,4,29,75,5,0,-1,-10
1499876632227462,18,-15,-51,-68,-10,-2,-1,23
1499876632242460,-6,-5,-17,-38,-12,-6,-4,27
1499876632242460,19,12,17,-2,4,2,2,15
1499876632243451,-18,-4,-6,-29,-1,-1,-1,-30
1499876632243451,-3,0,-4,50,5,0,1,-13
1499876632265461,-5,-10,15,5,-5,-3,-2,8
1499876632265461,-2,-9,-11,-16,-4,0,2,16
1499876632266420,32,17,40,-4,5,2,-1,17
1499876632266420,-15,-8,-62,-3,-5,-5,-2,-14
1499876632279467,-2,-4,-4,4,-3,-3,-4,-13
1499876632279467,-9,9,24,35,7,1,1,-8
1499876632287494,-3,-7,-20,7,-6,-2,-3,9
1499876632287494,-9,-6,16,-37,-4,-2,-3,-3
1499876632302461,0,0,-18,3,2,2,0,9
1499876632302461,10,3,8,12,-1,-1,-1,-5
1499876632303455,-3,-9,-29,-13,-1,-1,-5,11
1499876632303455,0,3,13,9,-2,-2,-1,-8
1499876632325473,-13,0,10,19,4,2,1,-29
1499876632325473,-19,-1,-30,0,-1,-2,-3,-21
1499876632326424,18,1,-1,-40,-11,-4,-3,-1
1499876632326424,-12,6,25,52,2,1,1,-3
1499876632339436,11,2,-3,-48,-1,-1,1,3
1499876632339436,-1,-6,-6,-32,-5,-2,-4,-10
1499876632347427,-9,-3,-23,-10,-3,-2,1,13
1499876632347427,-16,-1,-7,3,0,0,-4,-46
1499876632362465,1,-4,5,-6,-2,-1,-1,3
1499876632362465,3,0,18,20,1,-2,-1,-4
1499876632363456,-3,0,-22,-20,0,-1,1,4
1499876632363456,6,2,28,1,-6,-3,-1,12
1499876632385467,0,-2,-7,39,2,0,1,-3
1499876632385467,2,-1,3,-4,-1,0,1,0
1499876632386427,0,0,2,6,2,2,0,1
1499876632386427,0,5,6,-7,6,3,1,-6
1499876632408497,3,-4,-13,-8,-5,-3,-5,29
1499876632408497,6,-3,-2,2,0,-2,-2,-6
1499876632409429,1,1,6,2,1,1,1,5
1499876632409429,-2,-4,-7,-2,-3,-3,-3,39
1499876632422468,3,-6,-4,22,0,-1,0,3
1499876632422468,9,5,2,1,3,0,1,1
1499876632423462,-15,-5,-28,15,-8,-4,-1,-3
1499876632423462,9,0,17,-37,0,-1,0,1
1499876632445495,-2,-1,1,12,-1,-1,-1,-8
1499876632445495,-2,-3,17,3,-2,-1,-1,4
1499876632446432,-9,0,10,-14,0,-1,-3,-9
1499876632446432,7,5,-4,50,0,1,1,16
1499876632468473,-1,-7,-21,-48,-8,-4,-9,-66
1499876632468473,-6,3,33,3,1,0,-4,-14
1499876632469445,-1,-10,-31,-17,-1,-2,-5,49
1499876632469445,-24,-1,11,-2,-1,2,3,-53
1499876632482473,18,0,-5,19,2,0,-1,35
1499876632482473,-28,-7,-23,24,-3,-3,-4,-40
1499876632483465,8,8,27,-8,0,1,0,-14
1499876632483465,-1,1,6,-2,-2,-2,-3,6
1499876632505464,-5,4,-12,17,1,1,2,17
1499876632505464,5,-3,-1,-19,0,0,0,5
1499876632512474,-7,-4,12,24,2,-1,1,-2
1499876632512474,7,2,8,25,2,0,-1,1
1499876632528496,-1,4,-1,-42,-3,-1,-2,-7
1499876632528496,7,-2,-6,3,-1,1,-1,15
1499876632529436,1,0,-12,-10,3,1,0,-18
1499876632529436,-2,8,3,-34,6,1,-1,6
1499876632542437,-14,-7,-24,65,-2,-3,1,1
1499876632542437,-17,-4,4,5,-4,-6,-4,0
1499876632543437,27,-1,-4,-6,0,-2,1,-59
1499876632543437,27,-6,4,2,-5,-3,-1,37
1499876632565475,1,8,28,15,5,2,1,-28
1499876632565475,3,2,-5,-53,-3,2,0,-35
1499876632566438,-28,-7,17,16,-6,-3,-3,17
1499876632566438,4,-5,19,13,2,-1,2,-18
1499876632588481,12,1,-2,17,1,1,-3,17
1499876632588481,7,-4,7,31,0,-3,0,26
1499876632589439,3,10,13,-26,0,0,-1,-3
1499876632589439,-1,1,-20,-4,-1,-1,-1,-5
1499876632602480,-20,-7,13,42,-1,-3,0,4
1499876632602480,21,1,23,20,2,0,-1,28
1499876632603472,-1,-7,-39,-99,-10,-2,-2,15
1499876632603472,1,-4,-14,13,2,-3,-2,19
1499876632625515,-2,-6,-6,-5,-3,-4,-2,-22
1499876632625515,6,2,3,13,-1,2,-1,-1
1499876632626443,-3,-3,7,34,1,0,0,4
1499876632626443,-1,3,-6,2,-2,1,0,3
1499876632648511,0,4,-1,-58,-3,-1,1,-10
1499876632648511,-2,-1,-6,22,2,1,1,12
1499876632649442,-6,1,10,23,-2,0,-3,6
1499876632649442,2,-5,2,-25,-6,-5,-4,-16
1499876632662482,1,-9,-26,-35,-6,-4,-2,-9
1499876632662482,-5,-1,1,-18,-2,-3,-2,4
1499876632663457,11,1,0,36,2,1,1,43
1499876632663457,-4,3,12,18,2,1,0,13
1499876632685492,-13,-1,10,-11,3,1,-1,-15
1499876632685492,15,-7,-27,5,-3,0,0,2
1499876632686446,-4,-3,-7,0,0,-2,0,-10
1499876632686446,-4,-3,6,-7,-3,-2,-3,32
1499876632708488,-4,5,5,22,5,2,3,1
1499876632708488,-7,-3,-12,-28,0,0,-1,-2
1499876632709447,-1,2,3,18,0,0,-2,6
1499876632709447,-6,-5,-14,-22,1,0,0,-25
1499876632722485,6,1,-1,-2,-5,-2,1,-13
1499876632722485,-2,-2,-27,1,4,0,0,6
1499876632723457,5,2,-16,28,1,-1,-1,-15
1499876632723457,-10,-10,-30,-69,-6,-3,-1,-13
1499876632745461,4,3,13,9,1,1,-2,8
1499876632745461,-1,3,32,3,-1,0,1,-6
1499876632746455,-11,-4,-3,-5,-2,-3,-3,2
1499876632746455,3,2,12,15,1,1,0,-20
1499876632768491,1,-3,-10,0,2,-2,-2,19
1499876632768491,-11,2,-18,-13,-3,-4,0,-31
1499876632769462,2,-6,9,50,0,-3,0,-2
1499876632769462,-1,0,0,-51,-4,-1,-1,-3
1499876632782452,0,-3,-3,-2,-2,-1,0,7
1499876632782452,-2,3,2,-6,1,1,-1,-7
1499876632783451,-11,-2,-12,-39,-1,-1,0,-31
1499876632783451,4,3,-18,36,0,-3,-3,12
1499876632805517,-7,-8,4,-18,-11,-4,-2,6
1499876632805517,0,0,8,10,-1,-3,-2,6
1499876632806454,-1,2,12,-9,1,1,0,-1
1499876632806454,-6,0,13,18,2,2,2,-8
1499876632828465,6,3,8,-16,5,1,0,4
1499876632828465,-4,-3,-13,54,-2,-3,-4,17
1499876632829452,2,-6,-5,-78,-10,-4,1,26
1499876632829452,-4,4,2,1,1,0,-3,-34
1499876632842481,5,2,10,14,1,2,1,6
1499876632842481,0,-3,2,14,-1,0,-1,-6
1499876632843453,-3,1,-4,11,1,1,0,5
1499876632843453,-3,-3,7,-2,-3,-1,-2,-1
1499876632865497,-2,2,7,3,3,1,0,5
1499876632865497,3,-2,-2,-16,-1,-1,1,6
1499876632866457,-5,0,-1,16,0,-1,-1,-23
1499876632866457,-11,-12,-9,4,-6,-5,-3,-1
1499876632887526,5,-2,3,12,-2,-1,-3,-2
1499876632887526,-6,5,12,-20,2,1,0,-23
1499876632888489,6,1,-17,8,0,-1,-7,13
1499876632888489,4,2,8,20,2,-1,1,-1
1499876632902480,-2,0,-11,-17,-5,-1,0,7
1499876632902480,-1,-3,1,-14,-2,-3,-2,9
1499876632903457,5,0,2,-15,2,1,2,11
1499876632903457,-8,3,9,62,2,1,0,-25
1499876632925492,4,2,-8,20,1,-1,-3,2
1499876632925492,-8,-5,-2,-4,-10,-2,-2,-67
1499876632926460,6,-2,11,8,-1,-1,-3,0
1499876632926460,6,-4,-16,-33,-3,0,1,38
1499876632947495,-2,5,9,13,3,-1,0,-13
1499876632947495,-2,0,11,1,3,0,-1,0
1499876632948459,6,-1,-4,-6,0,-1,1,0
1499876632948459,-4,3,19,21,2,1,-1,-3
1499876632962500,-3,4,-36,-20,4,4,5,-14
1499876632962500,-6,-8,12,47,-10,-10,-9,29
1499876632963467,11,2,2,-25,-1,0,2,-26
1499876632963467,1,-6,36,-16,0,-2,-2,32
1499876632985463,-3,-2,-19,14,-4,-2,-3,-2
1499876632985463,-3,4,-7,-3,5,3,2,14
1499876632986462,-1,1,6,29,3,1,0,-11
1499876632986462,17,5,-22,26,1,-1,0,47
1499876633007502,-6,2,2,-67,-4,0,-1,-7
1499876633007502,9,-3,-5,-13,2,-2,-1,4
1499876633008463,-13,-10,1,32,-7,-6,-2,-9
1499876633008463,4,-2,-22,-38,-3,0,-1,-12
1499876633022480,-5,-10,-13,3,-5,-3,-3,4
1499876633022480,7,6,-8,-7,2,2,3,0
1499876633030468,-13,2,20,-7,2,-2,-3,-6
1499876633030468,-2,0,-24,-11,2,0,-1,-36
1499876633045494,-10,-3,13,34,-4,-3,-1,-41
1499876633045494,6,2,0,-11,0,-1,2,17
1499876633046468,-6,1,9,48,2,0,-1,8
1499876633046468,-5,-4,-2,-53,-6,-2,-3,-3
1499876633067513,17,1,7,27,2,0,0,50
1499876633067513,-26,-7,12,-17,-5,0,-2,-28
1499876633068466,8,1,15,-18,-3,-4,-4,9
1499876633068466,-4,3,-42,23,-3,-1,-1,-15
1499876633082467,-5,-5,13,11,0,-2,0,5
1499876633082467,10,3,-13,-19,0,1,0,25
1499876633090524,-2,-5,-4,15,-2,-1,-1,8
1499876633090524,-4,1,14,10,3,0,0,-6
1499876633105514,2,1,-3,-16,-2,0,1,-23
1499876633105514,2,-1,-9,-46,0,-1,1,15
1499876633106468,-6,-7,3,-16,-1,-2,-3,-15
1499876633106468,-7,-1,13,34,-1,-2,0,4
1499876633127508,-8,-1,-18,-19,-1,-2,-1,-25
1499876633127508,-6,2,3,22,-1,-2,-1,-2
1499876633128470,12,0,-11,32,-2,-1,-2,-1
1499876633128470,-7,-4,2,-91,-10,-2,-3,-14
1499876633142471,6,6,12,33,4,2,-1,11
1499876633142471,-3,-1,15,-10,-2,1,-2,-14
1499876633150473,1,-1,-25,-24,-1,0,1,7
1499876633150473,-5,-3,4,55,-1,-4,-2,-7
1499876633165489,-1,-7,-7,-40,-4,-4,-3,-2
1499876633165489,5,-2,-11,0,1,-1,1,7
1499876633165489,-4,0,7,4,0,3,1,7
1499876633165489,5,4,-1,-4,4,1,-1,-2
1499876633187517,-3,-3,4,17,-2,-3,-3,27
1499876633187517,0,-4,2,8,-2,-3,-3,-11
1499876633188506,0,0,0,13,1,-2,-1,-5
1499876633188506,-14,0,-10,-6,-3,0,1,-34
1499876633202477,6,1,-9,-71,-3,0,2,15
1499876633202477,-8,-12,-2,35,-3,-3,-4,-4
1499876633210500,20,1,-5,-2,-1,-1,-2,24
1499876633210500,-8,-2,-16,43,3,-2,-1,-34
1499876633225512,-12,-5,6,-48,-3,1,-5,-8
1499876633225512,11,7,-9,-2,0,-1,-1,-15
1499876633225512,-16,-7,2,-40,-4,1,-1,9
1499876633225512,9,-2,12,11,0,0,-1,30
1499876633247516,5,3,-3,17,1,-1,0,-4
1499876633247516,-8,-5,-11,-1,2,0,-1,-7
1499876633248477,-7,1,13,2,-2,-1,-2,-17
1499876633248477,4,-4,-15,-14,0,0,-1,20
1499876633262490,5,-1,13,21,1,-2,-3,11
1499876633262490,5,3,3,2,-2,0,0,11
1499876633270499,-7,-3,-15,49,0,-2,0,-17
1499876633270499,2,0,13,-79,-9,-3,-2,2
1499876633285491,-5,-2,6,36,-1,-1,-1,-6
1499876633285491,-1,1,-19,-31,-2,-1,0,-8
