timestamp,emg1,emg2,emg3,emg4,emg5,emg6,emg7,emg8
1499893989566341,3,-3,-10,-16,1,0,-4,18
1499893989566341,-4,2,3,79,4,1,-2,1
1499893989567339,1,-2,0,-114,-10,-2,-2,-2
1499893989567339,-4,-5,-7,-23,2,-1,2,-4
1499893989588342,9,2,11,82,-1,-3,-6,-16
1499893989588342,-13,-4,-15,6,-3,-3,-2,8
1499893989590346,2,1,-4,-12,2,2,0,-2
1499893989590346,-5,0,-1,12,0,0,2,-1
1499893989602342,-5,-4,-4,5,0,2,1,1
1499893989602342,-1,0,5,-28,3,1,1,2
1499893989611342,-33,-5,9,18,-4,-2,-9,-10
1499893989611342,4,-4,-3,18,-9,-4,9,26
1499893989626343,14,3,-2,10,5,0,-1,-3
1499893989626343,3,2,-3,27,1,-5,-8,9
1499893989627343,16,-5,-20,-75,-4,-2,-9,3
1499893989627343,-2,-4,28,93,2,-3,-8,10
1499893989648347,-32,3,2,-27,-10,-5,14,43
1499893989648347,34,3,-4,-18,1,3,-3,1
1499893989650346,-29,-7,-52,-39,-8,-2,-1,-30
1499893989650346,55,-15,-8,-17,-9,-7,-9,9
1499893989662347,17,6,1,20,6,6,-1,4
1499893989662347,-23,1,19,17,1,-2,-1,-19
1499893989671345,25,2,3,-26,9,7,15,11
1499893989671345,34,4,-15,11,-9,-4,16,29
1499893989686346,-12,6,-2,-75,3,3,0,-6
1499893989686346,-16,-5,45,64,1,-7,-25,-74
1499893989687346,16,-9,-4,-40,-14,-7,5,49
1499893989687346,-22,4,-21,-126,1,3,3,-113
1499893989708353,-58,0,-10,60,13,8,16,21
1499893989708353,10,-10,6,-17,-37,-14,-7,56
1499893989711349,-15,8,36,85,11,-1,-7,-8
1499893989711349,-34,-4,19,-66,-3,2,-3,-14
1499893989723353,127,-1,-23,50,0,-7,-30,29
1499893989723353,-82,-2,7,-116,-10,0,19,21
1499893989729350,55,16,-34,69,7,3,9,14
1499893989729350,-107,-25,33,18,-15,-9,12,-73
1499893989746351,-24,-12,22,0,-2,-5,-34,13
1499893989746351,35,0,-19,-54,3,3,22,4
1499893989747350,13,11,15,20,9,6,7,-14
1499893989747350,10,12,-16,-18,9,6,-1,55
1499893989768350,35,-10,-9,-36,1,1,0,22
1499893989768350,-79,3,37,106,14,3,-5,-39
1499893989770351,6,6,54,99,0,-6,-7,-16
1499893989770351,7,-9,-65,-53,-10,-6,-12,46
1499893989782352,1,-2,15,-8,-1,1,-8,10
1499893989782352,-10,-6,-41,66,-1,-2,6,23
1499893989791354,14,3,-32,-119,-10,-1,11,-34
1499893989791354,-18,6,99,127,14,4,-27,12
1499893989806359,41,16,-40,-128,3,2,32,-12
1499893989806359,14,-6,-24,-29,-1,3,-13,-11
1499893989807354,-2,-15,12,107,5,-7,7,-80
1499893989807354,17,10,-5,-121,-8,-4,-25,12
1499893989830356,-32,13,8,110,-9,0,32,-24
1499893989830356,38,21,43,-41,10,9,-4,22
1499893989831355,-47,-26,9,24,-7,-8,-24,9
1499893989831355,43,-1,-34,-50,-3,-2,0,64
1499893989842356,33,-3,-11,-9,-2,0,17,-32
1499893989842356,33,-8,-55,-83,3,3,10,-21
1499893989851358,-12,11,40,88,4,-5,-32,-4
1499893989851358,4,4,-24,-70,-16,-1,14,-44
1499893989866357,-30,-21,8,27,-1,-1,9,78
1499893989866357,26,5,-2,44,8,2,-12,-105
1499893989867358,-13,2,2,-44,-1,6,3,23
1499893989867358,-12,2,-20,1,6,-2,-7,63
1499893989888361,-18,2,16,41,-2,-2,-7,-14
1499893989888361,30,-18,-4,23,-3,-7,24,-13
1499893989894358,-12,14,22,70,-2,0,-8,74
1499893989894358,-10,-10,-39,64,0,-2,10,-32
1499893989902359,-39,-13,-7,-40,-8,-5,-24,-17
1499893989902359,45,2,-10,-38,4,2,-5,42
1499893989911360,-21,-3,3,49,-2,-3,7,32
1499893989911360,3,18,-12,-64,2,-3,0,-94
1499893989926360,61,-6,31,-33,6,7,6,67
1499893989926360,-35,5,17,108,-8,-9,-13,-24
1499893989927361,2,-16,-53,-128,-18,-2,2,-36
1499893989927361,-1,6,25,110,20,4,-1,77
1499893989948362,-36,-20,12,-1,-12,-10,-6,-65
1499893989948362,8,-1,-7,20,-10,-1,-5,74
1499893989950362,9,2,13,23,9,2,-23,29
1499893989950362,22,23,62,85,12,4,23,23
1499893989962362,-53,-24,-84,-75,-9,0,9,-29
1499893989962362,-23,5,3,75,6,3,13,11
1499893989971363,14,-13,-52,-127,-17,-8,-17,-41
1499893989971363,23,-5,37,127,2,-4,-10,2
1499893989986364,-28,2,29,-84,4,2,4,-63
1499893989986364,37,22,42,-39,15,8,-1,-3
1499893989987366,22,-13,-52,-35,-1,0,12,31
1499893989987366,-48,7,6,-49,-4,-4,-11,15
1499893990007365,32,6,4,44,4,0,-3,-7
1499893990007365,-23,-3,-2,13,-14,-6,-7,36
1499893990016367,23,8,19,11,11,6,11,-33
1499893990016367,31,-9,-1,-41,-9,-3,0,-11
1499893990022377,8,6,-1,76,10,2,-7,12
1499893990022377,-79,-13,-28,56,-1,-6,-9,-28
1499893990031368,-3,10,18,-3,-8,0,3,2
1499893990031368,26,-7,27,41,-11,-8,1,-2
1499893990046372,-27,2,-58,-13,-1,0,-7,-102
1499893990046372,70,-7,24,-44,-6,-1,-8,53
1499893990047367,-42,-14,-31,62,7,0,4,35
1499893990047367,-27,-6,-7,-34,11,6,-9,-19
1499893990068371,23,12,25,28,-6,1,2,-61
1499893990068371,-33,12,25,-19,4,-3,8,-8
1499893990070370,-1,-22,-45,-105,-26,-9,-6,1
1499893990070370,59,-7,-3,2,-6,-1,1,88
1499893990082372,-6,-8,8,52,5,-1,-7,50
1499893990082372,3,2,-14,-9,3,4,1,-60
1499893990091371,-34,2,2,-54,2,2,-5,-40
1499893990091371,-20,-3,7,52,-8,-7,-15,30
1499893990106377,28,2,1,36,-10,-4,5,38
1499893990106377,-2,-3,-34,1,1,3,1,5
1499893990107370,24,9,45,-21,6,1,7,56
1499893990107370,-40,1,3,18,6,3,4,-41
1499893990128372,-20,-10,0,31,3,-1,-11,80
1499893990128372,-4,-24,-42,-68,-21,-11,-3,44
1499893990130372,38,14,14,8,-4,0,6,19
1499893990130372,-38,-5,0,-10,3,3,-2,-66
1499893990142374,-18,15,24,36,4,0,2,75
1499893990142374,11,-5,-47,-44,1,4,-6,-25
1499893990151375,-20,-21,43,127,10,-6,-16,30
1499893990151375,20,4,-22,-128,-8,4,3,-17
1499893990166375,-53,15,7,-4,-12,-8,3,-68
1499893990166375,12,-14,-36,-13,0,-4,-6,-26
1499893990167374,-13,-9,-33,-55,2,5,7,9
1499893990167374,-1,-3,2,36,11,3,-2,-42
1499893990188377,18,8,-32,-11,2,0,-10,0
1499893990188377,25,7,8,-25,-1,6,3,22
1499893990190375,-12,8,-16,12,6,2,17,27
1499893990190375,14,-10,23,83,-9,-5,-2,-19
1499893990202376,32,-12,-10,-128,-11,-6,-10,-8
1499893990202376,6,11,48,65,1,-1,-2,29
1499893990212380,-5,1,-5,50,5,-2,-1,-18
1499893990212380,34,-1,-51,-107,-8,0,4,23
1499893990226379,11,-11,-11,46,-2,-2,-11,-1
1499893990226379,-18,3,24,-7,-2,-4,-1,-66
1499893990227378,-29,13,39,54,4,-4,-4,32
1499893990227378,-37,-24,-47,-76,-18,-12,-3,35
1499893990248379,-9,-2,37,63,8,3,-2,-39
1499893990248379,2,7,-5,-83,-11,-5,-6,28
1499893990250379,-19,-19,-1,103,12,1,-9,-110
1499893990250379,-34,12,13,-80,0,2,7,-16
1499893990271380,-26,-2,-5,51,-5,-7,-2,36
1499893990271380,0,1,32,50,8,8,9,20
1499893990272388,-5,5,-32,-3,0,1,1,-44
1499893990272388,32,10,3,6,13,5,8,38
1499893990293385,-10,-21,-20,-1,-6,-5,-6,-56
1499893990293385,-14,7,-9,15,3,3,5,-11
1499893990295382,15,0,26,-23,2,1,-2,3
1499893990295382,42,-9,-63,-31,-5,-1,-5,61
1499893990308383,-85,4,18,-15,-11,-6,-14,-65
1499893990308383,42,14,37,57,5,-5,-2,86
1499893990311384,-8,1,-52,-95,-9,2,2,32
1499893990311384,5,-7,82,127,3,-5,0,48
1499893990331383,1,11,11,-28,-1,1,4,32
1499893990331383,-22,-5,-43,-39,7,0,-10,-52
1499893990332384,30,15,28,43,-11,-1,5,-33
1499893990332384,-15,-6,-34,-74,-9,-2,3,71
1499893990346386,12,5,25,43,9,6,7,7
1499893990346386,-54,-13,-19,-32,-1,-1,-9,-83
1499893990347385,34,11,34,-2,5,4,10,54
1499893990347385,-27,-10,-55,85,-6,-5,-7,-94
1499893990368386,21,14,43,49,5,0,0,59
1499893990368386,41,-9,-24,-34,-1,0,-2,-4
1499893990370386,-20,-11,-43,22,-4,-6,-6,-22
1499893990370386,-24,-2,25,6,0,4,7,19
1499893990391387,-11,11,17,-92,-2,-1,-7,-62
1499893990391387,-13,1,33,52,-1,0,14,7
1499893990392390,-6,11,12,10,8,-1,-9,-10
1499893990392390,41,2,18,-59,-3,4,7,-11
1499893990405389,7,-11,-15,-5,-10,-6,-7,26
1499893990405389,7,12,10,-16,-7,-2,5,9
1499893990412411,-12,-4,47,-55,-10,-4,-2,1
1499893990412411,-8,12,4,-1,18,5,4,-31
1499893990428390,6,3,23,77,-3,2,-2,-87
1499893990428390,-19,-14,-15,-24,-7,-7,-9,-10
1499893990430392,14,11,10,18,3,4,8,3
1499893990430392,-13,8,-8,33,3,-2,0,-26
1499893990451390,-5,-20,-46,-48,-8,-2,1,-15
1499893990451390,10,-7,-10,19,-3,-2,-5,84
1499893990452390,18,-7,-15,79,4,-6,-14,-25
1499893990452390,-42,0,-2,-37,-22,-6,6,-17
1499893990465392,19,-5,-17,53,6,6,28,-2
1499893990465392,-4,-3,-6,-29,-3,-3,-7,82
1499893990472398,21,4,-9,-9,10,10,3,12
1499893990472398,2,-13,-16,84,-18,-13,-15,-20
1499893990488394,35,1,-15,-41,-8,-6,-2,102
1499893990488394,-26,-15,24,-52,-4,0,-5,-118
1499893990490393,16,-14,-45,-65,-3,-5,-4,45
1499893990490393,-8,4,21,17,7,0,-8,-9
1499893990511395,4,2,-21,-24,5,2,1,8
1499893990511395,-17,-16,7,78,-1,-3,-5,34
1499893990512396,0,7,0,-23,-4,-3,-5,-15
1499893990512396,12,-19,-28,-49,-9,-1,4,42
1499893990525396,-15,2,-26,-3,5,-2,-6,-26
1499893990525396,11,15,24,33,3,3,1,-42
1499893990532394,-66,-20,11,47,7,2,1,-22
1499893990532394,25,6,30,-21,-3,-4,-8,64
1499893990548397,27,5,14,-10,2,-1,9,76
1499893990548397,-3,-3,-48,-33,-2,-1,-1,7
1499893990550397,9,3,-19,-24,-16,-4,6,-8
1499893990550397,-50,-2,-10,38,11,0,-12,-105
1499893990571401,4,5,14,-96,0,0,-4,-14
1499893990571401,45,7,26,75,5,2,6,36
1499893990573398,-16,10,13,-28,-3,-2,1,14
1499893990573398,13,-39,-86,-71,-5,-5,-3,-2
1499893990585398,8,11,34,33,1,2,1,71
1499893990585398,-13,0,-38,34,3,-2,-1,-10
1499893990592400,3,-3,11,-7,-6,-4,7,3
1499893990592400,3,14,7,-52,-2,4,-12,-29
1499893990608401,13,-11,-17,-2,3,0,4,37
1499893990608401,25,-2,12,40,-4,-3,-3,-49
1499893990611401,-34,2,14,-32,-2,-4,-6,-3
1499893990611401,40,-12,-20,75,2,-5,5,56
1499893990638401,-34,3,42,35,5,3,0,-50
1499893990638401,16,0,-35,-21,-3,1,-1,51
1499893990640402,-8,-9,-19,-5,0,8,3,-47
1499893990640402,16,18,30,32,9,0,1,68
1499893990645403,19,-3,-1,-96,-6,0,17,79
1499893990645403,-49,1,13,3,-4,-7,-8,-86
1499893990652402,12,1,6,50,-7,-8,-4,7
1499893990652402,-24,-11,-27,57,4,4,-4,22
1499893990668403,20,5,5,66,-2,-1,-3,-44
1499893990668403,17,-7,-51,-41,-5,-1,3,95
1499893990670404,-21,-2,21,-5,9,3,3,-7
1499893990670404,32,14,-12,51,-7,3,1,-28
1499893990691404,-30,-19,15,-56,1,-8,-14,-88
1499893990691404,-42,-17,30,11,-4,-5,-3,15
1499893990692405,61,4,6,52,2,3,4,52
1499893990692405,-32,21,36,29,18,12,11,-52
1499893990705413,6,-19,-82,-41,-14,-11,-26,4
1499893990705413,-15,-2,34,-41,-6,-4,-1,-27
1499893990712408,-29,-7,3,-61,-13,-7,-7,-74
1499893990712408,-11,11,13,46,15,3,4,-70
1499893990728406,13,6,-7,-22,2,3,2,22
1499893990728406,-50,-10,-9,14,0,-3,-3,-11
1499893990730408,51,11,29,-12,-6,-3,-8,88
1499893990730408,1,-8,1,42,-4,-5,3,20
1499893990751408,-5,-16,-13,-43,-19,-9,-2,-7
1499893990751408,15,3,-8,4,7,3,0,78
1499893990752408,-3,1,-3,16,5,2,-2,-9
1499893990752408,-5,6,37,-73,-8,-2,-5,31
1499893990764411,2,6,-27,92,12,7,5,-12
1499893990764411,20,4,36,44,4,-2,0,43
1499893990773409,-45,-23,-48,26,-7,-6,-11,-29
1499893990773409,25,4,37,-71,-3,-1,5,24
1499893990788412,-17,0,-23,-7,2,1,-4,2
1499893990788412,37,11,-17,-3,-4,2,6,-20
1499893990790412,-4,2,-11,30,3,-3,-4,23
1499893990790412,-1,-2,14,-33,-1,-4,-7,-28
1499893990811413,-37,2,46,2,-7,-3,3,-12
1499893990811413,3,-8,-6,19,7,5,2,-61
1499893990812420,44,5,-5,-43,-9,0,4,42
1499893990812420,-47,-5,5,3,-4,-5,3,66
1499893990824413,32,22,47,35,10,5,-2,2
1499893990824413,-17,-24,-97,-38,-13,-5,-6,-49
1499893990833413,-3,-6,-20,2,6,3,0,-4
1499893990833413,2,3,11,58,1,1,0,-13
1499893990848414,-14,-3,19,18,-6,-5,-3,-23
1499893990848414,-3,9,22,-32,-1,1,-7,-59
1499893990850413,12,-4,-14,-27,-8,-4,5,47
1499893990850413,14,-5,-27,4,4,2,3,-12
1499893990871415,-4,-8,-34,2,-10,-4,0,-2
1499893990871415,1,3,57,39,-6,-4,-5,-23
1499893990872424,-16,4,-2,-25,-5,-5,-1,-31
1499893990872424,-5,-7,-25,-15,2,-2,0,15
1499893990884417,-30,-7,-6,110,6,4,-1,-7
1499893990884417,34,5,3,-62,0,2,5,32
1499893990893416,10,-8,-3,-50,-13,-2,1,52
1499893990893416,-21,11,2,-11,7,2,-1,-22
1499893990908417,10,-6,1,54,-6,-4,-3,44
1499893990908417,9,-14,-37,31,-3,-2,0,61
1499893990911419,-10,1,30,37,8,2,4,-38
1499893990911419,12,-5,-31,-39,-4,-1,-5,-23
1499893990931418,2,-3,-5,-49,-3,-3,-3,44
1499893990931418,10,15,25,9,3,1,6,18
1499893990932419,-6,-3,-11,82,1,0,-1,-10
1499893990932419,-9,-10,-7,-39,-4,-2,-1,11
1499893990944419,9,-8,-13,-65,-1,-2,-2,-12
1499893990944419,-13,9,26,-49,-3,0,-2,-56
1499893990953419,15,-1,0,11,-4,-2,-1,15
1499893990953419,-27,0,27,7,-1,-3,-7,-75
1499893990968420,-1,-1,-28,35,3,-1,2,20
1499893990968420,7,15,23,6,0,-1,1,-3
1499893990970422,-34,-12,-28,-22,1,0,-5,-36
1499893990970422,-10,0,5,14,0,3,5,-10
1499893990991422,4,2,9,11,0,1,-2,-3
1499893990991422,12,-5,5,-12,1,-1,0,-31
1499893990992423,-12,-1,-61,4,17,6,0,-23
1499893990992423,27,-9,0,28,-27,-12,5,59
1499893991004422,-10,-6,-5,-9,2,-4,-9,26
1499893991004422,-20,-4,-19,14,-4,2,2,-10
1499893991013428,24,12,37,-25,-1,1,-3,46
1499893991013428,18,7,11,31,17,6,1,24
1499893991028424,-14,-8,-29,53,3,2,1,-82
1499893991028424,-40,-7,19,-82,-8,-5,-2,3
1499893991030424,36,11,25,71,-1,-2,-5,70
1499893991030424,-30,-8,-11,21,0,0,0,-31
1499893991050425,33,9,36,-9,-1,0,1,-17
1499893991050425,-41,-6,-18,25,15,3,-2,0
1499893991052426,-19,4,4,18,1,2,6,-43
1499893991052426,-6,-23,-45,-95,-22,-12,-4,-43
1499893991064439,13,15,44,-21,2,0,-2,33
1499893991064439,8,-8,-26,35,6,4,6,4
1499893991073426,-14,13,37,-18,-6,-3,-4,-8
1499893991073426,29,11,29,55,5,2,-8,25
1499893991088429,-25,-16,-59,-75,-13,-3,4,-40
1499893991088429,3,3,-1,15,-9,-4,-5,49
1499893991090427,-4,-12,-7,-22,-3,-5,3,-29
1499893991090427,2,-3,-1,-24,-2,0,-3,28
1499893991111429,-5,0,16,0,6,2,-1,-25
1499893991111429,13,15,-10,-7,8,5,11,-8
1499893991113429,-13,-17,-18,-95,-24,-9,-13,21
1499893991113429,21,-15,-28,72,5,-5,-13,41
1499893991124430,13,-6,1,53,7,3,13,86
1499893991124430,-13,12,-9,-70,-7,1,2,-65
1499893991133430,-16,-7,0,27,-3,-6,-1,-28
1499893991133430,-13,1,-7,16,6,6,-8,-70
1499893991148440,40,1,-11,-49,-10,-6,-2,88
1499893991148440,-10,-8,3,87,6,-1,6,5
1499893991150434,13,12,31,-24,9,6,1,21
1499893991150434,-2,-2,-28,-1,-6,-3,-3,-14
1499893991171432,-24,9,9,28,5,3,-5,-28
1499893991171432,24,-10,-3,-34,-12,-6,1,60
1499893991172453,2,9,30,-21,6,-1,-1,-26
1499893991172453,-4,6,13,2,11,10,7,25
1499893991184434,-12,2,21,32,-13,-7,-4,-28
1499893991184434,-24,-3,8,-27,-8,-1,-11,-46
1499893991193434,-8,-6,-28,-9,-4,0,-1,21
1499893991193434,7,9,34,31,5,-3,2,10
1499893991208434,-26,-7,-10,-56,-5,0,2,-41
1499893991208434,21,5,6,8,3,-3,-2,63
1499893991210435,5,4,14,27,4,0,-4,-28
1499893991210435,-78,-1,-2,51,-8,-3,-3,-58
1499893991231436,32,-11,-16,-56,-6,-1,-3,22
1499893991231436,7,8,57,83,3,-1,-4,-56
1499893991232437,-14,8,-10,-30,5,3,0,-13
1499893991232437,27,0,33,-12,2,3,3,102
1499893991253438,-19,-4,-18,27,-3,-2,5,-19
1499893991253438,-22,-2,19,-75,-10,-5,-8,1
1499893991255439,8,-4,-34,113,1,1,0,4
1499893991255439,19,5,30,-43,-4,-1,8,19
1499893991268439,-19,-4,-23,15,2,1,-6,-21
1499893991268439,10,-4,-21,11,-1,-3,-2,14
1499893991270440,4,1,7,-27,8,7,2,-24
1499893991270440,-16,-19,-37,-13,-14,-9,-9,-48
1499893991291450,3,8,51,12,5,-3,-8,3
1499893991291450,18,11,-21,9,4,3,2,-5
1499893991292440,11,-11,-29,-9,-11,-8,-2,73
1499893991292440,18,10,36,8,9,4,0,-21
1499893991313451,-6,7,22,58,7,2,-7,-41
1499893991313451,-5,-9,-25,-85,-7,-1,-2,71
1499893991315441,-8,3,23,15,0,-2,3,-35
1499893991315441,-24,-9,-32,26,-4,-2,2,-3
1499893991328441,4,2,-26,-45,3,-1,0,-24
1499893991328441,-16,5,43,99,-1,0,-5,5
1499893991330443,-6,-31,-50,-59,-10,-5,-3,-23
1499893991330443,31,-1,10,-12,-4,-5,1,51
1499893991350443,-28,6,31,13,-4,2,4,-18
1499893991350443,14,0,-32,46,6,1,-2,-3
1499893991352442,-11,5,14,-36,-4,-2,-1,-48
1499893991352442,-7,1,-6,32,2,-1,-8,-22
1499893991373444,-14,-4,-6,25,4,0,1,21
1499893991373444,2,-15,-32,-93,-19,-10,-13,-68
1499893991375445,5,8,40,53,3,2,15,56
1499893991375445,17,14,16,6,6,3,3,42
1499893991387444,-5,-6,-18,-42,-2,2,3,-24
1499893991387444,-18,-6,-29,9,-3,-5,-3,16
1499893991394448,9,8,31,61,-1,-3,1,2
1499893991394448,-46,-13,-40,-112,-6,-4,-7,-81
1499893991411447,33,4,19,25,2,2,-1,39
1499893991411447,2,-6,-38,26,7,4,6,-4
1499893991413446,9,2,21,9,0,-3,-18,42
1499893991413446,2,6,6,14,0,0,9,-65
1499893991433447,-16,-5,-36,-3,-3,-4,0,-28
1499893991433447,18,-5,27,-63,-9,-3,-4,1
1499893991435449,-10,5,14,67,3,0,3,0
1499893991435449,19,-1,-9,-32,-3,-1,-5,24
1499893991447449,4,-2,-18,44,-6,-5,-3,21
1499893991447449,-16,3,16,-22,3,-1,0,-33
1499893991454450,0,-4,-11,35,4,3,-3,-5
1499893991454450,14,0,42,-27,-4,1,5,36
1499893991470449,-1,-3,-44,40,2,-3,-1,-48
1499893991470449,-16,6,14,-60,1,-1,1,19
1499893991472451,-7,-12,-29,-3,-1,0,-9,-79
1499893991472451,-3,4,-4,-24,-2,2,19,30
1499893991493452,32,8,24,4,-3,1,-5,43
1499893991493452,-8,-4,-15,127,8,0,-6,-30
1499893991495453,6,6,37,-104,-15,-8,6,-14
1499893991495453,-2,1,10,71,2,2,-4,1
1499893991508451,3,-1,-9,-88,-2,0,1,23
1499893991508451,20,0,-20,49,1,-2,-1,44
1499893991514451,-14,-6,12,24,1,0,-1,0
1499893991514451,-6,0,-9,-78,-6,-2,-6,15
1499893991530454,10,1,10,-45,6,1,-3,-10
1499893991530454,7,4,29,47,1,-1,4,-22
1499893991532453,-26,-8,-25,-48,-3,-3,-13,-57
1499893991532453,14,-3,2,3,3,-1,1,43
1499893991553454,16,4,-14,4,0,0,2,-7
1499893991553454,-6,4,-4,-73,-4,-1,-5,-27
1499893991555456,22,-8,-22,-34,2,1,2,47
1499893991555456,-8,6,11,101,1,-6,-6,-33
1499893991567456,-13,-4,13,36,3,0,0,-11
1499893991567456,17,1,31,-78,-7,1,7,31
1499893991574456,-9,-5,-64,64,0,-2,2,-3
1499893991574456,4,9,43,-3,-3,-4,-7,15
1499893991590457,-11,-16,-22,18,-6,0,-3,-4
1499893991590457,-2,-3,27,14,3,1,3,-3
1499893991592457,6,8,-17,-31,7,4,1,11
1499893991592457,-4,-4,-63,41,-6,-4,0,-33
1499893991613459,2,4,38,-58,-11,-9,-14,42
1499893991613459,-5,-4,-17,66,-6,-1,0,-3
1499893991615459,-11,-5,3,-72,-5,-2,2,-9
1499893991615459,-3,-1,-18,-10,13,6,-2,-5
1499893991627460,6,2,19,61,0,-1,8,7
1499893991627460,-3,-6,15,-8,4,1,-2,15
1499893991634460,-17,0,4,38,-2,-4,-1,19
1499893991634460,-20,-4,-26,-69,-11,-2,-4,-49
1499893991651459,-19,-1,-19,-7,-2,-3,-3,0
1499893991651459,5,-6,-15,-9,-3,-5,-4,44
1499893991653460,16,-8,11,24,3,-3,1,-46
1499893991653460,-12,-1,17,-6,0,0,-3,-23
1499893991673462,-10,1,-15,-27,4,-1,-5,-38
1499893991673462,5,5,-10,-7,-7,-2,4,29
1499893991675462,-12,-3,-10,-18,-1,1,1,24
1499893991675462,10,5,-8,34,4,2,-4,16
1499893991687462,0,-17,-20,-64,-9,-2,7,7
1499893991687462,-13,-3,-20,20,-2,-1,-1,-38
1499893991694464,-22,-1,8,-34,2,-1,-2,-10
1499893991694464,17,6,5,-18,1,-2,-3,-4
1499893991711464,-11,9,35,-34,4,3,4,15
1499893991711464,-4,-7,-13,77,-3,-1,-1,40
1499893991712464,5,-6,-14,-33,-9,-6,-2,37
1499893991712464,-1,-1,7,25,2,1,-3,5
1499893991733466,-7,-1,15,12,5,1,-3,-2
1499893991733466,10,0,-16,-48,-4,-4,0,12
1499893991735468,8,13,56,27,7,4,-2,-16
1499893991735468,18,-19,-59,40,-9,-3,2,30
1499893991747465,-9,8,14,30,5,-3,-3,-66
1499893991747465,5,-8,-11,6,-6,-2,0,-21
1499893991756466,2,-1,6,-13,-7,-3,5,82
1499893991756466,-14,3,15,-42,2,1,8,-48
1499893991770466,25,-6,-31,48,4,5,4,23
1499893991770466,-24,-2,-6,-27,1,-3,-6,-29
1499893991772474,0,0,2,49,0,-2,-4,9
1499893991772474,-13,-12,-16,-55,-10,-4,-2,-9
1499893991793470,9,-5,-29,-5,1,1,4,31
1499893991793470,11,14,24,32,6,7,-1,18
1499893991795469,-13,-4,-16,-67,-6,-10,-17,-75
1499893991795469,-3,0,4,8,-2,-2,12,27
1499893991807470,5,2,14,-6,-5,-2,-6,19
1499893991807470,-3,-6,-37,-43,1,-2,-1,8
1499893991816470,6,-2,-10,33,1,0,-4,34
1499893991816470,7,-4,21,15,-2,-3,-3,7
1499893991830469,-13,1,17,-22,2,-1,2,-21
1499893991830469,9,-2,9,27,3,0,-1,-34
1499893991832471,6,4,-15,-10,-2,0,-4,10
1499893991832471,7,-7,-6,-70,-5,-3,-2,14
1499893991853472,17,-1,16,79,-4,0,4,50
1499893991853472,-2,-4,10,8,2,-4,-17,-67
1499893991855472,-12,2,1,-50,-3,-2,7,-27
1499893991855472,1,2,-6,61,9,7,-1,5
1499893991867472,-28,3,4,-68,-2,-1,1,-85
1499893991867472,12,-1,14,33,1,1,-4,26
1499893991876474,13,2,-1,-11,1,5,13,-18
1499893991876474,-5,-4,-14,4,-4,-3,-6,-16
1499893991890475,-14,6,-2,25,-3,-2,0,-1
1499893991890475,7,1,18,-1,4,-5,1,-37
1499893991892475,2,-1,-39,-25,-3,2,-3,-1
1499893991892475,2,7,41,76,-1,1,-1,14
1499893991913476,12,-11,-16,-18,-3,-1,-2,41
1499893991913476,-11,3,10,6,2,2,5,-9
1499893991915477,-16,5,17,10,4,0,-8,-26
1499893991915477,6,1,2,84,4,-3,-2,28
1499893991927479,-20,-23,-18,-83,-22,-11,1,10
1499893991927479,12,11,-2,-57,-5,-2,-5,-38
1499893991936478,4,-2,11,56,4,1,1,7
1499893991936478,-2,4,-10,-15,4,1,-6,22
1499893991950476,2,7,18,-2,1,-3,1,9
1499893991950476,7,-8,-26,2,-1,2,1,88
1499893991952477,-10,0,8,45,1,0,2,-37
1499893991952477,-2,1,-5,-77,-4,0,-5,-18
1499893991973480,18,-4,11,10,-8,-5,-5,11
1499893991973480,-21,-9,-20,-34,1,0,0,-23
1499893991975479,5,7,28,39,1,0,5,-2
1499893991975479,-3,-2,-5,-30,4,2,2,24
1499893991987479,3,-11,-39,7,-3,-5,-13,-28
1499893991987479,26,-4,-2,-1,-3,-2,-2,82
1499893991996483,6,-4,-12,14,-3,-1,8,106
1499893991996483,1,3,34,-70,-6,-5,1,-19
1499893992010484,-8,12,11,29,3,2,0,37
1499893992010484,-15,5,39,57,6,0,-4,-61
1499893992012482,18,-12,-45,-32,-6,-1,-6,-3
1499893992012482,1,7,36,36,6,0,-2,-4
1499893992033481,-5,-7,-3,-64,-4,2,4,3
1499893992033481,-10,2,0,-11,-2,-6,3,12
1499893992035482,-22,0,29,-34,-2,1,4,-65
1499893992035482,-1,-2,-39,9,2,1,-13,-50
1499893992047483,3,4,37,-5,6,0,-4,-29
1499893992047483,1,-12,-55,-2,-4,-2,7,21
1499893992056492,7,2,13,40,1,0,-5,-19
1499893992056492,6,0,7,-30,-5,-5,1,20
1499893992070486,12,2,-18,26,3,2,0,-2
1499893992070486,0,6,36,-13,1,2,0,7
1499893992072492,-7,-6,5,2,-2,-2,-5,-38
1499893992072492,21,-4,-20,15,-2,1,5,10
1499893992093487,-39,10,27,27,8,1,-7,-85
1499893992093487,5,11,-6,-29,-9,1,6,-51
1499893992095486,1,-8,11,4,-7,-6,-3,-40
1499893992095486,-12,-2,-21,-37,4,0,-9,-38
1499893992107487,0,1,8,55,0,1,3,4
1499893992107487,-10,0,-27,-46,-2,2,6,8
1499893992116488,-2,10,-2,-30,1,-2,-4,7
1499893992116488,-10,-16,-4,-14,-3,1,2,2
1499893992130488,3,-5,-35,111,-5,-9,-6,30
1499893992130488,-6,-3,12,-37,-3,-2,-7,9
1499893992132488,22,1,-7,-16,-3,0,7,34
1499893992132488,-16,6,-3,35,4,-1,1,38
1499893992153489,-10,-6,12,-55,-5,-3,-6,-25
1499893992153489,4,-5,-3,39,5,2,-1,-12
1499893992155490,-1,-6,-4,47,1,-3,-4,12
1499893992155490,-4,3,19,-77,-5,-3,1,2
1499893992175492,-9,-14,-49,32,3,1,1,10
1499893992175492,-22,-5,12,-14,-10,-9,-12,25
1499893992177490,9,7,9,-3,2,2,2,37
1499893992177490,8,2,7,9,2,3,1,-24
1499893992190492,18,-1,-46,-9,-1,-2,4,75
1499893992190492,-9,-6,-7,2,2,-1,-9,-49
1499893992192492,0,-7,-19,-22,-10,-3,-6,-20
1499893992192492,-5,-13,-28,23,-8,-7,8,11
1499893992213495,8,17,63,-30,3,5,-1,-6
1499893992213495,17,1,-35,34,5,2,4,-11
1499893992215494,-21,3,18,3,2,-1,-2,-11
1499893992215494,1,3,-32,17,3,0,-3,-23
1499893992235494,14,-17,-41,-27,-15,-3,2,-3
1499893992235494,-12,5,-2,14,-2,-5,-1,-24
1499893992237494,-4,1,-5,-3,0,1,-3,-23
1499893992237494,-6,-4,10,-5,-1,1,5,48
1499893992250496,23,2,1,-1,10,1,-1,-2
1499893992250496,9,3,16,26,-8,-1,1,20
1499893992252495,-6,-5,-19,-3,-1,-4,-4,-10
1499893992252495,-2,-3,29,10,-2,-1,-1,18
1499893992272512,4,-3,27,29,0,-3,-4,11
1499893992272512,5,-2,-7,35,1,-1,3,6
1499893992281496,19,2,2,-75,-4,2,0,33
1499893992281496,-4,8,-15,-50,-1,0,-2,-4
1499893992303498,-3,-1,27,76,1,0,1,0
1499893992303498,9,-7,0,16,-1,-1,1,16
1499893992305498,-25,3,41,-11,7,-3,-11,-49
1499893992305498,3,-22,-13,7,-9,-4,-5,3
1499893992310499,4,1,-26,-44,-2,-1,8,17
1499893992310499,-2,21,44,-25,1,1,0,-5
1499893992317498,-16,-28,-71,-5,-6,-4,3,7
1499893992317498,-1,23,41,66,8,2,-5,-17
1499893992333500,9,-8,-24,-20,-4,-3,-1,-3
1499893992333500,-11,-4,8,-28,-2,-2,3,44
1499893992335500,23,5,6,52,1,3,3,1
1499893992335500,-47,-4,2,5,-2,-2,-5,-76
1499893992355506,10,2,24,20,6,2,0,17
1499893992355506,16,1,-14,-23,4,4,-1,2
1499893992357501,-26,-4,4,1,-14,-8,-3,18
1499893992357501,21,4,-7,16,-1,-3,0,10
1499893992370501,-18,8,17,-87,-6,-2,1,-12
1499893992370501,-1,2,27,20,10,3,-2,-24
1499893992377502,15,-25,-57,124,-4,-1,4,22
1499893992377502,2,-3,26,-80,-9,-2,-9,-5
1499893992393505,-26,-3,-29,-44,-5,-4,7,-13
1499893992393505,3,7,20,-5,-3,-4,-7,-54
1499893992395503,-5,1,-48,5,2,1,2,24
1499893992395503,14,-9,0,-52,1,1,2,17
1499893992415505,0,4,-8,26,-6,-2,-12,-36
1499893992415505,-34,-7,-4,-13,0,-2,-1,-34
1499893992417505,-4,5,23,-11,4,5,6,-14
1499893992417505,5,-7,-26,12,-1,-2,0,-4
1499893992430506,-6,3,24,58,6,5,7,-10
1499893992430506,-16,-15,-7,-62,-8,-5,-9,26
1499893992437507,21,22,29,-48,5,1,-2,12
1499893992437507,-7,-15,-46,-1,-12,-7,-5,-11
1499893992453506,-6,-16,-47,-22,0,-1,7,18
1499893992453506,-8,1,-8,31,4,4,5,18
1499893992455508,1,-1,-17,-34,-5,-3,-4,-13
1499893992455508,0,6,33,1,-2,-3,-3,7
1499893992475509,-4,-10,-2,-34,-4,-1,-5,7
1499893992475509,-4,-5,4,39,-3,-2,-1,-54
1499893992477508,4,2,-2,-24,-2,-3,-3,14
1499893992477508,8,13,10,14,4,4,2,2
1499893992490509,-10,-2,-1,38,2,-1,-4,-3
1499893992490509,25,-6,0,-23,-3,0,5,55
1499893992497509,-33,5,17,-5,3,2,1,-34
1499893992497509,-3,-5,-22,60,-20,-12,-15,49
1499893992513511,13,2,25,-35,3,3,9,15
1499893992513511,8,-13,-31,27,-1,-1,-2,27
1499893992515510,16,5,4,-3,2,-2,2,40
1499893992515510,-14,-4,-20,16,0,2,1,-13
1499893992535512,0,4,-13,-21,-2,-2,-10,29
1499893992535512,2,-4,9,12,0,0,4,1
1499893992537512,4,13,34,-6,0,-1,-1,-11
1499893992537512,-11,-6,-14,-3,2,-3,0,-20
1499893992550510,-6,4,-3,-22,0,0,-6,10
1499893992550510,-6,-1,-6,-6,1,2,3,24
1499893992557512,5,-1,1,86,6,-2,-2,-6
1499893992557512,1,-3,-1,-67,3,1,7,-11
1499893992573514,0,8,35,27,-3,-2,-2,-16
1499893992573514,0,-14,-66,9,-4,-2,6,12
1499893992575513,-8,-5,45,1,-4,-1,-9,-23
1499893992575513,2,-4,-35,30,0,-1,0,26
1499893992595516,9,10,-4,26,4,-2,-6,-53
1499893992595516,-54,0,13,-75,-7,-4,-6,-80
1499893992597516,24,-12,-20,53,-7,3,14,111
1499893992597516,-49,-20,-11,-26,-8,-9,-15,-114
1499893992618515,6,9,20,6,3,-1,5,0
1499893992618515,11,12,54,-7,1,-2,-3,10
1499893992619517,-4,-2,-16,-50,4,3,0,-9
1499893992619517,0,-2,1,0,0,0,3,29
1499893992633518,-4,-3,-5,-26,-15,-5,-6,-15
1499893992633518,-6,1,6,28,-2,-6,-4,43
1499893992635518,15,6,5,-19,2,6,2,2
1499893992635518,20,4,44,29,6,2,-1,39
1499893992655518,-4,-3,-8,-11,-4,-3,-5,-6
1499893992655518,9,8,17,2,3,3,8,33
1499893992657519,-10,-19,-52,-27,-8,-6,-4,-5
1499893992657519,19,4,23,9,2,3,1,40
1499893992669519,10,-6,-14,-14,0,1,0,18
1499893992669519,-5,7,15,22,2,1,-4,-6
1499893992678519,13,-1,8,-1,7,-2,-7,4
1499893992678519,14,-1,-15,-18,-17,-4,3,4
1499893992693524,-12,0,1,-49,-11,-3,-2,8
1499893992693524,26,-4,-15,51,5,0,5,6
1499893992695520,-12,-2,1,-39,0,-2,-6,-51
1499893992695520,3,14,9,40,12,7,5,-2
1499893992715524,-7,-9,47,30,5,1,-2,-13
1499893992715524,19,-4,-98,-15,-9,-5,-6,-32
1499893992717521,-33,-3,6,-33,-6,-4,-9,-39
1499893992717521,-21,0,6,3,0,-1,0,-28
1499893992729526,6,-4,-4,-23,3,1,3,3
1499893992729526,-11,-9,29,1,1,5,0,-6
1499893992738524,-2,2,15,32,0,-3,0,20
1499893992738524,4,-3,-9,-36,3,-1,-4,3
1499893992753523,-4,5,-9,34,-4,-5,-6,-5
1499893992753523,13,-11,-3,-32,-5,-2,0,8
1499893992755525,-18,4,-11,10,0,0,1,-11
1499893992755525,19,0,3,-4,-3,1,0,10
1499893992775525,-14,15,7,27,4,1,2,1
1499893992775525,-6,-7,9,-23,-4,-3,-8,9
1499893992777525,-3,-14,-32,-18,-10,-5,-6,2
1499893992777525,-6,5,10,19,7,2,6,-31
1499893992789526,10,-7,23,-3,0,-1,1,24
1499893992789526,-2,1,-28,-36,0,2,-1,-15
1499893992798527,-2,10,39,-3,-1,-2,-5,5
1499893992798527,2,-4,-8,10,3,-3,0,-3
1499893992813531,19,4,-1,-25,-1,3,1,-15
1499893992813531,-7,9,1,-3,4,2,0,7
1499893992815527,14,-43,-17,64,-2,-2,6,-12
1499893992815527,0,6,11,-22,-7,-4,0,-24
1499893992835529,4,0,-9,16,4,-2,-7,-5
1499893992835529,-3,7,-3,17,2,-3,1,15
1499893992837529,-3,11,6,-40,3,5,4,-11
1499893992837529,0,-9,-21,11,-2,0,-6,28
1499893992850531,35,-6,-25,-13,0,1,5,30
1499893992850531,-49,3,14,35,-2,-5,-9,-53
1499893992858530,5,-6,21,5,-4,-3,-2,-8
1499893992858530,-3,-5,-28,0,0,-3,1,-7
1499893992873532,-9,-1,-3,-35,1,2,-1,4
1499893992873532,17,-5,22,25,0,-1,0,30
1499893992874532,14,10,-5,-37,-1,-1,8,61
1499893992874532,-21,-6,0,59,6,3,-4,-41
1499893992896532,-8,-2,5,-32,-15,-5,-3,-16
1499893992896532,2,2,23,-58,1,-4,0,21
1499893992898533,-5,9,-4,-9,0,1,8,39
1499893992898533,8,-17,-26,-29,-5,-2,-10,-15
1499893992909534,-6,4,6,20,2,0,3,11
1499893992909534,-12,7,-1,12,0,1,-5,-98
1499893992918533,14,9,25,-1,4,1,-3,10
1499893992918533,-6,-5,4,3,-11,-7,2,2
1499893992933536,1,-6,4,43,2,-1,-1,-1
1499893992933536,11,2,-13,-4,-3,-4,-6,-44
1499893992935535,-29,14,-3,-46,4,-1,-1,-35
1499893992935535,22,1,12,30,6,5,0,8
1499893992955539,1,-6,-20,-26,-6,-3,1,3
1499893992955539,20,0,8,41,0,0,5,60
1499893992957536,-15,-9,-17,42,-4,-9,-19,-57
1499893992957536,-4,9,31,-94,-4,-3,4,37
1499893992969535,-22,-2,-11,-13,0,-3,-2,-46
1499893992969535,12,-13,-44,-25,-5,3,2,4
1499893992978537,2,1,10,56,-1,-1,-5,-3
1499893992978537,-7,0,33,-20,1,-3,2,16
1499893992993542,5,-6,-28,51,1,-2,-5,-16
1499893992993542,-13,-5,4,-17,-1,0,-1,11
1499893992994539,14,0,-12,-11,-7,-3,-5,-23
1499893992994539,9,16,12,71,10,5,9,8
1499893993015540,-17,-10,-6,-59,1,0,0,19
1499893993015540,-13,-7,20,25,-8,-3,1,-12
1499893993031540,-2,-3,1,-26,4,1,4,11
1499893993031540,-10,4,-2,-10,1,0,-2,10
1499893993032540,28,8,7,42,5,2,2,52
1499893993032540,-5,2,-16,-96,3,2,-4,-5
1499893993038541,2,-13,3,90,-10,-7,-4,0
1499893993038541,-19,4,-9,-32,-3,1,1,-6
1499893993053541,-18,1,0,9,3,2,-2,3
1499893993053541,30,-7,7,60,2,-1,-4,45
1499893993054543,2,14,-9,-90,-1,2,6,-9
1499893993054543,-13,-6,-1,27,-1,-2,-4,-41
1499893993075543,4,2,11,13,-4,0,0,-2
1499893993075543,0,-7,-1,6,-4,-2,-2,12
1499893993077543,0,-3,-6,17,2,0,7,2
1499893993077543,7,-6,-11,-28,-7,-4,-3,11
1499893993098544,-12,25,56,41,8,4,1,10
1499893993098544,-6,-12,-24,1,-9,-5,-1,-33
1499893993099546,22,-4,0,-19,8,6,6,104
1499893993099546,-8,2,2,44,-3,-2,-4,-54
1499893993113545,4,-15,-15,-18,-4,-5,0,-3
1499893993113545,12,15,16,12,3,-2,-1,76
1499893993114545,-4,-11,8,5,-3,-2,-2,-9
1499893993114545,-5,2,-16,11,1,-2,-2,-12
1499893993135547,2,4,-4,-116,-8,-4,0,-7
1499893993135547,-3,0,4,45,1,1,1,-17
1499893993137546,23,-1,-13,-4,-3,1,-2,55
1499893993137546,-1,3,25,59,8,3,0,23
1499893993158548,-18,-13,-13,-71,-6,-4,-5,-61
1499893993158548,-3,-7,-18,0,-8,-3,-5,-53
1499893993160548,4,5,24,33,2,0,4,-8
1499893993160548,-6,4,-24,-19,0,-1,4,21
1499893993173548,-1,-7,-13,48,2,-1,-6,-9
1499893993173548,0,-3,-27,-25,-4,-5,0,39
1499893993174548,-12,7,0,-9,-2,1,-3,-46
1499893993174548,15,-7,21,8,2,3,0,-1
1499893993195552,4,2,-13,46,2,0,2,-14
1499893993195552,-9,-16,-7,-103,-6,-2,-2,-19
1499893993197550,-18,0,6,53,1,-6,-5,-30
1499893993197550,-12,-10,-33,-39,-11,-4,-2,13
1499893993218550,4,6,9,57,5,2,4,44
1499893993218550,1,8,13,10,-4,-2,-1,93
1499893993219551,-11,-11,-21,-47,-4,-3,-4,-38
1499893993219551,6,-4,-15,-29,-2,0,4,-1
1499893993233554,-5,4,6,20,-3,-1,-8,-5
1499893993233554,-2,4,11,79,10,3,6,4
1499893993234554,-3,-11,-22,-81,-7,-2,-5,1
1499893993234554,0,5,11,0,0,-2,4,45
1499893993256558,-3,-5,-10,21,-2,-4,-3,-63
1499893993256558,-14,4,-6,1,1,-2,-3,-47
1499893993257553,-2,5,12,50,4,0,-2,-20
1499893993257553,6,-10,-19,-20,-6,-3,-5,-24
1499893993278558,-11,-4,-9,-54,-5,2,1,48
1499893993278558,17,-6,-4,-14,1,-1,0,-17
1499893993279556,-29,3,-3,-24,-1,-7,-6,-3
1499893993279556,-10,-2,10,23,-5,-2,-4,-21
1499893993292557,16,8,11,30,4,-2,3,107
1499893993292557,-6,-3,8,42,-2,-2,-1,-41
1499893993299555,8,-3,-10,-54,-4,3,3,9
1499893993299555,21,9,26,-28,6,2,-1,38
1499893993315556,-9,-16,-33,10,-6,-2,-2,5
1499893993315556,-8,2,7,-28,-3,-2,-3,-73
1499893993317557,-11,-1,0,28,4,1,-2,-42
1499893993317557,-6,7,21,-8,3,1,-5,-6
1499893993338557,-3,2,7,-38,1,0,-2,-36
1499893993338557,-6,3,15,22,-3,0,2,45
1499893993339559,-2,2,-7,7,-6,-4,0,-38
1499893993339559,14,-12,-44,-6,-2,-4,-1,6
1499893993352558,-16,5,22,43,6,3,4,-100
1499893993352558,9,-5,-20,-26,-4,-1,0,43
1499893993359558,5,-3,4,4,1,-1,0,-17
1499893993359558,14,4,5,43,1,0,0,26
1499893993375560,-32,-1,-17,-62,-10,-3,-6,-28
1499893993375560,-6,-11,2,-4,-4,-4,-7,-63
1499893993377560,6,-1,20,47,-4,2,4,-1
1499893993377560,-4,-6,-19,-11,-5,-3,-3,-18
1499893993398561,-2,5,36,19,3,-1,-1,-10
1499893993398561,-1,-1,-36,-17,1,2,8,26
1499893993399562,3,2,-12,38,4,0,-10,5
1499893993399562,-22,5,0,-52,2,2,1,-20
1499893993412570,16,-13,-18,14,-11,-7,-3,43
1499893993412570,3,12,64,13,3,1,1,24
1499893993419562,20,-6,-42,-39,-4,-3,1,25
1499893993419562,1,0,-11,42,-1,-4,0,7
1499893993435564,5,-1,3,38,4,1,-1,13
1499893993435564,20,-1,12,-6,-5,-2,-3,43
1499893993437564,-16,-8,-14,-36,-12,-8,-1,-9
1499893993437564,-13,4,10,-19,1,4,3,15
1499893993458565,13,-3,-23,2,-1,-2,0,-8
1499893993458565,5,11,10,11,6,4,0,-3
1499893993459566,-24,-4,4,2,-1,0,-4,54
1499893993459566,1,-5,-8,-5,-5,-3,2,-11
1499893993472597,13,4,22,-2,6,4,5,18
1499893993472597,10,3,-12,2,6,3,-2,50
1499893993479568,-18,-4,-9,-4,-6,-1,0,-51
1499893993479568,13,0,-2,-17,-7,-1,-3,43
1499893993495568,-9,7,30,12,-2,-3,0,-16
1499893993495568,-2,-14,-40,-18,1,-4,1,-6
1499893993497568,3,3,6,35,4,2,3,-4
1499893993497568,-9,6,47,6,2,-4,-6,-20
1499893993518568,-13,0,10,-13,0,2,-1,-4
1499893993518568,-4,-16,-41,57,0,-5,-3,-4
1499893993519568,5,8,19,-61,-3,1,5,36
1499893993519568,-6,-1,-8,-24,5,4,0,-39
1499893993532568,-1,3,7,14,-3,-3,-3,7
1499893993532568,-19,0,17,29,-2,-3,0,-31
1499893993539571,7,-4,-7,17,6,3,-1,9
1499893993539571,21,2,2,-16,-3,1,3,91
1499893993555587,-12,-6,-19,0,-3,-5,-2,-22
1499893993555587,-10,2,-10,4,3,1,-5,-37
1499893993557574,-2,-1,13,-13,-6,-3,7,-36
1499893993557574,23,-2,-17,-2,-4,-3,-5,-20
1499893993577573,4,-4,-12,-41,0,0,-1,34
1499893993577573,2,3,6,-22,-9,-2,-2,-5
1499893993585574,-7,-1,17,15,7,1,-5,-1
1499893993585574,-8,-1,11,53,5,-1,2,-59
1499893993592574,-2,-9,-18,-3,-5,-2,-2,-8
1499893993592574,7,6,-21,-54,-9,-1,3,10
1499893993600572,18,-3,-30,18,-1,-1,-6,2
1499893993600572,-2,0,34,18,1,2,3,-21
1499893993614574,6,-4,-20,-10,3,2,-2,17
1499893993614574,-9,16,51,59,8,0,3,-7
1499893993623575,1,-15,-57,-59,-14,-7,-5,11
1499893993623575,-10,-8,3,-5,-3,-1,-3,-60
1499893993638578,2,0,-10,3,1,-1,-3,1
1499893993638578,1,2,10,-12,0,-1,-10,29
1499893993640576,17,4,38,13,4,2,4,13
1499893993640576,-19,-4,-17,5,-1,-3,1,-13
1499893993651575,-15,-6,-22,23,1,-2,-2,-3
1499893993651575,8,0,13,-76,-4,1,3,-4
1499893993660580,5,2,-10,5,2,-2,-6,43
1499893993660580,12,5,19,17,-3,-2,-6,31
1499893993675578,2,-11,-14,6,-5,-3,2,17
1499893993675578,-19,15,26,-63,1,3,0,-69
1499893993677578,-9,-11,-39,17,-2,-1,0,-7
1499893993677578,23,3,34,20,-4,-1,5,7
1499893993698580,-5,-3,-18,-2,0,-2,-3,4
1499893993698580,-3,-10,-12,30,-1,0,-1,11
1499893993699580,1,11,27,25,1,-1,1,0
1499893993699580,-9,1,-25,-10,-2,0,-1,-3
1499893993711582,6,0,15,4,-4,-2,-3,-5
1499893993711582,10,-12,-28,10,2,1,2,25
1499893993720579,-8,4,21,-3,-1,-1,-3,-17
1499893993720579,3,-4,-12,6,0,-1,7,60
1499893993735582,-5,1,-1,-27,-4,-5,-7,-31
1499893993735582,-12,1,6,14,-1,-1,0,-1
1499893993737582,-2,2,11,21,2,0,-2,-12
1499893993737582,-7,-7,-1,-2,0,-3,-2,-3
1499893993758590,29,8,9,-56,1,2,-4,22
1499893993758590,-21,-9,-54,44,-2,-1,0,-13
1499893993759593,5,1,31,-48,-5,-3,-2,3
1499893993759593,-13,-6,-13,13,-4,-3,-6,-40
1499893993772602,-2,-1,2,21,3,4,4,-16
1499893993772602,9,-7,-15,9,-3,-6,3,-22
1499893993780583,2,9,18,14,1,0,1,2
1499893993780583,9,5,-11,-74,-2,1,-2,25
1499893993795588,-21,-3,-18,6,0,-1,-2,-37
1499893993795588,3,-3,10,-32,-1,-4,-2,35
1499893993797585,-19,-4,-2,60,7,6,3,-6
1499893993797585,15,-6,-13,-58,-9,-8,-4,-35
1499893993818586,11,1,0,-18,-11,-6,-7,-27
1499893993818586,5,-2,15,32,1,-1,-3,-28
1499893993819586,19,5,7,23,5,-2,1,22
1499893993819586,-20,-8,-49,-35,0,0,-5,-26
1499893993831586,1,8,22,-13,1,-2,1,0
1499893993831586,6,1,-11,2,5,2,1,-16
1499893993841587,-6,-5,17,3,-8,-4,-5,7
1499893993841587,-3,1,8,14,3,2,-2,38
1499893993855603,-3,-6,-34,-5,-4,-3,2,-4
1499893993855603,10,3,22,-8,1,1,-2,-2
1499893993857588,2,-1,-15,-13,0,-2,-1,14
1499893993857588,-11,-2,3,59,6,1,1,0
1499893993879591,4,-1,10,-71,-10,-5,-1,53
1499893993879591,0,-8,1,-38,-8,-1,-1,62
1499893993880590,-13,5,1,12,0,-2,-4,-59
1499893993880590,6,-4,4,0,-2,-2,1,10
1499893993892591,-8,-1,12,53,6,1,1,-9
1499893993892591,-10,5,15,-8,-3,0,-1,5
1499893993900589,6,3,20,-31,-1,1,3,7
1499893993900589,0,-14,-61,-18,1,1,-3,-29
1499893993915592,-15,0,8,70,-4,-7,-2,12
1499893993915592,-7,4,15,19,-8,-7,-7,-3
1499893993917591,-14,-2,-14,-41,-3,-1,-2,0
1499893993917591,2,10,27,-1,3,1,-1,-24
1499893993938602,-9,-1,-13,-5,4,1,2,-14
1499893993938602,-2,-2,-4,14,1,-1,0,-10
1499893993939595,-17,-2,1,2,0,0,-4,-22
1499893993939595,21,8,40,46,5,0,1,18
1499893993951593,-6,-21,-45,-50,-13,-5,-1,3
1499893993951593,-40,3,-2,9,2,0,-2,-68
1499893993960593,39,0,-24,14,-1,-1,2,35
1499893993960593,-43,-4,-10,-16,-4,-5,-8,-42
1499893993975595,4,1,2,25,7,2,2,5
1499893993975595,1,-11,-30,-46,-6,-2,0,5
1499893993977595,0,-1,-2,6,-5,-2,-1,-6
1499893993977595,3,3,0,-1,0,0,0,23
1499893993998597,4,4,35,19,5,1,-2,-7
1499893993998597,-1,-7,-31,-20,1,1,1,1
1499893993999598,-4,-8,-41,12,-1,1,-7,13
1499893993999598,6,-5,11,-5,-11,-10,-2,11
1499893994011597,-2,1,-6,-8,0,2,0,6
1499893994011597,4,2,17,-39,-1,-2,-3,30
1499893994020597,10,3,2,-19,5,2,6,-2
1499893994020597,4,-7,-41,31,-5,0,-1,39
1499893994035598,0,-3,24,21,2,0,-1,-22
1499893994035598,17,-1,18,2,-1,-1,-2,0
1499893994037600,-19,-7,-7,32,-2,-4,-1,1
1499893994037600,5,2,-5,-23,0,1,1,21
1499893994058600,12,7,2,-30,-1,2,-2,-8
1499893994058600,6,7,-4,26,3,-1,1,-2
1499893994059600,-1,-3,30,-12,1,1,-2,-5
1499893994059600,1,-1,-22,7,0,-2,-3,23
1499893994080601,6,9,22,6,4,1,8,-5
1499893994080601,-2,-17,-25,36,-5,-4,-5,-43
1499893994082602,-30,-2,-35,-75,-6,-2,-4,-39
1499893994082602,1,-2,16,14,-2,-4,-4,30
1499893994095603,-6,3,14,23,5,1,-2,16
1499893994095603,-2,2,-18,4,-2,1,1,4
1499893994097602,5,11,56,-26,-2,-2,-2,-3
1499893994097602,-3,-6,-20,8,5,-1,2,-9
1499893994118604,2,5,-9,-21,-3,-2,-3,25
1499893994118604,-4,-15,9,8,-9,-4,-5,-18
1499893994119604,-7,-14,-39,-2,-4,-2,-1,9
1499893994119604,-3,6,8,-16,-2,-1,0,-32
1499893994140605,6,-1,2,64,-2,-1,-3,18
1499893994140605,5,10,26,-83,-2,0,-1,24
1499893994142605,15,5,-11,13,3,1,2,14
1499893994142605,-20,-7,1,-3,-2,-1,-2,-52
1499893994156613,-12,-13,-6,43,-1,-4,-7,-50
1499893994156613,5,-4,-9,-52,-6,0,0,15
1499893994157605,0,1,23,32,1,-1,-3,-13
1499893994157605,9,4,13,-21,0,-3,-3,38
1499893994178605,-15,-1,-3,9,0,2,-2,-4
1499893994178605,-5,2,4,27,3,-1,3,-12
1499893994179606,9,-3,-10,16,-6,-6,-4,19
1499893994179606,-12,1,6,-8,-1,3,5,30
1499893994200607,25,0,0,-36,2,-1,-3,5
1499893994200607,10,6,-1,32,1,-1,0,67
1499893994202607,-21,-4,-10,14,-5,-3,-3,-53
1499893994202607,9,2,13,-14,-6,-1,-2,-4
1499893994215610,-12,-9,-21,-14,-5,-3,1,2
1499893994215610,-2,6,34,10,5,3,3,-8
1499893994222616,7,-2,-32,31,3,1,0,24
1499893994222616,-1,3,24,-28,0,1,-3,-23
1499893994238614,-10,-5,-23,3,-3,-2,-1,-13
1499893994238614,-6,9,6,64,0,-1,-2,-13
1499893994239610,5,-13,7,-21,-1,-1,-1,9
1499893994239610,9,0,2,19,0,-1,3,-12
1499893994260612,13,4,11,-2,2,0,0,1
1499893994260612,-18,3,-11,-13,6,2,-5,-59
1499893994262615,14,1,21,-42,-9,-4,0,4
1499893994262615,8,-5,-22,-18,-2,0,1,25
1499893994275611,-6,2,5,-16,-1,-4,-1,-41
1499893994275611,-3,-11,-11,28,2,-1,-1,2
1499893994281613,-6,4,7,7,1,-2,-3,4
1499893994281613,-11,-2,9,43,-2,0,-3,-36
1499893994298613,12,2,-22,-37,0,-1,-2,12
1499893994298613,2,2,61,28,1,-1,3,26
1499893994299614,-8,-8,-47,-36,-4,-1,1,-13
1499893994299614,-5,-7,4,29,3,1,-5,-5
1499893994320615,-13,-1,-6,3,-5,-2,0,5
1499893994320615,2,1,-13,-9,-1,0,-2,-5
1499893994322626,21,6,14,35,6,6,3,77
1499893994322626,-17,-4,-9,-12,-3,-7,-10,-76
1499893994335617,10,1,2,15,-2,-1,-2,10
1499893994335617,12,3,-7,-91,-3,2,4,18
1499893994341617,-18,5,25,23,1,2,2,-15
1499893994341617,1,-4,-11,31,5,0,0,9
1499893994358616,-5,-2,4,-13,2,0,2,-6
1499893994358616,-1,-7,-20,8,-4,-8,-11,-41
1499893994359617,5,2,6,-37,-1,1,2,-1
1499893994359617,-10,-6,-23,5,-2,-1,-1,7
1499893994380619,-3,-2,-9,-3,-5,-2,-2,-7
1499893994380619,-1,5,3,-10,2,2,2,14
1499893994382619,-9,0,-20,22,-2,-4,-6,-16
1499893994382619,4,-5,-15,-41,-2,0,1,-4
1499893994395621,4,-6,13,-20,-3,-4,0,46
1499893994395621,-5,-7,-15,34,-3,-1,-1,4
1499893994401619,4,5,24,3,0,0,1,-15
1499893994401619,6,6,7,-26,-4,-3,-5,25
1499893994418620,-11,2,-2,60,4,6,1,-6
1499893994418620,5,-2,-5,-33,-1,0,-2,-1
1499893994419620,-10,2,11,5,-1,0,0,-10
1499893994419620,-7,-4,1,27,1,2,4,-4
1499893994440623,17,-9,8,-57,-9,-8,-3,13
1499893994440623,4,1,7,-33,-4,-1,0,4
1499893994442632,9,2,-4,-11,-1,-1,-2,-3
1499893994442632,0,7,3,15,3,2,4,0
1499893994456623,-15,1,-3,-10,-1,0,-2,-12
1499893994456623,-12,-4,-12,8,0,-3,-1,15
1499893994462629,10,-6,-17,13,1,-1,0,7
1499893994462629,-1,-1,-13,-15,-3,-4,-2,-12
1499893994478623,3,4,46,38,-1,-2,-1,18
1499893994478623,-7,-10,-30,-62,-7,-1,-1,-26
1499893994479624,-4,7,9,-3,8,6,1,-2
1499893994479624,7,5,21,-5,1,-2,-3,35
1499893994501624,5,-3,-19,-8,-1,0,6,26
1499893994501624,-11,-4,-14,71,1,-1,0,-28
1499893994502628,-1,-11,3,-46,-8,-8,-14,-17
1499893994502628,7,4,-4,-3,-4,1,-1,9
1499893994515628,-12,2,-1,-16,2,-2,0,-18
1499893994515628,5,2,13,41,2,0,-5,15
1499893994522633,5,-3,-2,2,-3,-3,4,5
1499893994522633,-35,0,-2,14,-2,-3,-3,-9
1499893994538627,-7,-6,-21,-10,-5,1,-2,-23
1499893994538627,9,2,5,-44,3,-1,1,43
1499893994539627,18,3,30,70,-4,-4,-5,-21
1499893994539627,-22,-22,-58,-56,-7,-3,2,0
1499893994560629,-29,-3,2,-22,-1,-1,0,0
1499893994560629,27,3,-20,16,2,1,1,29
1499893994562631,-4,1,31,12,0,1,3,18
1499893994562631,9,1,-20,4,2,2,1,-32
1499893994574629,9,-4,4,4,2,0,0,8
1499893994574629,-8,0,-9,37,3,-2,0,5
1499893994583629,-12,-4,1,-68,-13,-6,3,40
1499893994583629,13,4,14,27,2,2,-2,1
1499893994597630,5,-5,-18,-40,-4,0,-5,0
1499893994597630,18,9,32,62,4,0,10,46
1499893994605637,-24,-4,-10,4,-1,-4,-3,-48
1499893994605637,-3,2,15,-20,-1,-2,-1,8
1499893994620630,6,-4,-8,42,-4,-3,-3,1
1499893994620630,-1,3,27,-43,-2,3,0,-18
1499893994622643,-4,-1,-33,-13,0,0,-3,-8
1499893994622643,23,-2,12,105,1,-1,-1,59
1499893994634633,-27,-9,-20,-80,-3,-3,-3,-36
1499893994634633,-6,3,-7,7,-3,-2,-4,-27
1499893994643633,-2,-5,-10,-21,3,0,-1,-14
1499893994643633,2,9,40,27,1,0,-4,-1
1499893994665635,11,5,-18,-6,5,4,4,0
1499893994665635,-15,-8,-6,27,-8,-4,-3,10
1499893994667635,-6,8,6,-10,0,2,5,-25
1499893994667635,28,4,12,-8,-2,-4,-5,1
1499893994680636,-6,-9,28,53,2,0,1,-10
1499893994680636,-33,-10,-26,-74,-3,-5,-14,-36
1499893994682636,11,7,-2,18,1,1,1,2
1499893994682636,-12,-6,-13,-28,-2,-2,0,-11
1499893994694636,16,12,8,-9,-3,-1,-1,5
1499893994694636,-9,-8,0,44,2,0,-2,-5
1499893994703638,3,-14,-26,16,-4,-3,-2,24
1499893994703638,-1,1,7,-45,-2,3,3,22
1499893994718638,-19,3,3,-2,-2,-4,-4,7
1499893994718638,15,5,7,-3,6,2,1,1
1499893994719639,-3,-10,-32,5,-2,-1,-4,0
1499893994719639,-5,3,11,18,-6,-3,2,-12
1499893994740641,1,-4,-2,55,3,1,0,-3
1499893994740641,14,9,23,-16,-5,0,0,4
1499893994742640,-2,-3,-4,23,3,-1,-4,-18
1499893994742640,-5,-8,-47,-26,0,0,2,-14
1499893994754639,3,1,16,-12,-2,0,-1,2
1499893994754639,4,8,10,31,2,-1,0,-20
1499893994770640,-2,-7,14,-26,-1,0,-3,20
1499893994770640,-8,-6,-6,17,-2,-4,4,-17
1499893994778643,14,2,-8,-63,-4,0,-7,-2
1499893994778643,7,2,-7,-10,-4,-1,1,17
1499893994779640,5,10,-14,13,7,2,1,3
1499893994779640,-6,-15,11,-2,-5,-6,-4,-23
1499893994800642,-4,-7,-23,10,3,-2,2,4
1499893994800642,-8,-4,-7,41,-2,-1,-1,-44
1499893994802643,4,8,13,-67,-3,0,1,17
1499893994802643,-1,8,14,3,0,1,-4,1
1499893994814643,4,-2,-27,29,0,0,-1,1
1499893994814643,-12,-6,7,-79,-8,-5,-5,8
1499893994823645,-3,-11,-5,44,3,-1,3,0
1499893994823645,-12,3,5,-12,1,0,-1,-13
1499893994838652,13,10,23,4,-3,0,1,12
1499893994838652,-8,-9,-32,1,1,-2,0,3
1499893994839644,2,-9,1,48,-11,-6,-5,22
1499893994839644,9,-1,-25,-104,-9,-2,-2,14
1499893994860646,-7,5,27,6,1,1,1,-4
1499893994860646,-3,-4,15,59,0,0,-2,-9
1499893994862649,-4,-6,-28,6,0,-2,0,-8
1499893994862649,-1,-2,6,33,4,0,-2,0
1499893994883648,-1,4,-3,-34,-10,-7,-3,-8
1499893994883648,-5,-8,6,-18,0,1,2,-24
1499893994884648,25,8,15,9,4,6,6,32
1499893994884648,14,5,10,44,2,2,-2,7
1499893994897646,5,-6,-22,-52,-7,-4,4,6
1499893994897646,4,-1,13,30,5,-1,-6,31
1499893994905655,-2,4,-5,-11,-1,2,7,-7
1499893994905655,-6,4,7,7,5,1,-2,-7
1499893994920649,-2,-2,-7,-8,-6,-1,-2,22
1499893994920649,-2,-15,-20,-8,-3,0,2,33
1499893994922662,-9,2,3,-30,1,-3,-6,-17
1499893994922662,7,4,21,6,1,-2,1,-4
1499893994934650,-17,-7,-5,66,-1,-5,-5,-23
1499893994934650,-7,3,-2,-16,-5,0,0,0
1499893994943651,-5,-3,8,13,3,0,5,-9
1499893994943651,-1,-4,-11,8,-3,0,-6,3
1499893994958653,8,1,9,-17,1,0,0,33
1499893994958653,3,3,9,-45,-1,-3,0,-12
1499893994959651,-23,-9,-26,21,-13,-11,-7,-25
1499893994959651,-4,5,11,6,2,1,2,-7
1499893994980655,0,-5,-15,-9,5,6,2,1
1499893994980655,8,7,14,26,1,0,1,-1
1499893994982653,2,4,-4,-47,-2,1,-3,6
1499893994982653,-7,-7,-12,43,-3,-5,-2,-42
1499893995003656,-5,-1,16,-22,2,0,-1,-3
1499893995003656,16,5,-4,1,-7,-4,-3,-10
1499893995004656,28,1,18,7,1,-1,-2,6
1499893995004656,-25,-10,-12,1,-1,0,0,18
1499893995018657,7,6,8,-20,4,3,3,29
1499893995018657,-11,3,8,-6,-6,-3,1,-8
1499893995019655,-10,-1,10,29,3,-1,0,-34
1499893995019655,14,0,-8,-21,-2,-3,-6,-7
1499893995040656,-7,-1,-5,20,-1,0,-1,-9
1499893995040656,-3,-3,-8,-3,2,2,0,-2
1499893995042656,-3,7,29,1,-1,1,-2,5
1499893995042656,-18,-5,-24,-26,-1,2,0,-61
1499893995063661,-1,-2,17,83,2,1,-1,-6
1499893995063661,-3,-2,-1,-71,-4,-1,-2,-12
1499893995065659,-1,-8,-46,-25,-3,-3,-4,2
1499893995065659,-5,-1,19,5,0,-4,0,18
1499893995078658,5,-5,-16,1,-3,-2,-3,-13
1499893995078658,-12,4,5,35,5,2,-1,-8
1499893995079661,2,2,11,19,3,3,1,13
1499893995079661,9,3,0,-49,-5,0,1,23
1499893995100658,-26,-2,-1,8,2,0,0,-20
1499893995100658,18,1,-14,79,2,-4,1,40
1499893995102660,-10,1,14,-79,-6,-2,-1,-32
1499893995102660,-12,-3,-16,-10,1,-2,-3,-18
1499893995123661,15,-2,-8,-18,0,-2,-3,-20
1499893995123661,-5,-2,18,4,-1,-3,-3,25
1499893995124662,-3,-9,-23,41,0,1,0,-1
1499893995124662,-1,-1,-2,-32,-2,-1,2,18
1499893995138661,-2,-1,-2,21,-3,-5,-4,-15
1499893995138661,-10,0,5,-33,2,1,1,-11
1499893995139662,19,6,13,7,-2,-4,-1,13
1499893995139662,4,0,14,83,7,4,-4,9
1499893995160664,6,-10,-36,-96,-6,-3,5,9
1499893995160664,-7,0,5,-4,-5,-4,-5,-7
1499893995162673,-14,5,12,-40,0,-1,2,-20
1499893995162673,5,7,26,55,0,0,2,-2
1499893995183665,4,7,11,34,3,0,-3,-1
1499893995183665,-12,-13,-31,-46,-4,0,2,0
1499893995184666,-26,1,-4,0,1,-2,-8,-29
1499893995184666,19,3,13,19,3,-4,1,8
1499893995197664,16,4,8,-74,-6,-1,0,4
1499893995197664,-9,0,-2,12,-1,-1,-1,-10
1499893995204665,0,-3,-15,20,1,1,-1,23
1499893995204665,-14,0,-1,-14,-3,1,5,-35
1499893995220667,-4,-6,-2,-4,-2,-5,-9,9
1499893995220667,23,0,-18,47,-2,-4,-4,10
1499893995222677,10,5,2,4,3,2,3,11
1499893995222677,-2,-4,-3,-89,-12,-6,-2,3
1499893995243669,13,-1,2,57,5,5,2,-2
1499893995243669,-30,-12,-35,-77,-3,-1,-1,-16
1499893995244678,7,2,16,46,-2,-1,-4,26
1499893995244678,12,-1,-7,9,-1,0,1,28
1499893995257668,-6,9,0,-11,-1,-2,0,-14
1499893995257668,21,-12,-1,20,-2,-3,-2,-9
1499893995264670,-12,-7,-4,-4,-2,-2,-3,1
1499893995264670,-2,8,11,-22,2,3,7,15
