timestamp,emg1,emg2,emg3,emg4,emg5,emg6,emg7,emg8
1499894508935660,13,3,10,6,-2,3,-6,3
1499894508935660,-21,-8,-30,-30,-5,-1,0,23
1499894508950661,16,6,6,-28,4,1,4,-66
1499894508950661,-7,-1,-6,76,3,2,-3,26
1499894508951661,-5,-3,5,-17,-7,-9,-7,7
1499894508951661,2,6,2,17,3,0,-6,16
1499894508972662,8,-7,-17,-72,-10,-4,0,38
1499894508972662,14,0,13,23,2,-1,-3,22
1499894508980662,21,10,-4,54,7,-2,-12,-32
1499894508980662,-27,-7,3,-19,-5,4,0,-1
1499894508986665,16,-9,-8,-20,-3,2,-6,51
1499894508986665,-11,1,-26,-19,0,6,26,0
1499894508995664,15,4,32,46,6,-3,2,-11
1499894508995664,-16,7,17,-66,2,-6,-12,5
1499894509010679,-14,-1,-26,58,-6,-2,-3,-37
1499894509010679,-9,-8,11,-92,-10,-2,-13,19
1499894509012666,0,-3,1,38,11,2,11,80
1499894509012666,8,4,-14,2,2,-2,-2,-4
1499894509032669,3,-1,14,19,0,1,11,12
1499894509032669,-3,0,-6,-32,-7,-2,-8,-35
1499894509034666,-8,6,-4,-79,-3,-1,-7,-27
1499894509034666,41,-1,-11,-35,-3,6,12,36
1499894509046681,-30,-2,-12,34,13,3,4,-14
1499894509046681,-14,-11,0,95,-9,-10,-14,-5
1499894509055676,7,-4,-27,-111,-13,-2,-7,-42
1499894509055676,19,-6,17,-32,-9,-11,-3,-9
1499894509070668,-2,2,-5,29,0,1,-3,15
1499894509070668,-25,3,4,6,9,7,-2,-20
1499894509071674,-4,-6,23,101,0,-5,5,34
1499894509071674,-14,3,-30,-66,1,3,1,-17
1499894509092674,18,1,22,-32,-13,-1,1,-35
1499894509092674,2,-4,14,63,4,2,-9,71
1499894509094670,-17,-7,-35,-36,-10,-4,-6,-20
1499894509094670,-21,-5,14,30,3,1,33,8
1499894509106671,12,3,4,56,7,-1,-10,-36
1499894509106671,-2,4,-1,-95,-2,2,26,-15
1499894509115672,26,1,11,43,-8,0,-2,0
1499894509115672,-17,1,-8,-76,-6,-4,-10,-16
1499894509131672,-32,-5,-9,19,-3,-4,1,31
1499894509131672,17,6,13,19,5,2,-1,8
1499894509133672,3,2,8,42,6,1,5,-11
1499894509133672,2,-2,0,5,-4,-2,-10,3
1499894509152688,11,-5,-34,-59,-11,-10,-6,1
1499894509152688,1,-3,-3,-58,-2,1,-7,-6
1499894509154682,-10,4,19,8,3,3,4,-2
1499894509154682,20,-12,-31,21,-6,-6,-15,-34
1499894509166677,-7,0,21,73,3,1,9,0
1499894509166677,1,-7,-17,-49,-8,-3,2,-4
1499894509175675,-7,-2,-5,21,-4,-3,2,8
1499894509175675,7,0,0,15,-3,0,4,28
1499894509191676,14,5,7,21,-3,-3,-8,-2
1499894509191676,-1,-1,8,-19,-1,-2,-6,-51
1499894509192676,4,0,-1,-27,4,1,7,8
1499894509192676,-8,-1,-2,-40,-2,-1,-6,-6
1499894509212677,10,2,8,23,5,1,-1,59
1499894509212677,-36,-2,9,6,2,3,4,-5
1499894509214677,-7,-5,-16,16,-4,-6,-5,-36
1499894509214677,10,6,17,-28,-5,1,4,7
1499894509226677,5,-10,-22,-38,-10,-8,-2,25
1499894509226677,7,-13,-28,55,10,2,-4,43
1499894509235679,-6,-1,-6,-61,-15,-4,6,-6
1499894509235679,4,5,9,57,8,2,3,77
1499894509250693,-10,9,24,-42,5,1,2,-30
1499894509250693,1,-1,-13,36,1,0,-5,-23
1499894509251681,3,-6,-10,29,2,-3,-3,-2
1499894509251681,-16,-1,10,14,2,2,-1,-4
1499894509272681,8,-4,-6,-77,-4,-2,-2,7
1499894509272681,-19,9,37,108,5,-1,-1,2
1499894509274680,18,-8,-31,-24,-3,1,4,11
1499894509274680,-13,4,5,-34,-3,-1,-2,-71
1499894509286683,-9,-5,-15,3,-6,-1,-6,-9
1499894509286683,20,5,28,66,-2,-6,-5,31
1499894509295682,-7,-6,-8,-46,-3,-1,-2,7
1499894509295682,-21,-1,-5,78,6,-2,-7,-38
1499894509310696,13,3,1,-5,5,4,4,-19
1499894509310696,-5,-3,-10,-72,-10,-4,0,-23
1499894509312684,-3,1,4,50,8,3,-6,-23
1499894509312684,13,0,13,-63,-8,-2,0,56
1499894509332684,1,2,6,28,3,-1,-11,-65
1499894509332684,-6,-7,-8,15,-7,-6,4,2
1499894509334683,-12,4,10,-16,5,8,3,-28
1499894509334683,-17,1,17,13,7,-2,-8,-81
1499894509346698,27,3,-10,7,1,7,0,16
1499894509346698,0,-7,-14,-23,-4,-4,7,26
1499894509355686,0,4,-7,-3,0,0,0,-60
1499894509355686,-6,-3,-1,31,4,0,0,24
1499894509370714,15,-6,11,65,-9,-5,0,-49
1499894509370714,-7,2,-5,-88,-5,-1,-9,-73
1499894509371686,13,-2,-1,-10,-3,-7,3,118
1499894509371686,11,7,7,37,2,8,4,52
1499894509392686,-3,-15,-54,-62,-3,-4,0,37
1499894509392686,0,3,-8,20,5,5,2,33
1499894509400688,-5,-7,12,80,-6,-7,-4,-40
1499894509400688,20,5,3,-51,2,1,1,10
1499894509415689,-34,-5,7,52,-3,0,-3,-2
1499894509415689,17,1,13,-71,-11,-6,5,34
1499894509416691,-2,7,4,-13,6,7,9,57
1499894509416691,29,-5,-14,10,-1,-1,-2,-69
1499894509429692,-15,2,7,39,3,2,3,69
1499894509429692,-11,-6,1,-17,-1,0,-7,-2
1499894509436695,12,-2,4,-26,-2,0,-1,51
1499894509436695,-17,-5,1,50,1,-3,-10,-66
1499894509452704,4,8,13,-56,1,2,-2,4
1499894509452704,3,9,16,83,11,2,-6,-17
1499894509454695,-1,-14,-30,-107,-16,-8,-9,-11
1499894509454695,-31,-10,-7,-34,-6,-7,-6,12
1499894509475692,11,2,-1,49,10,5,1,-11
1499894509475692,-11,-3,-7,70,-7,0,1,-67
1499894509476694,-19,1,20,24,6,6,-3,-76
1499894509476694,14,-9,-34,-55,-13,-3,2,22
1499894509490693,4,6,29,17,0,-3,-4,-50
1499894509490693,-11,-4,-1,7,2,2,7,18
1499894509491694,-9,3,-5,1,4,1,-2,-37
1499894509491694,8,0,28,21,-6,-8,1,19
1499894509512695,-2,5,-9,3,6,7,6,19
1499894509512695,27,1,3,53,4,-1,-4,6
1499894509514696,15,-3,-14,-55,-19,-3,-1,11
1499894509514696,4,-2,14,30,4,-6,-17,-10
1499894509535695,-27,-17,-28,5,-11,-5,2,-18
1499894509535695,17,2,2,-23,-3,-2,4,50
1499894509536700,10,7,9,21,6,-2,-1,44
1499894509536700,-8,1,17,21,3,4,4,6
1499894509549708,15,4,-19,-34,-1,1,1,2
1499894509549708,-26,-2,6,21,3,-2,-10,-57
1499894509556696,-5,-6,-27,-25,-5,-4,1,10
1499894509556696,1,1,-16,-15,-6,-2,-3,39
1499894509572701,-12,-6,28,-1,6,-2,15,-12
1499894509572701,-1,-3,-16,-23,-12,-8,-1,5
1499894509574699,-4,3,11,-29,-2,1,1,-7
1499894509574699,-22,3,10,80,10,2,2,-3
1499894509595698,19,-7,-1,-31,-1,-3,-7,30
1499894509595698,-12,-11,-27,37,-10,-7,-3,-40
1499894509596699,-12,0,4,-20,7,0,1,-55
1499894509596699,-2,2,-9,27,-9,0,0,10
1499894509609699,3,1,-7,-23,2,2,-2,55
1499894509609699,3,-3,-26,-128,-8,-6,-12,-40
1499894509616700,4,-1,28,106,3,1,-3,1
1499894509616700,-21,-6,-22,-11,1,3,7,-4
1499894509632701,7,6,16,18,-3,-4,-5,-38
1499894509632701,3,3,-8,-11,6,3,9,85
1499894509634703,-6,-1,1,-8,-4,0,-3,60
1499894509634703,16,-4,-31,7,2,0,-1,0
1499894509662705,-20,7,24,-38,2,-2,-1,-5
1499894509662705,-9,-1,1,-44,-2,1,-1,58
1499894509664703,15,0,-2,46,-2,1,-4,16
1499894509664703,2,0,16,-34,-7,-5,0,36
1499894509669702,-7,-3,-5,29,-4,-2,-4,14
1499894509669702,1,2,-3,53,6,2,-2,-82
1499894509676706,-8,-11,-22,-44,-6,-3,-1,-22
1499894509676706,-2,4,19,-2,-3,1,0,-20
1499894509692704,3,-2,-17,-25,-6,-3,0,-7
1499894509692704,5,4,31,-20,0,2,-1,0
1499894509694705,-10,5,6,-10,4,4,7,31
1499894509694705,6,-10,-25,32,-4,-6,1,-10
1499894509715708,-1,7,31,26,4,0,-5,-15
1499894509715708,14,-12,-30,-14,-5,-3,-4,38
1499894509716708,-22,6,29,46,6,0,0,-82
1499894509716708,8,-2,-27,-33,1,4,-5,-1
1499894509729706,8,1,11,-31,-12,-3,10,50
1499894509729706,-5,7,3,10,11,6,1,-31
1499894509736708,21,6,16,-42,-3,-3,2,48
1499894509736708,-46,-18,-27,18,-11,-8,-8,-21
1499894509752708,-4,6,18,32,7,2,-4,-45
1499894509752708,22,-6,-2,6,-7,-5,-1,12
1499894509754707,-3,2,3,68,13,6,3,17
1499894509754707,13,6,22,-84,-5,0,3,-22
1499894509775711,7,-1,-11,0,-7,-6,-3,2
1499894509775711,-26,2,15,24,8,3,1,0
1499894509776709,2,-4,-5,54,0,-1,-6,-14
1499894509776709,-6,-5,-1,-50,-4,1,1,9
1499894509789708,15,-3,-12,43,-1,-2,-3,75
1499894509789708,14,9,7,10,1,0,0,-23
1499894509796723,-12,-6,2,8,-11,-5,0,8
1499894509796723,-6,1,-15,-5,11,3,2,5
1499894509812714,-17,0,8,6,-3,2,-2,4
1499894509812714,10,-4,-14,5,-1,-1,1,-4
1499894509814711,3,-1,-14,-63,-5,-6,-5,-18
1499894509814711,-2,9,12,49,8,6,2,-15
1499894509835713,9,-5,-1,-17,2,1,-1,-36
1499894509835713,-7,-1,5,-23,-3,1,-1,16
1499894509836713,7,-5,-17,-40,-7,-4,-2,-26
1499894509836713,3,-4,8,36,1,-2,-5,6
1499894509849715,-11,3,-1,-10,3,1,7,-42
1499894509849715,6,-3,-8,-80,-13,-3,-3,-14
1499894509856717,-4,0,5,55,5,-2,-6,-54
1499894509856717,-8,1,2,-63,-9,-1,2,-23
1499894509872715,7,-5,4,17,-3,-3,-6,-10
1499894509872715,-10,1,-2,14,5,-3,-2,6
1499894509874718,-4,-2,-10,-16,1,-1,2,21
1499894509874718,10,-3,-4,-2,-7,0,2,23
1499894509902729,5,1,6,50,6,-3,-7,-74
1499894509902729,-1,-13,-27,-59,-9,-4,-9,-46
1499894509904716,1,9,6,31,6,1,-1,5
1499894509904716,-6,-5,-5,10,-1,-3,2,-11
1499894509908717,-6,-2,-14,4,0,1,-1,-6
1499894509908717,-12,0,19,60,-6,-7,-2,-1
1499894509917722,12,-7,-12,-47,-4,-1,-11,-85
1499894509917722,2,8,12,1,4,2,-5,6
1499894509940719,3,-11,-10,64,0,-2,1,31
1499894509940719,2,0,-1,-91,-7,0,0,61
1499894509941718,5,-7,-11,11,-1,4,3,49
1499894509941718,2,2,4,50,2,-2,2,21
1499894509955720,3,0,2,-31,-1,0,-5,-14
1499894509955720,-5,5,11,38,4,0,-1,-3
1499894509956724,27,2,6,-8,1,0,7,40
1499894509956724,-12,-7,-22,0,-6,-5,-6,-21
1499894509968733,-9,-2,-12,-70,-3,-6,0,1
1499894509968733,-7,0,6,29,2,3,-1,-55
1499894509977720,1,6,5,-4,2,3,-1,26
1499894509977720,-16,-1,-7,30,3,-1,3,-10
1499894509992723,-15,-1,11,-66,-7,1,1,-30
1499894509992723,-4,-3,-7,22,4,-2,1,7
1499894509994724,16,-4,-1,-3,-5,-2,12,30
1499894509994724,5,0,2,0,1,2,-2,-10
1499894510015724,13,3,0,4,3,-2,-3,42
1499894510015724,-21,3,7,42,6,2,-1,-22
1499894510016722,-10,-7,-7,-55,-17,-10,-6,-3
1499894510016722,2,-4,3,-9,0,0,2,20
1499894510028723,-16,-2,-5,-24,-1,0,-1,-83
1499894510028723,21,3,5,39,3,-1,1,6
1499894510038727,-19,0,2,-1,-1,-3,-4,-3
1499894510038727,14,1,7,21,4,8,6,13
1499894510052740,4,-8,-25,-63,-17,-6,-7,58
1499894510052740,2,4,6,-13,5,-1,2,0
1499894510054728,-1,0,8,33,0,-6,-5,61
1499894510054728,-22,-10,8,30,-5,-3,-9,-104
1499894510075728,-12,-1,4,24,5,2,10,34
1499894510075728,23,3,1,-32,-1,3,6,92
1499894510076725,-21,4,-5,-22,1,0,-2,-10
1499894510076725,-3,2,18,12,1,0,-1,-15
1499894510088728,-9,-10,-30,10,-1,-2,-4,3
1499894510088728,-12,-4,-4,23,-7,-6,-6,-14
1499894510097727,0,1,12,7,1,3,3,-11
1499894510097727,1,-3,-20,-78,-1,0,2,-6
1499894510112731,-1,4,26,81,1,-1,-2,-41
1499894510112731,12,-3,4,-22,-1,0,0,-7
1499894510114729,-1,-1,-12,31,0,-2,-5,22
1499894510114729,0,4,10,-49,-2,-3,1,14
1499894510135731,1,-2,-25,36,0,3,0,-14
1499894510135731,-6,-3,11,-2,-1,-2,-3,2
1499894510136731,8,-2,-5,7,-1,0,-4,-16
1499894510136731,-16,-5,-10,-59,-7,-8,-1,28
1499894510148744,26,7,8,25,4,6,2,47
1499894510148744,3,0,-16,-31,-4,3,-1,52
1499894510157739,-28,-13,0,31,-4,-5,-6,-22
1499894510157739,-20,4,12,50,6,2,-2,-39
1499894510172732,-4,-4,-4,-24,-2,-4,0,3
1499894510172732,2,4,7,3,0,-1,3,0
1499894510174734,10,-1,-7,-4,-4,-1,-4,-53
1499894510174734,26,0,-6,1,-6,-6,-3,42
1499894510195747,-24,2,14,34,7,8,4,-32
1499894510195747,-4,0,-3,-36,-2,-2,-5,20
1499894510196732,5,-12,-49,-57,-8,-5,-4,-41
1499894510196732,11,-3,-2,16,0,-4,2,20
1499894510208747,1,3,1,-12,-3,-5,-6,-56
1499894510208747,8,5,8,-35,-2,1,-5,30
1499894510217734,-10,-3,5,68,7,3,-2,-1
1499894510217734,-13,-1,-2,-9,-3,-2,-1,-13
1499894510232735,23,2,6,-14,-5,-7,-2,57
1499894510232735,-9,-3,-4,13,1,-1,-4,-26
1499894510234736,5,5,15,7,-1,7,3,7
1499894510234736,8,-9,-44,8,-5,-4,-2,35
1499894510255737,-2,-1,-3,-97,-4,-2,-3,-25
1499894510255737,-1,-2,-8,22,0,1,4,-4
1499894510256742,1,5,11,-31,-2,-1,3,6
1499894510256742,7,6,26,34,4,4,2,14
1499894510268751,-4,-9,-19,-1,-4,-5,-6,17
1499894510268751,2,-3,-1,58,2,0,-1,-5
1499894510277737,0,2,5,-28,5,2,3,4
1499894510277737,-4,-5,-6,-35,-9,-6,-8,43
1499894510292741,-13,3,-2,17,3,3,2,-1
1499894510292741,-3,-10,10,21,-16,-11,-4,-63
1499894510294740,-2,-5,-18,-11,3,-2,-1,13
1499894510294740,0,-2,-9,2,0,2,-4,-13
1499894510314742,22,7,17,2,3,4,2,7
1499894510314742,6,4,-2,-23,2,6,4,41
1499894510321742,-27,-7,-6,-2,-8,-4,-5,-29
1499894510321742,20,8,9,-18,4,2,7,1
1499894510337747,-3,0,15,7,2,1,2,32
1499894510337747,3,2,2,63,8,1,0,-21
1499894510339742,4,9,13,-70,-6,0,2,-3
1499894510339742,-2,-7,-15,-30,-1,-2,-3,4
1499894510352757,-11,0,7,26,0,0,-6,-55
1499894510352757,-14,-7,-17,-26,-4,0,0,1
1499894510354742,-6,-2,-4,39,-1,-1,-2,-65
1499894510354742,3,3,13,-1,2,-3,0,12
1499894510375745,11,0,-3,20,-4,-3,3,53
1499894510375745,-10,-3,-19,-86,1,0,-6,-32
1499894510376743,7,-3,1,73,-8,-5,-4,21
1499894510376743,3,2,21,1,0,2,1,26
1499894510397759,-8,-7,-39,-37,-4,0,-2,-8
1499894510397759,0,-5,-2,39,0,-3,-1,10
1499894510399747,-8,6,17,-25,8,5,2,21
1499894510399747,-3,-4,-16,0,-11,-4,-1,19
1499894510413755,14,-11,-5,12,-3,-4,-3,43
1499894510413755,-21,6,7,-1,0,0,1,-27
1499894510414755,-4,-4,-7,2,3,0,1,2
1499894510414755,2,4,0,-32,5,3,-1,-17
1499894510435749,0,0,18,34,-8,-3,-1,9
1499894510435749,5,-13,-29,10,-10,-8,-2,-47
1499894510436747,15,-4,-2,-14,0,-3,-7,35
1499894510436747,-8,3,13,38,4,2,16,35
1499894510457749,-3,7,9,-32,3,3,-1,-28
1499894510457749,-2,-4,-5,-4,-2,-1,0,5
1499894510459748,2,-2,0,37,2,0,0,8
1499894510459748,6,1,3,-38,-5,-4,-6,-25
1499894510472748,-22,0,3,-98,-2,-1,2,17
1499894510472748,-14,-7,-15,90,-5,-2,4,20
1499894510478752,-6,1,1,-29,0,2,3,27
1499894510478752,-13,-6,-5,12,-1,-3,-7,-69
1499894510495765,-5,0,0,31,0,-6,-4,-11
1499894510495765,12,4,15,-32,2,5,-2,11
1499894510496750,-17,3,-4,26,0,-3,-4,-61
1499894510496750,0,-3,1,-11,-2,2,-1,-10
1499894510517765,4,-5,-3,26,-9,-3,-3,17
1499894510517765,-4,1,-10,-54,-1,-4,-1,12
1499894510519754,9,2,8,32,1,-2,-3,-39
1499894510519754,-11,-7,-11,32,-2,-4,-9,-14
1499894510532752,-19,-6,-4,-11,3,3,-4,12
1499894510532752,29,1,9,-14,4,1,0,53
1499894510538755,2,0,-9,-81,-1,-1,-2,31
1499894510538755,-4,3,18,80,-6,-7,-6,5
1499894510555754,13,-3,-20,-20,-2,-3,0,-5
1499894510555754,-8,2,7,43,4,2,2,42
1499894510556759,3,-2,17,-51,4,3,3,7
1499894510556759,0,-7,-28,-25,-4,-1,0,-43
1499894510578758,-15,2,1,-60,-12,-4,-1,1
1499894510578758,7,6,19,-26,1,-3,-3,10
1499894510579755,18,-8,-16,34,-7,-5,-1,12
1499894510579755,-7,0,-2,7,1,-3,1,56
1499894510592756,8,2,0,18,4,5,2,39
1499894510592756,-11,0,4,-21,-2,-2,-5,-38
1499894510598756,-9,1,6,23,-1,3,6,5
1499894510598756,12,4,23,-39,-5,-3,-5,16
1499894510615758,-5,-12,-25,20,5,1,-4,6
1499894510615758,34,4,-4,-12,0,3,3,5
1499894510616756,-26,-2,-4,11,4,-1,-2,20
1499894510616756,7,3,13,-40,-3,0,4,2
1499894510637774,6,-4,-1,20,-2,-5,-1,-20
1499894510637774,-8,-2,4,32,-3,-3,-5,-42
1499894510639758,4,-1,-8,-39,-1,3,1,-23
1499894510639758,2,3,2,1,2,1,1,54
1499894510652759,8,3,4,28,5,1,0,-25
1499894510652759,-13,-4,-4,-50,-3,-2,0,-17
1499894510658759,2,-1,4,31,-3,-6,-2,-7
1499894510658759,-18,-6,-17,-24,2,5,-1,-59
1499894510675761,-3,4,15,31,4,1,2,-19
1499894510675761,-12,3,-6,13,2,-2,-1,-1
1499894510676761,6,-11,-2,-20,-9,-2,-1,71
1499894510676761,6,-1,1,83,7,0,-4,-27
1499894510697775,1,2,0,-72,-1,0,16,-9
1499894510697775,-28,-14,-23,34,-17,-8,-7,-20
1499894510699763,4,8,15,-17,0,-1,-6,-15
1499894510699763,2,-2,-10,10,2,1,2,3
1499894510711777,1,1,8,19,6,-1,-4,-50
1499894510711777,3,1,8,19,-1,-1,0,26
1499894510720765,1,-2,-10,-7,-9,-9,2,17
1499894510720765,-4,4,8,9,6,6,-1,-77
1499894510735782,-4,-6,-18,35,-2,-2,-5,-6
1499894510735782,7,-6,5,-25,1,-1,-2,-22
1499894510736771,-3,0,-5,-20,-5,0,-2,-14
1499894510736771,9,4,12,-50,1,0,2,43
1499894510757766,4,4,14,-35,-3,-1,-1,0
1499894510757766,-12,-6,-28,43,3,-3,-6,-54
1499894510759766,-17,-4,-11,22,-3,2,0,5
1499894510759766,2,-1,-3,-1,-1,1,8,4
1499894510772765,-3,3,11,18,-1,-1,9,1
1499894510772765,-4,2,2,-30,2,2,1,20
1499894510778767,-3,1,9,24,5,1,0,-25
1499894510778767,-9,-2,-18,30,-1,0,1,-11
1499894510795783,-7,-7,-3,-3,-10,-5,-9,30
1499894510795783,4,4,11,-7,-1,-2,0,-19
1499894510796769,5,7,-3,-85,-3,1,0,-24
1499894510796769,-2,-11,-14,39,-3,-6,-6,12
1499894510817785,-3,1,4,-3,4,2,-5,15
1499894510817785,16,-4,-7,-11,1,1,3,31
1499894510819771,6,2,1,57,4,0,-2,9
1499894510819771,1,4,13,11,0,-3,-1,73
1499894510831770,-3,3,3,-78,3,3,0,-24
1499894510831770,-12,-8,-34,61,-16,-9,-3,-3
1499894510840770,-11,0,5,-3,5,-1,1,-36
1499894510840770,14,-1,2,-16,-2,-6,-2,10
1499894510855773,-4,-1,-1,14,4,8,-2,9
1499894510855773,15,7,11,18,6,4,5,6
1499894510856778,8,-4,-10,-85,-4,0,2,47
1499894510856778,-3,-2,8,40,-1,-1,-2,-31
1499894510877774,-10,-6,18,9,-13,-11,-18,-58
1499894510877774,-1,-4,-14,-72,-11,-2,-4,-24
1499894510879775,7,-1,1,58,2,-2,-2,21
1499894510879775,-4,1,-6,-47,0,0,-2,-11
1499894510891774,2,6,13,54,7,1,1,20
1499894510891774,-13,-5,3,0,1,-1,-2,2
1499894510900778,6,-4,-10,-24,-1,-1,-4,-41
1499894510900778,24,5,7,27,-7,-1,-2,17
1499894510915778,-30,-4,-4,11,1,-1,4,10
1499894510915778,-4,-3,19,2,5,0,1,4
1499894510916775,0,-2,-11,-41,-8,-1,-2,16
1499894510916775,-1,-5,-10,11,-2,0,-2,-6
1499894510937777,14,0,-26,4,-2,-4,0,19
1499894510937777,1,8,26,15,7,4,1,-3
1499894510939777,-1,-9,-6,-2,-3,-1,-1,42
1499894510939777,-10,3,0,-11,0,1,-1,-18
1499894510951791,2,-9,-13,16,-6,-6,-2,-4
1499894510951791,-15,4,2,-15,3,3,2,13
1499894510960779,-4,-1,9,-5,-7,-3,-4,-94
1499894510960779,5,5,1,32,2,2,2,16
1499894510975779,-13,-8,-28,-30,-6,-7,-9,-10
1499894510975779,-1,-1,7,-6,1,1,-2,11
1499894510976780,-4,-1,-10,28,-1,-6,1,13
1499894510976780,-16,-6,9,-7,3,0,-8,-31
1499894510997793,5,6,11,9,1,4,5,-12
1499894510997793,16,-4,-5,5,-1,-1,-1,11
1499894510999781,-7,1,9,35,2,-4,-4,-9
1499894510999781,-17,-5,-8,-77,-15,-6,-2,19
1499894511011795,29,2,2,12,5,3,2,-2
1499894511011795,-7,-2,-4,31,0,-2,-3,-5
1499894511020784,5,2,12,26,3,2,2,-26
1499894511020784,-4,-3,-19,-14,-2,0,-2,5
1499894511035782,0,0,11,-44,-4,-1,0,16
1499894511035782,0,0,1,15,0,-4,-5,-15
1499894511036782,-4,-2,-11,36,3,4,13,35
1499894511036782,-8,-8,-4,-3,-1,-5,-2,-6
1499894511057794,2,4,1,-44,-9,-2,-3,20
1499894511057794,5,0,16,8,2,3,5,29
1499894511059783,-1,-5,-16,-12,-4,-6,-6,53
1499894511059783,-3,-6,0,-10,-1,-2,-2,-23
1499894511071784,7,2,5,19,7,3,9,-7
1499894511071784,9,6,0,19,0,-2,-4,-49
1499894511080784,-12,6,15,-19,0,2,-3,-16
1499894511080784,-7,-3,-14,-24,-6,-2,0,-48
1499894511095799,-3,-12,-18,-21,-6,-6,-6,-3
1499894511095799,0,-3,-8,9,-7,-5,-2,7
1499894511096788,-4,-1,-13,8,1,4,-1,-18
1499894511096788,10,3,9,9,4,1,4,-6
1499894511117788,0,-1,-9,-17,-3,0,0,17
1499894511117788,0,-3,-11,-38,-2,-4,0,0
1499894511119787,2,-6,1,28,0,1,-1,10
1499894511119787,-7,-4,-6,-54,-10,-2,2,49
1499894511131790,19,6,17,75,2,-6,-4,-25
1499894511131790,-3,0,-1,-46,-2,5,2,12
1499894511140664,1,0,-2,33,4,-2,0,16
1499894511140664,9,-3,3,-52,0,0,-2,55
1499894511155668,-10,3,1,53,-2,-4,0,-28
1499894511155668,2,0,-6,-2,0,-2,-5,-26
1499894511157668,-2,-5,-5,-17,-2,0,-10,2
1499894511157668,13,-1,4,23,-1,-1,3,-10
1499894511177665,-9,1,-20,-17,2,3,0,-16
1499894511177665,-11,-4,5,-24,3,1,4,26
1499894511179665,-14,2,3,26,-2,-2,-3,-29
1499894511179665,3,-3,-13,50,-1,-7,-3,-12
1499894511191678,-4,-6,8,-12,-2,-1,-2,8
1499894511191678,1,0,-5,-58,-2,0,-1,-13
1499894511200667,-5,0,13,16,-1,0,5,51
1499894511200667,-6,3,-2,-4,-1,-1,-5,-7
1499894511214670,4,2,2,3,5,2,3,21
1499894511214670,-14,-9,-4,49,-6,-6,-6,-5
1499894511221671,8,2,1,-23,0,-3,-1,3
1499894511221671,-2,0,2,-22,-4,-5,-5,-31
1499894511237672,-6,1,5,-4,3,4,1,16
1499894511237672,8,1,6,3,-2,0,1,39
1499894511239670,-18,-6,-19,4,-6,-5,-5,-55
1499894511239670,-19,-1,0,11,4,1,-1,-26
1499894511251685,11,0,1,-12,3,1,0,-6
1499894511251685,-3,4,8,51,0,2,0,0
1499894511260671,18,-1,-3,-63,-5,-6,5,5
1499894511260671,-2,-2,-5,25,1,4,-2,40
1499894511275672,2,1,3,12,5,5,3,-20
1499894511275672,17,-3,-11,0,-5,-2,-2,36
1499894511276673,0,4,17,6,8,4,0,-18
1499894511276673,-6,-5,-7,10,1,-4,-4,21
1499894511297686,3,3,2,-9,-3,-4,-1,7
1499894511297686,17,-9,-23,-3,-2,-1,-1,50
1499894511299673,20,0,4,-23,-6,-4,-1,40
1499894511299673,-22,1,4,45,2,-1,-3,-79
1499894511320689,-5,-2,2,10,0,-4,-2,-12
1499894511320689,-15,0,-14,-12,1,0,-2,-32
1499894511321674,-2,-2,-5,-43,-6,0,-3,-2
1499894511321674,10,2,1,-25,2,1,-1,1
1499894511335690,3,-5,-4,38,-7,-3,-2,61
1499894511335690,-22,2,18,46,3,-4,-1,-33
1499894511337675,-2,-1,4,-67,-9,4,-4,4
1499894511337675,16,0,-8,29,3,2,13,-6
1499894511357681,-12,-5,-2,-7,-1,-2,-3,-9
1499894511357681,12,4,3,1,4,-3,-6,-1
1499894511359676,-8,-1,-2,20,4,3,3,-13
1499894511359676,4,6,17,-26,-7,-2,-6,10
1499894511380680,-27,-15,-21,-32,-11,-7,-3,-23
1499894511380680,-5,3,14,-15,2,1,4,-69
1499894511381679,11,0,-8,42,6,1,-2,27
1499894511381679,-4,-2,-11,1,-3,-4,-3,0
1499894511402694,15,2,6,-2,1,1,-2,13
1499894511402694,-4,-1,-3,-6,2,2,2,4
1499894511404681,3,-1,2,-35,-3,-1,-1,0
1499894511404681,1,-5,-6,33,0,2,1,31
1499894511417694,-5,-9,1,65,2,-9,-14,-68
1499894511417694,9,6,4,-70,-3,0,3,1
1499894511419686,-2,0,8,26,-2,-1,1,-15
1499894511419686,2,2,1,-23,-1,-3,-1,-2
1499894511440682,-5,-4,-13,-27,3,4,2,22
1499894511440682,1,-1,3,54,-1,-2,-1,20
1499894511441685,-3,-2,-3,-8,0,-3,-1,-17
1499894511441685,5,1,8,-2,3,0,-8,12
1499894511454686,-2,1,-1,-6,-2,-1,6,16
1499894511454686,1,-1,5,-26,-3,1,4,1
1499894511461684,6,-4,-18,5,-3,-3,-2,-2
1499894511461684,-3,3,13,67,7,3,0,9
1499894511477684,7,4,2,-98,-4,5,2,7
1499894511477684,-9,-7,-7,3,-5,-5,-7,-27
1499894511479685,10,5,19,29,3,-5,-7,-19
1499894511479685,-1,-10,-13,-21,-6,-2,0,-15
1499894511500697,6,6,10,10,3,2,10,32
1499894511500697,-4,-2,-8,-15,-1,-2,-4,-34
1499894511501685,-3,0,8,28,2,2,-6,-8
1499894511501685,-3,-3,-5,-51,-4,0,-3,9
1499894511514688,8,2,8,42,-7,-3,1,5
1499894511514688,-6,-7,-8,26,-1,-1,-5,17
1499894511521686,-20,-6,-18,-52,1,1,4,1
1499894511521686,13,7,6,19,2,2,4,44
1499894511537696,-4,-8,-9,-23,-6,-4,-7,-48
1499894511537696,1,2,-1,4,0,1,7,12
1499894511539693,-4,1,-3,10,4,1,-1,-8
1499894511539693,-7,-2,1,15,-3,-4,2,3
1499894511560702,7,5,-3,-78,-4,5,-3,17
1499894511560702,-18,-11,-20,47,-5,-1,-1,29
1499894511561689,4,1,2,65,2,3,2,-32
1499894511561689,1,1,-1,-104,-3,1,-7,-14
1499894511574690,-3,0,-4,45,1,-4,5,2
1499894511574690,1,1,4,-15,-1,-1,-1,-3
1499894511581688,-7,-1,3,-23,-6,-8,0,28
1499894511581688,21,-4,-9,24,6,6,-2,17
1499894511597690,-6,-1,-2,12,-3,-2,-3,-8
1499894511597690,2,3,8,-38,-1,-1,3,12
1499894511599691,-1,-1,-2,1,-2,-4,-2,-24
1499894511599691,6,-2,-9,7,-2,-3,-3,3
1499894511620729,-10,-2,-7,-7,1,2,0,11
1499894511620729,-3,-1,-4,4,0,-2,-4,-61
1499894511621692,12,1,4,-1,0,2,-2,67
1499894511621692,-5,-1,-22,-52,-8,-4,1,-11
1499894511634693,-5,-3,2,31,0,-2,-6,-23
1499894511634693,-8,-1,-5,-36,0,0,-4,-28
1499894511641695,-3,3,2,31,-1,1,1,-9
1499894511641695,-11,-4,5,-24,-6,-2,-7,-7
1499894511657697,-13,-2,1,-16,-2,2,0,12
1499894511657697,26,4,9,49,4,-1,-1,23
1499894511659695,-4,-6,-16,-56,-5,-3,-1,-2
1499894511659695,-7,7,18,21,2,-2,2,-12
1499894511680696,5,-6,-6,24,-6,-5,-4,24
1499894511680696,-14,-7,-6,-3,1,2,0,-29
1499894511681695,8,-2,-10,7,2,3,0,-11
1499894511681695,-4,1,-1,-65,0,1,3,14
1499894511694696,5,-4,-8,65,-4,-6,-3,-13
1499894511694696,-8,2,-2,4,1,-1,-1,16
1499894511702710,1,1,8,34,-1,-2,0,66
1499894511702710,-6,-3,-4,-62,-6,0,2,-6
1499894511717710,8,1,-4,-15,3,1,-1,7
1499894511717710,-2,-2,1,-27,-4,-2,-3,12
1499894511719700,-3,2,12,26,-1,1,5,-19
1499894511719700,-4,-4,-16,44,1,-1,0,-20
1499894511740700,0,2,5,-16,0,0,-10,-16
1499894511740700,0,-4,2,3,-4,-3,-1,-3
1499894511741698,-3,4,2,-28,6,6,4,-12
1499894511741698,-12,-12,-15,54,-5,-8,-4,-7
1499894511754719,11,0,9,-16,2,0,-1,-15
1499894511754719,-8,4,6,-11,-8,-4,1,43
1499894511761714,1,-8,-9,15,1,2,-2,-14
1499894511761714,-5,-3,-8,-2,-2,-3,-6,-9
1499894511777705,-6,-1,-12,-21,-1,-2,13,25
1499894511777705,2,5,10,41,0,0,-6,-3
1499894511779703,-3,-4,-11,-61,-11,0,3,0
1499894511779703,3,0,5,12,4,-1,-1,-2
1499894511800716,0,1,11,35,3,-2,-1,9
1499894511800716,6,-2,-18,-33,0,2,-1,-1
1499894511801704,-11,-3,-8,-8,-11,-5,-5,-21
1499894511801704,13,3,8,4,-1,0,0,-3
1499894511813704,-11,0,4,13,-1,-5,-5,0
1499894511813704,5,-3,-10,5,0,0,3,42
1499894511822707,9,2,16,42,0,-3,-4,-28
1499894511822707,0,-3,-2,-35,-3,0,-6,11
1499894511837705,-7,4,2,-30,-1,3,7,-7
1499894511837705,9,-8,-6,11,-4,-3,-7,-9
1499894511839713,-3,3,8,13,6,-1,-4,8
1499894511839713,-5,-2,17,-9,4,5,5,-16
1499894511860719,-1,-1,-16,39,-2,-5,-8,-64
1499894511860719,6,2,6,-45,-3,-2,0,-11
1499894511861708,6,1,-7,-5,2,2,1,23
1499894511861708,-31,10,23,59,6,2,6,-27
1499894511873707,6,-10,-25,-52,-10,-4,-3,91
1499894511873707,-2,2,8,9,2,-2,0,-31
1499894511882709,-20,-5,-6,5,-4,-6,-4,-18
1499894511882709,14,3,4,8,0,2,4,-6
1499894511897721,-9,-4,1,3,-1,2,11,1
1499894511897721,6,3,3,25,1,1,0,29
1499894511899708,-11,-2,0,-47,-3,-10,-4,0
1499894511899708,-3,0,-1,37,1,5,-1,7
1499894511920716,10,-5,-8,1,-4,-2,-5,20
1499894511920716,-4,-1,2,-29,2,0,-3,-10
1499894511921712,-5,0,-1,17,1,1,6,-91
1499894511921712,5,-5,-14,-17,-3,-5,1,20
1499894511933710,-4,6,5,24,5,0,-8,-30
1499894511933710,-3,3,1,-21,4,3,4,-1
1499894511942714,-1,-9,-23,0,-17,-8,-8,14
1499894511942714,1,0,6,20,-3,1,3,10
1499894511957716,-3,0,6,-16,4,1,0,-9
1499894511957716,-9,-3,2,32,4,0,0,1
1499894511959712,6,6,0,-23,2,2,0,11
1499894511959712,-4,-5,-3,-22,-3,-2,-10,-15
1499894511987720,-16,-5,-12,8,-4,-3,-4,-46
1499894511987720,5,1,6,-7,-6,-3,4,-15
1499894511989713,15,-5,-15,-21,-4,-3,-4,54
1499894511989713,-2,6,8,65,3,-1,0,-2
1499894512002729,-13,2,3,-41,-5,1,-1,6
1499894512002729,-4,-3,-2,6,-1,-3,-5,-12
1499894512004713,1,4,18,-2,1,3,-1,21
1499894512004713,1,-10,-6,17,3,-1,9,58
1499894512017716,-10,3,0,6,3,2,0,-8
1499894512017716,10,0,15,-11,-4,-2,-2,16
1499894512019714,-2,-4,-16,7,0,-3,2,13
1499894512019714,0,0,-3,-20,-3,-7,-4,-1
1499894512040716,3,1,3,14,4,7,2,12
1499894512040716,-9,-5,-6,-32,-9,-1,9,-2
1499894512041716,-3,0,13,61,5,2,-4,-20
1499894512041716,0,-3,-19,-2,-7,-8,-7,-19
1499894512054720,4,-1,11,-9,4,1,4,-28
1499894512054720,-6,-4,-28,-6,-4,1,-2,11
1499894512062720,0,-3,18,-2,1,-3,-2,-4
1499894512062720,13,0,11,-4,-1,2,5,22
1499894512077720,-4,-6,-22,-25,1,-2,-3,-14
1499894512077720,5,6,21,17,7,2,-1,7
1499894512079720,-10,-7,-25,0,-8,-3,-1,-3
1499894512079720,6,3,11,-4,4,2,-3,-26
1499894512100732,5,0,-1,-33,-7,-4,-5,19
1499894512100732,1,-1,4,16,-1,-3,-3,-6
1499894512101719,4,3,0,1,2,0,-3,-6
1499894512101719,-10,-5,-11,0,-1,0,18,-8
1499894512122721,0,-2,5,19,-2,0,-8,-48
1499894512122721,-1,-2,-12,-6,-2,-2,-3,-14
1499894512124723,4,6,7,-7,1,-3,0,10
1499894512124723,-5,1,-8,-29,-2,4,-3,-7
1499894512137733,-1,-1,0,33,1,-8,0,26
1499894512137733,-6,0,6,40,1,2,0,9
1499894512139722,-6,-7,-15,4,-5,0,-1,-23
1499894512139722,-12,2,3,10,-2,-5,-7,8
1499894512160723,14,2,0,12,1,6,3,15
1499894512160723,-2,7,17,6,3,3,-2,-18
1499894512162724,-4,-7,-16,-47,-7,-2,2,11
1499894512162724,-5,-4,-13,-15,-2,-3,-6,-6
1499894512173725,9,2,6,30,-3,-6,-1,19
1499894512173725,-14,-2,-4,5,-1,-1,0,5
1499894512182723,18,6,18,-19,1,2,-1,14
1499894512182723,-5,-5,-15,-1,-5,-4,-1,-10
1499894512197738,5,-2,-10,-4,1,0,-7,31
1499894512197738,-9,-4,-12,-49,-5,0,-3,-28
1499894512199728,10,6,13,1,1,-2,3,8
1499894512199728,-6,0,-2,3,2,-2,-9,-16
1499894512220734,-7,-2,3,0,-1,-1,4,6
1499894512220734,6,-7,-4,-6,-9,-8,-3,-4
1499894512221727,-10,-1,-2,33,7,4,-2,-7
1499894512221727,7,0,5,-24,0,-2,0,24
1499894512242731,-11,-1,-7,-40,-7,2,1,4
1499894512242731,3,-10,-25,55,0,-6,-4,-46
1499894512244727,-4,0,13,-34,0,0,2,16
1499894512244727,7,3,5,30,-1,-2,-4,-11
1499894512257735,-5,-1,2,-4,-1,-1,2,8
1499894512257735,-11,-2,-20,-8,-3,-9,-3,20
1499894512259728,9,-5,-17,-12,4,6,1,5
1499894512259728,-6,1,16,68,-3,0,-2,-16
1499894512280732,3,1,-2,-11,-1,-2,-11,21
1499894512280732,-9,3,8,-12,4,2,1,-16
1499894512281729,-6,-3,3,15,-5,-7,0,-15
1499894512281729,-7,-1,-7,-10,1,1,-2,1
1499894512302745,6,2,-1,-31,-5,-3,2,-9
1499894512302745,5,-2,1,3,2,2,-1,-5
1499894512304737,-6,1,-2,13,-3,-1,-3,-2
1499894512304737,4,-1,17,14,1,1,0,-10
1499894512317746,1,-1,-13,28,2,-4,0,6
1499894512317746,7,0,-11,-43,-8,4,8,53
1499894512319734,2,3,3,-4,-1,-3,-7,-56
1499894512319734,4,-4,-15,-49,-1,0,1,0
1499894512340733,-8,-2,5,33,4,0,1,-15
1499894512340733,-1,2,7,12,-1,-4,-1,21
1499894512341733,-4,-4,-2,-3,-2,0,-1,11
1499894512341733,2,-3,-13,15,-2,-1,-1,2
1499894512362736,1,3,6,-19,1,-2,-2,1
1499894512362736,5,-1,-5,-38,3,2,0,1
1499894512364735,-2,-2,19,40,-13,-10,-3,-9
1499894512364735,-9,-4,0,-13,1,3,2,-15
1499894512377736,4,2,5,-3,-2,1,-9,19
1499894512377736,-4,-2,6,27,4,0,-1,-4
1499894512383737,0,3,0,-34,1,1,4,4
1499894512383737,0,-1,-16,11,-1,-3,-3,12
1499894512400749,6,-1,2,-58,-9,2,2,-14
1499894512400749,-3,3,-5,4,1,-4,-3,-4
1499894512401735,-7,-5,-2,14,1,-1,-3,-1
1499894512401735,-3,3,14,31,1,-1,2,-28
1499894512422740,5,0,-6,-32,3,4,2,-23
1499894512422740,-24,-3,8,29,-2,-4,-2,-19
1499894512424741,19,0,-13,-8,1,1,0,11
1499894512424741,2,2,3,-20,-1,0,-1,-14
1499894512437739,5,-1,7,14,-1,-2,2,2
1499894512437739,-4,-3,-4,-13,-2,0,-2,3
1499894512443739,-5,1,1,26,2,-1,0,3
1499894512443739,-5,-5,-11,-52,-8,-7,-6,12
1499894512460741,-1,-1,13,29,-1,-4,-4,12
1499894512460741,5,-5,-15,26,2,4,7,18
1499894512461741,-4,5,7,-48,-1,-1,-3,13
1499894512461741,1,-7,-17,-11,-7,2,-2,-5
1499894512482742,-6,-4,5,32,-4,-8,-1,-18
1499894512482742,7,2,11,21,2,0,1,-11
1499894512484743,-6,-1,-17,7,1,0,0,-34
1499894512484743,7,2,10,-33,-4,-4,1,36
1499894512497741,-7,-1,-5,14,4,0,-1,-2
1499894512497741,12,0,-4,-34,-15,-3,0,27
1499894512503743,-20,-3,-11,-12,2,0,-2,-51
1499894512503743,-1,5,17,1,1,2,-2,-10
1499894512520745,-4,1,-9,45,2,1,1,4
1499894512520745,12,-4,2,-12,2,0,-1,23
1499894512521744,-11,2,7,-6,-7,-3,0,-11
1499894512521744,-1,-4,-13,39,3,-2,0,-11
1499894512542749,-1,2,6,-50,-2,2,0,-19
1499894512542749,-6,-1,-5,26,4,2,0,-16
1499894512544786,15,-2,-3,-57,-6,-2,0,26
1499894512544786,-5,-3,-2,2,-2,-4,-1,-14
1499894512557749,-3,-4,-9,6,1,-5,-5,8
1499894512557749,-5,2,2,-33,1,4,-6,35
1499894512563748,-16,-9,-11,68,1,-3,-1,-8
1499894512563748,15,5,18,7,-3,-4,0,21
1499894512580748,-2,-3,-3,-26,-5,-2,-2,10
1499894512580748,2,1,5,-35,0,-3,-1,3
1499894512581748,7,0,-7,66,5,1,1,17
1499894512581748,-16,-4,-6,-35,-3,-1,-2,14
1499894512602776,10,-2,8,18,0,-2,0,-7
1499894512602776,-4,-3,-2,18,-2,-1,-3,-7
1499894512604749,11,0,-7,-53,-4,0,2,25
1499894512604749,-15,0,-7,40,-2,-1,-2,-24
1499894512617814,-6,-7,-11,13,-2,0,-1,-1
1499894512617814,2,4,10,2,2,-1,1,5
1499894512625750,4,-1,6,4,0,0,0,8
1499894512625750,3,0,14,10,0,-3,-4,11
1499894512640769,-3,-2,-14,-52,1,1,2,10
1499894512640769,-11,-1,3,45,-5,0,-2,-40
1499894512641772,-2,2,3,67,7,0,-3,-49
1499894512641772,3,-2,-6,-81,-5,-2,0,-6
1499894512662809,-6,1,6,32,1,0,3,0
1499894512662809,2,0,-4,-35,0,-5,-1,-51
1499894512664755,13,0,2,40,1,6,-1,-16
1499894512664755,10,0,-5,13,4,2,1,-60
1499894512676758,-15,-3,-3,-17,-3,-4,-2,-28
1499894512676758,-1,-2,-6,3,-2,-3,-3,-7
1499894512683774,-19,-1,-5,-48,-7,-6,-5,-24
1499894512683774,17,2,8,45,6,0,2,52
1499894512700826,5,1,5,-58,-1,4,4,3
1499894512700826,-5,-7,-9,12,-3,-4,-7,-48
1499894512701758,-9,-1,6,-1,6,1,1,-67
1499894512701758,9,4,3,-37,-8,-1,-2,41
1499894512722755,9,-9,-28,-11,-6,-1,0,45
1499894512722755,8,1,0,7,-1,-2,4,97
1499894512724755,7,-3,-8,-22,1,-1,-2,-21
1499894512724755,-46,2,-1,5,3,5,2,-65
1499894512736756,1,7,13,57,0,-3,11,-3
1499894512736756,8,-5,-3,-27,-2,-2,-3,75
1499894512745757,-12,-6,-15,-29,-11,0,0,45
1499894512745757,8,-4,-1,7,3,2,4,26
1499894512760802,-5,-2,13,19,-2,-2,-6,-5
1499894512760802,12,-1,-13,-17,-3,0,1,3
1499894512761757,-23,2,4,12,8,2,7,21
1499894512761757,20,-11,-13,55,-5,-6,-8,40
1499894512782758,-5,1,-4,-87,-6,0,-1,14
1499894512782758,-1,-1,6,16,2,-1,-4,-80
1499894512784762,7,3,3,-12,-3,-3,-5,-18
1499894512784762,-12,-7,-5,26,3,-1,1,2
1499894512796826,20,0,-6,-29,-2,1,-1,32
1499894512796826,-27,-1,11,21,-3,-6,-6,-58
1499894512805761,14,0,6,-11,-6,-3,1,95
1499894512805761,-2,3,10,30,2,-3,-1,-34
1499894512820807,-6,-2,-12,38,11,-2,-2,-45
1499894512820807,-3,1,-8,-15,0,3,0,1
1499894512821761,-2,-5,-1,-16,-1,1,0,-13
1499894512821761,2,4,-4,5,-8,-4,-3,9
1499894512842763,-22,1,9,41,1,1,-4,-49
1499894512842763,-9,-3,-11,-54,-7,-1,-2,-29
1499894512844763,16,-2,4,-12,-2,-3,-3,45
1499894512844763,-3,1,-4,-15,2,0,1,-12
1499894512856764,-3,1,-3,-22,-2,0,-3,-25
1499894512856764,8,2,-4,37,0,1,1,14
1499894512865769,1,-3,4,14,-1,-3,1,41
1499894512865769,4,-2,4,-38,-3,0,-2,1
1499894512880765,4,-1,0,42,-1,2,-1,27
1499894512880765,5,3,0,-19,-1,2,0,62
1499894512881764,9,-1,-3,-1,0,-1,4,6
1499894512881764,-4,-1,5,20,3,1,-6,-86
1499894512902778,-2,-1,4,-46,-3,-3,-3,-2
1499894512902778,6,3,6,14,3,-4,1,17
1499894512904771,-11,1,4,13,2,3,1,-32
1499894512904771,5,-5,0,-19,-7,-7,-3,13
1499894512916767,-17,-5,-2,9,2,-1,-3,-31
1499894512916767,-3,-1,-2,-10,-4,-1,-2,-23
1499894512925767,-2,2,7,2,1,0,-1,4
1499894512925767,3,-2,-14,24,6,3,1,5
1499894512940778,17,-1,0,-21,-8,-6,-5,31
1499894512940778,5,-3,-14,-51,-6,-8,-2,17
1499894512941768,-10,1,3,-15,2,0,-1,-31
1499894512941768,-6,-2,-6,4,-2,2,0,-20
1499894512962771,0,-7,4,72,0,-3,0,16
1499894512962771,-5,1,-3,-20,-1,1,-1,-68
1499894512964769,28,2,12,-2,-1,-2,-5,55
1499894512964769,-14,1,3,-19,-1,-1,-1,-18
1499894512976774,-8,-6,-23,32,-2,-3,-5,-15
1499894512976774,-1,-2,5,7,2,-1,-2,-5
1499894512985771,-9,-2,-10,8,-9,-1,0,3
1499894512985771,-1,3,-2,-18,-1,-1,3,3
1499894513000784,2,2,8,0,5,5,3,14
1499894513000784,0,-1,-2,25,1,3,4,17
1499894513001772,0,-1,-5,-2,-4,-3,1,45
1499894513001772,0,-8,2,0,-3,-3,-1,47
1499894513022774,-2,4,11,20,-3,-2,2,-7
1499894513022774,1,0,3,-28,2,-2,0,6
1499894513024773,-5,-9,-24,-1,-1,0,-2,-24
1499894513024773,1,4,5,16,-1,0,-2,2
1499894513036773,2,1,2,-25,-5,-3,2,1
1499894513036773,-9,-2,-5,-10,6,-1,0,-39
1499894513045774,-6,1,12,29,-7,-2,-6,-56
1499894513045774,15,0,12,9,4,0,2,37
1499894513060788,-6,-2,-20,-26,-4,0,-6,-55
1499894513060788,-5,5,7,17,1,2,1,88
1499894513061775,-14,-6,-7,-11,1,0,3,18
1499894513061775,-2,0,-8,17,0,1,0,-23
1499894513082777,-1,-3,1,-63,-4,-4,-1,23
1499894513082777,0,2,11,9,0,-4,-3,17
1499894513084776,6,-4,-23,60,3,2,1,-12
1499894513084776,1,0,4,-62,-3,-2,-2,22
1499894513096791,6,3,2,20,2,0,2,16
1499894513096791,-11,-6,-6,21,-2,0,-2,-25
1499894513105779,-6,4,11,-2,6,0,-1,-19
1499894513105779,-12,-11,-17,-60,-14,-4,-3,-10
1499894513120788,1,2,10,28,-2,-1,0,7
1499894513120788,-9,3,18,28,4,4,1,-73
1499894513121785,6,-2,-14,-82,-7,-3,-2,3
1499894513121785,0,-1,-2,27,-1,-8,0,17
1499894513142794,-4,2,2,-3,9,10,3,1
1499894513142794,3,-5,-5,0,-13,-5,-1,19
1499894513144780,-1,-1,10,2,5,3,2,4
1499894513144780,8,0,-4,-6,2,1,0,3
1499894513165781,5,-2,1,10,-3,-8,-5,-58
1499894513165781,-2,-2,6,61,5,0,0,-6
1499894513166781,3,1,-4,-63,-7,-2,-1,-3
1499894513166781,5,2,7,61,4,-1,1,87
1499894513180784,-25,-2,-14,-83,-6,-2,-2,-26
1499894513180784,32,-1,1,-13,-3,1,-3,28
1499894513181782,-7,0,5,19,-1,-4,-3,-11
1499894513181782,9,-2,1,49,5,4,3,27
1499894513202798,-12,-3,-7,-8,2,0,1,-46
1499894513202798,-17,-1,-10,-3,-3,-2,-3,-6
1499894513204788,7,-3,7,46,-3,-2,-3,-3
1499894513204788,-3,4,15,-10,1,2,-1,-17
1499894513225786,11,-1,-11,17,-1,-1,1,39
1499894513225786,-3,-5,-1,-16,-4,-2,-2,-15
1499894513226784,1,2,7,60,6,-2,-2,5
1499894513226784,-7,1,1,-68,-1,3,-3,-26
1499894513240799,-4,-2,-3,-10,-6,-6,-2,16
1499894513240799,6,-2,-12,-36,-4,1,2,27
1499894513241791,-1,0,10,-4,-1,-2,0,-13
1499894513241791,-3,-1,-3,-15,-1,-3,-3,-31
1499894513262800,1,1,9,68,4,0,0,29
1499894513262800,5,0,5,-7,1,-1,-2,-44
1499894513264789,-8,-12,-48,-2,-9,-7,-4,13
1499894513264789,-5,3,2,-79,-5,1,-4,-59
1499894513285795,-5,-6,12,34,-2,-11,-5,18
1499894513285795,6,2,13,15,5,6,2,57
1499894513286788,-8,5,3,8,5,4,3,-25
1499894513286788,0,-4,-8,0,2,0,1,27
1499894513300788,6,6,-1,-42,-4,0,0,-8
1499894513300788,-12,-6,-1,25,0,-2,1,-30
1499894513301792,3,-7,-12,-19,-2,-4,-4,16
1499894513301792,-5,1,-3,23,-1,-1,1,14
1499894513322789,9,1,4,-4,5,3,-1,14
1499894513322789,1,-1,-2,19,0,-2,2,82
1499894513324791,5,2,9,-66,-6,1,-3,-53
1499894513324791,-6,0,-14,21,-5,-6,-5,-15
1499894513345807,-15,-9,-1,13,1,2,1,-9
1499894513345807,15,0,1,-11,2,0,-2,5
1499894513346791,2,1,7,34,4,0,0,9
1499894513346791,-2,0,0,-13,0,2,-3,-1
1499894513359791,3,-3,11,8,-8,-9,-3,4
1499894513359791,-2,-6,-31,20,1,0,-2,7
1499894513367795,6,6,8,-35,-4,0,1,16
1499894513367795,-3,-5,-4,-25,-6,-4,-12,-108
1499894513382795,10,0,-12,38,5,3,-1,17
1499894513382795,-7,5,19,-4,0,-3,-2,-8
1499894513384795,-8,-8,-37,-15,-2,1,-1,-13
1499894513384795,-13,-3,-3,14,1,0,0,-22
1499894513405800,5,0,6,-4,-3,-2,-3,6
1499894513405800,-1,-3,-8,-12,-4,-5,-4,-9
1499894513406799,-7,4,13,-8,2,-3,-3,-49
1499894513406799,0,-6,0,29,-2,-4,2,28
1499894513419796,5,-2,-11,-2,0,6,2,1
1499894513419796,-5,2,-5,-46,1,0,2,-11
1499894513426795,0,-1,17,46,-6,-5,-1,33
1499894513426795,2,-3,1,2,-1,-2,-1,14
1499894513442797,-4,-3,-4,-6,1,-1,1,-14
1499894513442797,0,-4,-12,-18,-1,-3,-3,-8
1499894513444798,-1,1,4,21,2,-1,-1,11
1499894513444798,0,2,5,-5,0,0,4,0
1499894513465798,4,1,2,2,-2,0,-3,-2
1499894513465798,1,2,4,20,4,4,1,3
1499894513466800,-3,-3,-6,-64,-2,-1,0,27
1499894513466800,-13,-3,-7,17,-10,-2,-5,-42
1499894513479800,2,3,5,-33,3,1,1,13
1499894513479800,-4,1,-3,49,-2,-2,-2,-6
1499894513493801,-8,-11,-5,34,-9,-7,-7,-21
1499894513493801,11,5,6,15,6,1,2,34
1499894513502815,-2,2,4,-42,-6,-2,0,1
1499894513502815,2,0,-2,-6,0,2,-1,-13
1499894513504807,6,3,0,-15,1,1,2,33
1499894513504807,-3,-7,-15,-15,-2,0,-3,31
1499894513525802,1,0,22,111,3,-5,-3,-4
1499894513525802,-3,-2,-17,-97,-10,-4,0,6
1499894513526802,2,3,2,13,-1,-3,1,13
1499894513526802,-1,-1,6,12,6,4,1,9
1499894513539806,-3,2,-9,-19,4,4,1,-30
1499894513539806,-4,-2,14,-1,-7,-7,-4,-23
1499894513546818,-7,0,4,19,2,1,-2,-37
1499894513546818,-5,-2,-10,-3,-3,-8,-2,8
1499894513562804,6,3,3,-1,4,4,4,105
1499894513562804,-9,0,8,6,-2,-1,-2,-48
1499894513564805,0,-9,-21,-51,-4,-2,-2,11
1499894513564805,2,2,6,22,4,0,1,3
1499894513585820,-3,-3,-9,-15,-2,-2,-1,10
1499894513585820,1,0,6,49,3,-4,-2,6
1499894513587813,2,6,21,-75,2,4,2,2
1499894513587813,9,-5,-25,6,-5,-1,-2,29
1499894513599806,1,-8,-19,-22,-5,-4,-3,-21
1499894513599806,-3,-1,-3,8,-6,-3,-4,6
1499894513606812,-5,2,9,39,5,-1,0,-19
1499894513606812,0,0,6,-35,-6,0,0,17
1499894513622807,-18,-8,-11,41,-3,-5,-5,-20
1499894513622807,7,0,6,-13,2,1,3,-38
1499894513629807,2,-2,-19,-7,-1,1,-1,3
1499894513629807,-1,2,12,7,5,2,1,-7
1499894513644810,-2,-1,-5,5,-5,-4,-2,-17
1499894513644810,-5,3,7,-38,1,2,1,11
1499894513645809,2,-10,-10,48,-2,-3,-3,24
1499894513645809,7,4,11,-31,-3,-6,0,-6
1499894513658822,-3,-5,-9,3,-1,4,-5,-23
1499894513658822,-6,-2,9,32,-1,0,0,4
1499894513667810,6,4,0,-32,-6,0,0,15
1499894513667810,-1,0,0,17,-1,-2,-3,-6
1499894513681813,-3,3,1,-23,-1,-2,-2,-8
1499894513681813,0,-2,-8,15,0,0,-1,14
1499894513682810,-8,-2,4,8,3,2,1,-2
1499894513682810,-5,-3,-10,-18,-4,-1,0,-18
1499894513704820,-1,-1,2,-6,-2,-3,-1,-8
1499894513704820,-3,-6,-5,1,0,-1,-6,-22
1499894513705813,-6,1,2,18,3,-2,-2,-16
1499894513705813,22,3,4,-6,-1,0,0,6
1499894513727813,-2,2,4,39,1,1,2,-15
1499894513727813,-1,-3,-4,-22,0,-1,-1,2
1499894513728815,-14,0,20,41,-12,-3,-1,-17
1499894513728815,6,-3,-13,44,1,0,-2,-7
1499894513741817,-3,-2,-10,-39,-3,-2,0,5
1499894513741817,1,0,4,29,4,-1,-2,-3
1499894513742815,5,3,1,-12,3,2,1,2
1499894513742815,-16,-2,2,-14,-3,-4,0,-22
1499894513764817,3,3,11,21,3,2,-1,9
1499894513764817,-2,2,-10,-52,3,-1,0,6
1499894513765815,4,-11,-7,32,-19,-14,-12,-15
1499894513765815,-6,-3,12,36,4,8,-1,-19
1499894513787819,-2,-3,-9,-15,-1,-3,-1,8
1499894513787819,12,3,15,7,2,1,1,8
1499894513788817,0,0,-5,-24,5,1,3,21
1499894513788817,-5,-2,-7,18,-2,-2,-1,31
1499894513801832,-1,0,3,-26,-4,-2,-1,-15
1499894513801832,-7,-7,-14,7,-4,-4,-2,26
1499894513802820,7,5,9,14,5,2,2,21
1499894513802820,-19,-2,-12,0,-1,1,-1,-52
1499894513824819,7,0,15,-15,1,0,1,3
1499894513824819,7,3,12,30,-11,-3,0,21
1499894513825819,-17,-4,-9,-4,4,1,-1,-7
1499894513825819,-3,-4,-9,-11,1,1,-4,9
1499894513847886,3,2,-7,1,-1,-2,1,-4
1499894513847886,-5,-7,-18,-6,-2,0,0,-16
1499894513848825,3,5,12,-9,3,1,2,-9
1499894513848825,4,1,3,28,1,0,0,21
1499894513861858,-9,-7,-4,-17,-6,-7,-3,-9
1499894513861858,-1,2,13,9,2,3,2,3
1499894513862822,3,-2,-18,30,4,0,0,-15
1499894513862822,-3,-2,-11,-69,-15,-5,-2,2
1499894513884848,0,-6,1,6,-3,-3,-3,-3
1499894513884848,-7,0,3,25,-2,-8,-3,-23
1499894513885828,1,2,0,32,5,5,-2,-20
1499894513885828,-1,-3,0,-1,1,0,1,0
1499894513907827,1,11,13,-3,2,2,-1,1
1499894513907827,-2,-6,-6,23,-1,0,1,38
1499894513908824,-6,-3,-18,-36,-5,-5,-1,-3
1499894513908824,4,-3,16,-40,-8,-5,-1,6
1499894513921824,-1,1,-3,14,-1,0,-2,8
1499894513921824,-3,2,10,15,7,1,0,-5
1499894513922825,13,3,2,2,-4,1,3,21
1499894513922825,-7,1,2,-10,0,0,-2,-12
1499894513944868,11,-5,-5,2,0,0,1,9
1499894513944868,-1,-3,-10,-11,-2,-5,-3,-10
1499894513945846,2,-1,5,-26,1,-3,-1,-10
1499894513945846,-2,-4,3,4,-1,2,0,-12
1499894513975849,-20,3,4,1,3,0,-2,-11
1499894513975849,3,-4,-14,-6,-7,-1,-3,1
1499894513975849,-2,-9,-18,23,-4,-5,-3,49
1499894513975849,0,4,4,-41,1,-2,-1,-1
1499894513981829,5,-2,-3,-8,-1,1,2,5
1499894513981829,-1,6,4,-34,2,1,0,-11
1499894513982830,-3,-1,8,71,1,0,1,-7
1499894513982830,5,1,3,-5,1,2,0,16
1499894514004838,-1,-2,-7,-15,-2,-3,-1,6
1499894514004838,-1,-1,-2,4,1,1,-3,10
1499894514005861,-1,0,8,-50,0,1,0,-17
1499894514005861,1,3,-1,80,7,1,1,17
1499894514035861,1,-3,11,-58,-8,-2,-1,-11
1499894514035861,-7,-8,-22,9,-2,-2,1,-2
1499894514035861,-2,3,-4,-30,2,0,-2,-10
1499894514035861,5,3,4,34,2,-3,0,6
1499894514041832,0,-6,-1,24,-4,-4,-1,8
1499894514041832,4,-2,7,-3,1,1,-1,3
1499894514042832,3,2,9,8,-1,1,-1,29
1499894514042832,2,-4,-21,-15,-2,-3,-3,-8
1499894514064833,-14,1,-5,33,0,-2,-1,-36
1499894514064833,6,-3,-3,-27,-9,-2,0,-10
1499894514065849,-1,0,-1,-28,-1,0,1,29
1499894514065849,-11,7,12,29,5,1,-2,22
1499894514086839,-1,-8,-14,-24,-5,-1,-3,2
1499894514086839,-5,0,5,-1,-1,-4,-4,1
1499894514087838,0,-1,2,1,-1,0,1,2
1499894514087838,-7,-2,7,6,4,3,2,-15
1499894514103838,-6,-1,-16,-9,-5,-2,-1,-2
1499894514103838,-3,1,3,13,0,-4,0,11
1499894514104842,-1,-3,-5,-5,0,0,-3,-21
1499894514104842,-2,2,14,-8,-7,-8,-1,-3
1499894514124857,8,-4,-22,-16,2,9,0,37
1499894514124857,1,-2,-6,10,-4,-3,-3,-8
1499894514125839,15,0,4,17,-1,-6,-2,-2
1499894514125839,6,-5,-9,-19,-3,-3,0,13
1499894514146875,-3,1,0,-8,5,0,3,2
1499894514146875,3,-5,-18,-4,-5,-3,-3,-12
1499894514147838,-10,-4,19,50,1,0,-3,11
1499894514147838,-10,7,14,-54,-5,-1,-2,8
1499894514161883,17,-9,-19,-21,-6,-5,-3,-11
1499894514161883,-9,8,17,27,8,4,0,4
1499894514162862,-11,-5,-22,-62,-7,-1,-1,-24
1499894514162862,4,-3,-16,0,-3,1,-2,-10
1499894514184844,-4,3,16,65,5,-2,-1,5
1499894514184844,4,2,7,-40,-4,2,-1,-3
1499894514185862,-3,-2,-10,-20,-3,-7,0,9
1499894514185862,-7,-5,-14,-4,-3,-5,-7,-54
1499894514206849,3,4,6,-22,3,5,2,-4
1499894514206849,-1,-1,9,47,-1,-3,-1,6
1499894514207841,-7,-1,2,-13,0,-1,-1,-10
1499894514207841,7,-5,-15,25,-1,0,0,-1
1499894514221848,-1,-1,4,-53,-4,-3,-4,-18
1499894514221848,0,4,6,-8,1,0,1,-13
1499894514222842,10,2,-4,27,1,-1,-1,18
1499894514222842,-6,-3,-9,-48,-13,-7,-1,2
