timestamp,emg1,emg2,emg3,emg4,emg5,emg6,emg7,emg8
1499894472612709,0,-3,-33,-46,1,0,-8,4
1499894472612709,-17,-4,3,1,-6,3,13,5
1499894472619700,2,-2,13,3,3,-2,-6,-1
1499894472619700,17,-3,8,-17,-7,-4,-3,6
1499894472635701,-3,-3,-2,61,-5,-3,-9,-9
1499894472635701,2,1,-14,-29,1,0,1,20
1499894472637700,-8,0,-8,27,-3,-3,0,-35
1499894472637700,-54,-7,13,-37,1,3,4,-9
1499894472658703,25,3,-3,-27,0,-1,-2,21
1499894472658703,0,3,10,13,-4,-6,-6,-4
1499894472659702,-5,-2,-9,-34,0,2,8,-15
1499894472659702,3,-2,-20,70,0,1,-6,-4
1499894472672703,-1,-1,-13,-63,-7,-2,-2,-3
1499894472672703,0,-2,9,89,1,-1,2,34
1499894472679703,0,2,10,0,5,0,-5,-4
1499894472679703,38,5,-9,5,0,2,14,23
1499894472695704,-15,-11,5,23,-3,-3,-11,-41
1499894472695704,-34,-2,11,-14,-2,-6,0,-28
1499894472697705,-1,-2,-21,-18,-2,-1,-8,9
1499894472697705,7,-2,-4,-3,2,5,-4,-6
1499894472718706,6,10,18,19,9,5,9,5
1499894472718706,-11,2,-15,7,4,2,1,-33
1499894472719705,-6,0,25,36,-6,-7,6,1
1499894472719705,10,0,-13,-22,-2,-7,-14,4
1499894472732706,2,3,9,46,1,5,-11,14
1499894472732706,15,-11,5,-13,-7,-6,16,-7
1499894472739706,-8,4,10,29,4,2,2,-1
1499894472739706,-10,-9,-32,-55,-7,-7,-4,13
1499894472755707,12,2,14,52,6,-1,-8,15
1499894472755707,-25,11,0,16,4,3,-11,-38
1499894472757713,12,-10,-22,-66,-4,-1,-14,-1
1499894472757713,-4,1,30,25,-1,-2,22,-10
1499894472778708,-36,-5,-9,21,-1,0,-6,-91
1499894472778708,31,-3,-21,-43,-5,-7,-15,-21
1499894472779709,14,-2,16,-66,-8,-5,5,27
1499894472779709,-10,7,-8,14,6,-2,-39,-14
1499894472792709,16,-5,-5,-8,0,8,64,62
1499894472792709,34,11,9,-13,11,5,-15,23
1499894472799723,-22,-3,-16,33,-2,2,18,15
1499894472799723,26,1,-7,-79,-7,-6,-17,-37
1499894472814714,-30,-4,24,85,-12,-11,-24,-40
1499894472814714,-9,-3,-5,-71,5,0,-64,-54
1499894472823713,-11,0,-1,23,6,3,66,-3
1499894472823713,-15,3,-9,-23,-6,3,16,-24
1499894472838713,21,2,-20,-68,1,0,9,22
1499894472838713,12,-12,-19,62,-6,1,12,16
1499894472840717,7,-15,-41,-72,-17,-8,-58,34
1499894472840717,-47,6,27,-10,8,1,1,-94
1499894472852714,34,6,-5,-42,2,-3,-7,29
1499894472852714,0,4,21,97,9,2,6,70
1499894472859726,-65,2,0,-79,1,7,11,-34
1499894472859726,37,-4,23,127,-9,-7,8,40
1499894472877714,11,-8,-39,-106,-9,-4,-9,-18
1499894472877714,19,-1,9,18,4,-2,6,-40
1499894472878714,7,6,12,49,4,-6,-14,-6
1499894472878714,-31,-1,-20,-54,-1,-1,-12,35
1499894472897730,-8,-7,48,52,1,4,5,-83
1499894472897730,32,6,-25,-128,-8,-3,16,44
1499894472904718,15,7,25,127,7,3,-12,2
1499894472904718,-11,0,-10,45,16,7,9,33
1499894472912717,-10,-14,-54,-70,-8,-2,-42,106
1499894472912717,-9,-3,26,57,1,0,47,-29
1499894472919730,9,-4,-23,-114,-14,-4,8,44
1499894472919730,20,-6,3,42,-1,-5,-5,16
1499894472935720,-20,-2,-4,-46,-5,-1,1,-64
1499894472935720,-2,-4,-8,0,-5,-2,-5,54
1499894472937732,-5,18,46,19,11,0,-10,-52
1499894472937732,9,-27,-75,10,-16,-7,0,35
1499894472958722,-19,3,23,-54,-1,-2,9,50
1499894472958722,3,1,11,-47,-7,-1,-9,17
1499894472959724,32,5,2,24,7,-1,-8,5
1499894472959724,-9,-2,-1,-16,1,0,-8,-27
1499894472971720,-7,-11,-1,-44,-20,-8,-6,1
1499894472971720,1,1,-7,-16,5,4,1,25
1499894472980720,-18,-3,10,45,10,6,13,7
1499894472980720,17,-10,-60,25,-9,-3,-1,-1
1499894472995737,-27,1,22,77,6,-8,-6,-84
1499894472995737,-15,-1,1,65,3,-3,-14,14
1499894472997722,20,-5,-22,-59,-9,-1,2,-1
1499894472997722,-2,13,29,-80,5,3,12,39
1499894473018722,-6,2,0,48,2,0,1,39
1499894473018722,1,-1,10,-19,-1,-1,8,-13
1499894473019732,14,-6,-34,62,-7,-8,-11,-21
1499894473019732,16,-1,23,-51,-11,-1,14,6
1499894473031725,-16,-2,-8,81,8,-1,6,14
1499894473031725,-16,5,33,-81,-5,-1,-3,-10
1499894473040728,-2,-4,-34,-70,-7,-2,0,-7
1499894473040728,-15,-3,2,-18,11,6,0,-22
1499894473055726,18,8,27,69,3,-1,-11,-10
1499894473055726,-7,-5,-18,-33,1,0,3,11
1499894473057725,-12,7,23,87,8,5,-9,-13
1499894473057725,-9,-13,-3,21,-8,-5,11,58
1499894473078725,30,6,-24,-94,-4,4,-8,-24
1499894473078725,-44,-10,-28,13,-4,-3,5,-22
1499894473079725,-6,-12,10,52,-12,-12,-10,8
1499894473079725,-2,13,32,57,13,4,-5,-8
1499894473091729,17,8,11,-31,-1,0,6,67
1499894473091729,-8,-13,-8,9,-10,-3,-8,-52
1499894473100730,24,7,15,-23,7,8,15,5
1499894473100730,-28,0,-10,-35,-6,-6,-15,-71
1499894473115728,17,1,-12,-4,1,-4,6,21
1499894473115728,8,0,11,-19,-10,-1,-1,17
1499894473117728,-1,-2,18,4,3,1,-4,23
1499894473117728,7,6,30,88,8,-1,-2,-66
1499894473138730,-14,-10,-16,-95,-4,1,-1,-40
1499894473138730,45,17,21,83,-1,-3,-4,-33
1499894473139729,-15,-14,11,6,-3,-2,-5,-45
1499894473139729,-11,-1,-6,28,2,-1,4,-1
1499894473151748,6,5,5,-33,-8,-1,-6,-57
1499894473151748,-25,-10,6,95,9,1,-6,-9
1499894473160730,11,-11,-11,-96,-16,-11,-13,21
1499894473160730,13,23,37,-53,-8,2,10,-79
1499894473175732,9,-30,-20,127,12,-3,24,71
1499894473175732,16,9,-13,-128,-15,-2,-7,-46
1499894473177732,15,1,-17,39,7,2,8,-43
1499894473177732,-17,-9,-13,9,-2,1,-4,4
1499894473198746,2,4,6,48,1,1,-5,-5
1499894473198746,-13,3,-19,-31,9,4,8,-34
1499894473199735,-23,-4,-6,41,-3,-7,1,-2
1499894473199735,39,3,8,-3,3,6,-2,44
1499894473211733,-3,12,14,-10,2,0,-3,-70
1499894473211733,10,-12,-24,43,4,-2,3,25
1499894473220735,8,5,-21,-32,-4,6,1,41
1499894473220735,-21,-7,10,9,-12,-11,-14,51
1499894473235735,9,8,51,51,7,2,-2,68
1499894473235735,8,-4,-20,17,5,4,6,14
1499894473237735,-30,0,3,33,2,0,-3,-1
1499894473237735,23,-6,-26,-6,-5,-1,-3,-43
1499894473258738,-14,11,23,-69,6,2,6,27
1499894473258738,-1,-20,-8,55,-12,-9,-7,33
1499894473259739,-22,5,3,-3,2,1,4,-35
1499894473259739,-8,-1,0,-21,4,3,-13,-9
1499894473280738,-3,-3,-35,-92,-10,-1,6,-40
1499894473280738,-11,3,21,6,9,3,-1,-6
1499894473282737,5,-2,0,14,1,0,3,-41
1499894473282737,24,11,19,-8,8,2,-7,-33
1499894473295754,-6,-9,-8,22,-5,-6,-1,-41
1499894473295754,-26,1,-16,38,1,3,-5,51
1499894473297743,19,-10,-7,-57,-7,-5,9,37
1499894473297743,-25,1,-4,-17,-2,-1,-1,17
1499894473318739,21,5,18,78,3,2,1,40
1499894473318739,-11,0,-25,-14,-13,-6,-4,-13
1499894473319740,31,0,-19,-3,-5,-9,-10,68
1499894473319740,-36,-11,-7,15,5,5,2,-51
1499894473331740,-4,-5,-7,64,5,0,-2,36
1499894473331740,19,10,11,-21,2,2,3,42
1499894473340745,-3,-5,16,15,-6,-3,0,65
1499894473340745,1,0,-10,-46,1,-5,1,75
1499894473355749,-44,-10,-10,21,-11,-6,-8,45
1499894473355749,22,6,15,14,7,2,-1,-44
1499894473357742,-3,6,37,8,2,0,-1,-61
1499894473357742,9,-8,-54,-40,-7,-5,3,-21
1499894473378744,-34,-12,-10,-71,-13,-7,-14,-63
1499894473378744,0,-1,10,45,-1,-2,9,35
1499894473379743,12,10,22,-43,4,5,7,-28
1499894473379743,-2,-5,-10,40,3,1,2,-25
1499894473400758,19,7,0,-10,8,7,-1,-25
1499894473400758,-7,-4,-10,8,-2,1,2,-19
1499894473402746,-21,1,24,-36,2,-1,-7,-52
1499894473402746,14,-2,17,-1,-8,-5,-2,100
1499894473415745,-5,-7,-41,11,-2,-3,1,-54
1499894473415745,-3,3,20,-70,-7,-2,-3,-15
1499894473417747,11,1,-23,78,5,-2,-12,38
1499894473417747,18,-4,12,1,3,6,18,25
1499894473438746,-14,0,24,36,10,5,10,-3
1499894473438746,1,-8,-26,-97,-25,-5,-2,52
1499894473439746,45,0,-34,58,-4,0,-3,1
1499894473439746,-68,2,6,-20,-8,-9,-8,-76
1499894473461751,2,4,16,-40,4,5,-7,-65
1499894473461751,-8,-4,0,36,4,-3,0,-34
1499894473462748,-5,-3,-7,-38,-6,-1,-3,23
1499894473462748,2,-3,-21,69,3,2,0,20
1499894473474752,3,9,11,-76,-9,0,-1,23
1499894473474752,0,2,12,-13,5,-1,-6,-17
1499894473483749,-14,-6,-5,-87,-5,-2,6,29
1499894473483749,20,1,15,-5,-7,-2,7,48
1499894473498752,27,7,13,97,10,4,0,40
1499894473498752,-8,-9,-26,-58,-10,-5,-1,-2
1499894473499752,-5,-4,8,32,5,-1,-1,35
1499894473499752,8,1,1,9,3,1,-3,18
1499894473520761,-1,5,6,21,-5,-2,1,42
1499894473520761,8,-1,6,-60,-1,-1,-7,-47
1499894473522752,-13,-4,-13,-24,-2,1,1,-15
1499894473522752,4,-2,2,-10,0,-4,-5,-10
1499894473534752,0,3,4,69,5,1,-1,-27
1499894473534752,4,12,14,70,11,6,8,91
1499894473541754,-19,-6,-13,-62,-16,-1,-4,-27
1499894473541754,-3,-13,-19,-59,-8,-7,-10,-95
1499894473558756,-9,-1,-1,5,5,-1,4,21
1499894473558756,-7,1,-21,18,2,-3,-2,-53
1499894473559756,5,1,17,45,2,0,-2,-13
1499894473559756,-3,0,-24,-69,-6,0,3,32
1499894473588755,1,-5,6,11,-2,-5,-5,23
1499894473588755,15,5,23,69,6,5,-3,22
1499894473589755,-3,-9,-44,-68,-17,-4,5,-15
1499894473589755,-10,-10,-15,56,1,-3,-4,-23
1499894473595758,28,10,20,-41,-9,-5,-1,49
1499894473595758,-5,-12,-13,60,-6,-5,-5,57
1499894473601771,16,10,19,-13,4,3,-4,8
1499894473601771,-2,10,23,11,4,1,-4,85
1499894473618759,-14,-25,-35,43,-3,-4,0,-41
1499894473618759,10,5,-9,-100,-4,2,3,-46
1499894473619758,-20,1,7,89,7,1,-1,-22
1499894473619758,7,5,47,95,2,1,1,-19
1499894473640761,3,-6,-53,-74,-4,1,0,28
1499894473640761,-48,-5,11,41,-1,-6,-5,-102
1499894473642759,0,0,-3,20,2,-5,-1,-21
1499894473642759,3,1,-12,-52,-9,1,-4,-41
1499894473654759,-11,5,22,-15,6,2,9,-61
1499894473654759,6,-7,-4,15,-4,-3,-6,-5
1499894473661775,1,-3,-10,-54,-1,1,-7,4
1499894473661775,-3,0,15,-4,7,2,0,1
1499894473678764,7,9,20,-11,0,1,-2,-7
1499894473678764,3,-6,-38,-11,-10,-4,-1,10
1499894473679760,8,3,12,70,11,4,2,63
1499894473679760,5,-6,-1,-32,4,1,6,32
1499894473700777,9,9,4,22,4,3,1,54
1499894473700777,15,-17,-24,-88,-23,-13,-4,19
1499894473702762,-23,6,25,33,7,2,-6,-41
1499894473702762,-3,5,-5,-8,1,2,5,35
1499894473714766,1,-1,-5,25,1,-1,5,13
1499894473714766,14,-2,-15,31,12,6,3,65
1499894473721767,-11,-2,-3,-36,-15,-2,4,-53
1499894473721767,1,7,30,2,0,-1,0,27
1499894473738763,-25,-20,-68,-25,-4,-7,-10,-101
1499894473738763,-4,5,27,14,3,2,4,-85
1499894473739764,-11,-2,3,-80,-4,-3,-1,-15
1499894473739764,-39,8,28,62,8,-3,-12,-76
1499894473760781,4,4,20,-14,-7,2,-2,-9
1499894473760781,-21,-19,-56,-60,-5,-8,8,32
1499894473762766,-17,9,-6,47,11,1,-11,-61
1499894473762766,5,-11,-4,16,-11,-6,3,11
1499894473774766,-8,-3,12,5,2,-1,-6,3
1499894473774766,-16,14,24,83,18,9,5,-5
1499894473781765,-8,-2,-10,-76,-33,-10,-10,-49
1499894473781765,0,-5,-13,-14,3,-4,-1,25
1499894473798770,4,-3,2,9,-5,-6,-10,66
1499894473798770,14,6,26,27,10,6,2,66
1499894473799772,1,-3,-17,116,11,5,9,9
1499894473799772,14,-6,-29,-107,-17,-3,0,4
1499894473820771,3,-6,0,49,-6,-6,-11,4
1499894473820771,12,1,2,-48,-2,-3,-7,20
1499894473822770,14,4,26,2,1,2,-6,13
1499894473822770,8,-6,-25,33,-4,-2,17,-14
1499894473834785,4,2,2,26,3,-1,-1,4
1499894473834785,-8,-3,16,-15,-6,-9,-10,-11
1499894473841770,11,-2,-17,-27,5,5,12,5
1499894473841770,-35,-4,2,13,2,0,-8,-105
1499894473858774,30,3,7,23,3,1,-3,26
1499894473858774,-16,0,-5,11,-1,0,2,35
1499894473859785,-8,-14,-16,-87,-18,-8,1,-23
1499894473859785,7,4,23,28,4,1,-4,29
1499894473880772,11,-3,-13,3,-5,1,-2,1
1499894473880772,5,8,26,19,10,0,6,-27
1499894473882774,19,-7,-7,-28,-5,0,3,59
1499894473882774,-15,4,4,-20,2,-3,-5,-33
1499894473894774,-13,-3,27,40,3,2,5,-26
1499894473894774,-1,-11,-52,-45,-13,-7,-24,-109
1499894473903773,-20,9,27,52,10,-1,16,-72
1499894473903773,54,6,19,-6,-6,1,-2,98
1499894473918775,-18,-8,-40,-65,0,1,7,14
1499894473918775,0,9,32,16,-1,3,3,41
1499894473919775,12,-7,-13,28,5,0,-2,55
1499894473919775,-9,2,10,56,8,3,-2,0
1499894473940776,-7,3,-7,-41,-4,-4,-4,-37
1499894473940776,13,2,6,-51,-6,2,17,52
1499894473942788,-1,-13,-35,28,0,-5,-9,17
1499894473942788,-11,-6,-4,-5,1,1,7,4
1499894473954777,-1,8,4,13,9,2,-2,9
1499894473954777,0,-11,-8,-41,-16,-4,1,62
1499894473963779,5,10,18,16,4,-2,0,55
1499894473963779,-5,-1,-11,-24,-2,3,0,-6
1499894473978781,5,3,8,32,2,3,3,8
1499894473978781,-4,-7,-1,-16,-1,-8,-7,-94
1499894473979777,-19,9,24,-29,5,6,-1,-21
1499894473979777,17,-11,-33,38,-1,-6,-11,-39
1499894474000794,-9,-9,1,-46,-10,-6,-4,-23
1499894474000794,10,9,32,13,4,4,-4,35
1499894474002779,-9,-2,-16,12,-5,-4,-6,-28
1499894474002779,-1,1,9,-9,1,-1,0,-44
1499894474014784,1,0,-2,29,1,0,1,28
1499894474014784,1,-4,-11,-3,-7,-3,-8,-20
1499894474023782,9,0,10,-15,-1,-1,2,95
1499894474023782,2,-3,-8,3,-4,-3,-6,-14
1499894474037782,23,-6,-36,-17,-8,-7,-6,68
1499894474037782,-31,3,-1,35,4,0,4,-22
1499894474039781,24,1,-1,22,1,4,-1,40
1499894474039781,0,1,4,-56,2,-3,2,44
1499894474060783,-16,-8,-3,-14,-14,-7,-7,-16
1499894474060783,-4,1,10,59,11,4,3,-34
1499894474062785,13,6,6,-53,-2,-4,-1,27
1499894474062785,0,1,-12,59,1,2,6,43
1499894474074788,1,3,20,-4,7,5,-1,-47
1499894474074788,-10,1,-22,-36,0,4,5,94
1499894474083787,4,-2,27,61,3,-1,2,-39
1499894474083787,-2,-19,-55,-83,-12,-8,-5,40
1499894474098842,-6,5,22,-1,-12,-7,0,-19
1499894474098842,0,2,2,9,3,-2,-2,-15
1499894474099785,-40,-9,-23,-37,1,4,-2,-41
1499894474099785,9,3,22,50,6,6,2,-44
1499894474120786,-21,0,-17,18,7,-1,0,-9
1499894474120786,-13,-1,20,-69,-10,-3,2,-70
1499894474122800,-11,-5,-5,41,3,-1,1,2
1499894474122800,-18,3,21,-43,-9,-6,-8,-17
1499894474134847,-3,0,-2,28,1,0,4,39
1499894474134847,7,-8,-16,1,-3,-1,-2,-1
1499894474143788,-12,-6,-4,-41,-5,-5,-2,-18
1499894474143788,0,5,13,17,1,0,0,-4
1499894474158803,7,1,13,-35,-1,-3,3,9
1499894474158803,-1,-5,-20,33,0,1,-3,-6
1499894474159791,22,0,-4,-13,-4,-3,-1,39
1499894474159791,-13,12,25,43,9,4,-2,-10
1499894474180810,-1,-10,-29,-83,-19,-6,-7,-38
1499894474180810,9,4,23,-19,0,1,1,15
1499894474182790,-9,-2,-23,-4,-4,-3,-9,-94
1499894474182790,13,-2,4,20,5,-3,2,75
1499894474194851,13,4,28,21,5,3,-6,-6
1499894474194851,9,-2,-10,50,1,1,2,5
1499894474203795,-7,0,-1,54,7,2,3,-49
1499894474203795,-1,1,-8,-97,-10,0,1,12
1499894474218792,-6,0,19,81,2,-1,5,68
1499894474218792,-3,0,-8,3,7,4,-6,-62
1499894474219792,11,-5,-12,-3,-8,-11,-5,36
1499894474219792,5,5,18,41,10,11,4,-15
1499894474240803,7,-10,-47,-51,-4,0,-1,-2
1499894474240803,-34,-6,1,-4,-8,-6,-1,-8
1499894474242794,7,2,11,62,8,-2,-3,72
1499894474242794,-6,-8,-28,-78,-15,-8,9,52
1499894474254794,5,1,2,5,2,4,-4,-17
1499894474254794,-4,-1,3,-36,6,1,0,26
1499894474263797,1,7,21,30,-4,-2,0,10
1499894474263797,12,-7,-13,-7,-9,-6,-2,37
1499894474277814,-2,-3,6,-15,1,2,7,80
1499894474277814,15,3,-14,1,4,-4,-7,59
1499894474279795,-2,-4,14,-7,-6,0,4,31
1499894474279795,9,4,-29,37,3,-1,-2,48
1499894474300841,-23,-1,11,-7,8,-1,-1,-36
1499894474300841,19,2,2,95,2,3,-1,-8
1499894474302799,6,-17,-13,-43,-21,-10,-7,-17
1499894474302799,-13,3,9,-7,-2,-3,-6,-53
1499894474322798,17,4,4,-19,2,1,1,-52
1499894474322798,-1,-3,-8,6,1,-2,-4,-55
1499894474324798,5,1,1,13,6,4,-10,47
1499894474324798,-2,-8,-11,1,-8,-4,-3,-71
1499894474337800,-8,-3,-22,10,0,-3,-2,-35
1499894474337800,1,10,28,1,1,5,6,-22
1499894474339804,-5,-4,-19,-68,4,-2,0,-9
1499894474339804,-13,-6,-15,7,-2,2,-4,-18
1499894474360865,-1,1,23,27,3,-1,-1,13
1499894474360865,-8,-6,-20,-76,-8,-7,-3,-32
1499894474362821,16,8,14,-11,5,2,5,33
1499894474362821,-12,-5,4,30,-1,-1,0,-2
1499894474382805,-8,3,4,-15,0,1,-3,-4
1499894474382805,9,-8,-14,93,0,-1,-1,73
1499894474384804,-9,-1,-16,-42,-9,-4,-3,-35
1499894474384804,12,9,27,-32,6,2,2,-4
1499894474398807,5,-13,-21,-23,-5,-5,-9,25
1499894474398807,-31,1,-11,6,-7,-1,2,30
1499894474399805,13,-2,19,50,-3,-5,-4,-58
1499894474399805,-8,-2,-4,45,5,1,-2,3
1499894474420804,11,3,-4,-44,-6,0,5,33
1499894474420804,10,1,20,50,4,-1,-8,-11
1499894474422825,6,1,-20,31,4,9,11,18
1499894474422825,-3,-6,-10,-91,-14,-10,-6,-7
1499894474443819,-1,5,17,10,2,1,1,12
1499894474443819,4,-5,-17,-40,-5,-3,0,-42
1499894474444810,-5,3,16,57,5,0,5,56
1499894474444810,-4,2,24,38,5,2,-8,-27
1499894474457826,-3,7,-24,-30,0,3,3,-1
1499894474457826,0,-12,11,64,-11,-10,-5,12
1499894474459836,-4,3,5,-38,6,3,1,11
1499894474459836,5,-13,-48,38,-2,-2,3,16
1499894474480809,-23,4,10,-47,-4,-3,1,-23
1499894474480809,-7,2,15,37,8,7,-3,-1
1499894474482810,-5,-7,4,19,2,-4,-3,-17
1499894474482810,2,1,13,-32,-7,-3,0,6
1499894474502873,24,-2,-1,24,-3,-2,-6,36
1499894474502873,15,0,-5,-60,-1,-5,3,28
1499894474504808,-11,-1,6,-20,-2,2,-4,-3
1499894474504808,-1,-2,-7,5,-2,-3,-2,-13
1499894474516813,17,-6,-15,38,1,-1,5,29
1499894474516813,-20,5,11,-74,0,4,7,-19
1499894474525813,11,6,12,-5,-4,2,0,-3
1499894474525813,-19,-16,-32,5,-9,-7,-15,-35
1499894474540811,9,2,27,90,3,-5,1,-3
1499894474540811,-11,3,-7,-91,-5,0,0,6
1499894474542812,-31,1,-15,-3,-1,-2,1,27
1499894474542812,20,3,36,37,3,2,6,11
1499894474562830,0,1,5,-11,4,2,-3,-30
1499894474562830,5,3,-8,36,1,-4,-7,-13
1499894474570817,-3,-12,-10,-3,-3,0,3,16
1499894474570817,-12,6,17,-29,1,1,-2,0
1499894474577817,-7,-7,-13,2,-6,-5,-5,-73
1499894474577817,7,9,46,43,8,1,10,20
1499894474591839,-6,-8,-54,-24,-13,-7,-11,-11
1499894474591839,-4,3,31,27,4,11,2,7
1499894474600871,8,8,12,-48,1,1,3,-28
1499894474600871,-2,-6,-20,-37,10,2,-1,-18
1499894474602814,21,-1,6,101,-7,-7,1,24
1499894474602814,20,4,-4,-56,-6,-6,-3,-46
1499894474623815,-34,-2,10,-25,-2,3,-3,6
1499894474623815,0,-1,3,15,1,-2,0,4
1499894474624819,2,0,9,1,11,2,-1,-33
1499894474624819,5,-4,-25,7,-4,-3,0,56
1499894474637818,-2,0,5,35,1,2,-8,-11
1499894474637818,-9,0,-11,-25,-1,5,9,32
1499894474644852,-9,-4,6,-16,4,0,-1,-42
1499894474644852,-18,3,11,30,4,0,3,-1
1499894474660857,-1,-4,1,3,-13,-11,-7,-2
1499894474660857,-4,1,12,-57,-5,2,-4,-24
1499894474662838,3,0,-12,-3,-3,-2,-2,49
1499894474662838,4,3,20,48,8,2,-1,-38
1499894474682890,-4,-8,-17,52,0,-4,3,-7
1499894474682890,7,3,-9,-63,-2,1,-2,21
1499894474684823,-7,0,16,-18,-2,-1,-1,-11
1499894474684823,2,1,-8,21,8,2,1,19
1499894474697857,-6,-3,-18,-72,-8,-1,-1,-37
1499894474697857,32,-5,-2,19,-7,-8,-10,56
1499894474704819,-16,3,11,-23,3,2,-7,-41
1499894474704819,7,0,-4,24,0,-4,-4,-25
1499894474720843,5,-8,-1,3,-5,0,0,-26
1499894474720843,13,-1,-3,37,0,-3,-9,16
1499894474722841,9,12,25,-4,4,4,5,11
1499894474722841,-6,-15,-37,-76,-12,-4,0,13
1499894474743852,-5,-1,-25,-15,4,-1,1,26
1499894474743852,2,-2,0,64,0,-2,0,-53
1499894474744822,5,1,-1,-15,-6,-4,-6,-5
1499894474744822,15,4,13,-1,2,-2,15,87
1499894474757826,4,-4,0,-28,2,1,-11,-2
1499894474757826,0,-8,-21,119,2,-2,12,30
1499894474764839,-11,2,-8,-111,-4,1,0,69
1499894474764839,-2,-1,5,-6,-8,-3,-5,-31
1499894474780824,-7,5,3,14,6,3,0,1
1499894474780824,-11,-3,-7,37,-6,-1,-7,-32
1499894474782824,4,-12,-13,-52,-5,-2,2,-1
1499894474782824,-17,1,-14,-6,2,-4,-1,-14
1499894474802862,3,0,14,-5,2,5,-3,11
1499894474802862,-2,-2,13,25,1,-1,1,-28
1499894474804826,2,-8,-18,-58,-3,-3,-10,-65
1499894474804826,-3,1,-2,17,-6,-2,5,-4
1499894474816860,-4,-1,25,42,-3,-8,1,47
1499894474816860,1,-10,-38,-57,-3,-3,0,3
1499894474825826,-21,-3,4,72,-2,-3,-9,-11
1499894474825826,10,2,5,-79,-3,1,5,70
1499894474840831,-22,-8,-26,20,-3,-1,-4,-5
1499894474840831,0,5,19,-16,-2,-1,-5,-45
1499894474842849,9,-6,-4,18,6,1,12,-4
1499894474842849,4,-3,-4,58,2,-4,-10,4
1499894474862846,-6,8,19,-44,-3,6,5,-9
1499894474862846,-14,-10,-21,-13,-2,-5,-8,-2
1499894474864833,-3,4,12,26,3,-2,5,-21
1499894474864833,-4,-6,-20,36,5,3,-8,-27
1499894474876850,7,-4,-2,-26,-1,-7,0,3
1499894474876850,-1,3,21,15,-7,-7,-1,2
1499894474885831,10,0,-7,-33,-8,5,-5,-21
1499894474885831,4,-1,4,-12,5,2,9,21
1499894474908846,11,9,14,7,0,-1,-1,15
1499894474908846,-12,0,-3,27,5,0,-4,-4
1499894474909833,-9,-2,-26,25,2,-6,3,-9
1499894474909833,-3,-6,4,-47,-10,-5,-8,-49
1499894474922835,17,0,-8,29,2,0,-1,-49
1499894474922835,-10,-1,5,-11,-2,-2,-1,23
1499894474924832,-19,1,4,-89,-3,3,11,-4
1499894474924832,-1,-1,-2,47,1,1,-1,31
1499894474936839,-8,-2,1,2,3,-1,7,-44
1499894474936839,6,2,9,-6,2,-4,-4,15
1499894474945839,2,-2,-3,27,5,7,-6,-32
1499894474945839,7,10,30,70,6,1,7,34
1499894474960898,19,-5,-29,-41,-11,-3,-2,10
1499894474960898,-10,-1,9,-3,3,-1,2,7
1499894474962836,-3,-6,-4,28,3,-1,-2,29
1499894474962836,2,5,7,-23,1,1,-3,-6
1499894474982835,-7,0,0,14,-5,-2,-9,-13
1499894474982835,10,-2,-22,-26,-3,-1,-6,-13
1499894474984837,11,4,38,28,4,-3,-2,21
1499894474984837,-15,-5,-17,-30,-4,0,-5,-56
1499894474996887,-12,2,-7,58,4,-2,2,2
1499894474996887,1,-7,3,-79,-8,-3,-2,52
1499894475005836,25,13,42,39,4,0,3,6
1499894475005836,-4,-10,-25,14,-3,-3,-2,-29
1499894475020859,-13,-1,18,-32,2,1,4,-5
1499894475020859,4,-2,-13,-2,-5,-8,-1,4
1499894475022857,3,-1,-9,27,3,2,-4,-30
1499894475022857,-21,3,19,-71,-10,2,0,10
1499894475043845,7,3,-7,33,6,3,-2,-34
1499894475043845,-7,-6,-10,-6,-7,-3,-2,-30
1499894475044843,21,-1,-20,-12,-4,-8,-14,19
1499894475044843,-12,-7,1,0,4,1,6,14
1499894475056849,14,-6,-3,3,-5,-1,1,50
1499894475056849,-14,5,10,-13,4,2,-2,-64
1499894475065841,-27,-1,-6,-2,-5,-3,-7,-3
1499894475065841,2,0,-4,35,1,-2,-6,-1
1499894475080841,-9,-2,-8,-38,-2,-3,-4,26
1499894475080841,2,-5,6,19,-4,0,2,-35
1499894475082862,-2,-8,-34,5,-6,-2,3,27
1499894475082862,-3,3,14,56,6,-3,-4,-18
1499894475102846,2,-2,-2,-81,-8,1,4,77
1499894475102846,-7,17,28,19,6,6,4,-4
1499894475104844,-4,-28,-47,-1,-16,-14,-7,-69
1499894475104844,6,7,22,-14,8,4,-2,-25
1499894475116846,-5,-5,1,10,-2,-6,0,-3
1499894475116846,3,2,-8,-12,4,4,3,34
1499894475125844,0,6,14,-15,6,6,6,9
1499894475125844,-3,-1,-1,45,-1,-3,-6,-12
1499894475140847,-2,7,6,17,0,-7,0,20
1499894475140847,-3,-5,4,-57,-10,3,-1,7
1499894475142850,10,-3,1,5,2,-5,-1,14
1499894475142850,4,2,-1,6,-3,-1,1,15
1499894475162846,-18,-13,-28,29,5,0,1,-5
1499894475162846,22,2,-10,20,1,0,-1,1
1499894475164846,0,7,7,-15,0,2,3,20
1499894475164846,11,1,-2,-29,-2,-1,-8,-52
1499894475176846,-7,-3,8,47,5,-1,6,-41
1499894475176846,-2,-2,-12,-61,-4,-1,1,3
1499894475186863,-21,5,9,85,0,-2,-3,5
1499894475186863,3,-4,-5,-47,-10,1,4,45
1499894475200890,0,-6,-3,-27,-2,-1,-3,-5
1499894475200890,11,-5,-6,16,1,0,2,4
1499894475202849,-4,7,4,-42,3,3,3,1
1499894475202849,-1,3,1,93,1,-5,-1,13
1499894475222869,1,0,-20,-99,-5,2,-4,5
1499894475222869,-5,-1,18,55,-3,-5,-1,27
1499894475224849,4,-8,-3,-10,-3,-2,-4,6
1499894475224849,-1,-2,-3,-13,5,3,4,-4
1499894475245910,5,-2,-1,8,-4,1,-7,-4
1499894475245910,1,4,-1,1,0,-4,-2,4
1499894475247882,7,-2,5,-8,-4,-1,9,26
1499894475247882,-10,-7,-17,-14,-3,0,0,-30
1499894475260915,1,7,17,0,-1,-3,-5,-20
1499894475260915,-1,3,9,-1,-2,4,-1,-9
1499894475262872,-9,-2,4,42,-6,-5,-2,-3
1499894475262872,-11,1,1,-6,4,0,-2,-8
1499894475282856,-7,-1,4,48,0,1,-2,0
1499894475282856,2,-4,5,7,2,0,0,13
1499894475284853,-11,3,7,9,2,-2,-1,20
1499894475284853,23,-6,-34,-14,-6,-5,-10,-47
1499894475305880,-4,-2,15,12,-5,-3,0,8
1499894475305880,-18,-8,-30,-17,3,1,6,-47
1499894475307858,11,4,11,-44,-7,0,4,78
1499894475307858,-12,-7,4,10,4,1,3,87
1499894475320876,-15,2,-9,26,1,-2,-7,-82
1499894475320876,11,1,-3,44,-4,-7,-2,30
1499894475322871,-3,-6,-8,-45,2,2,-1,-14
1499894475322871,8,4,1,3,-1,1,8,7
1499894475342857,6,-3,-1,-2,-3,-1,3,14
1499894475342857,-15,-12,-27,-13,-1,-2,-2,17
1499894475344861,1,1,-21,30,-2,-9,-8,-41
1499894475344861,0,-3,-1,-39,-3,2,-3,-6
1499894475365898,-4,2,10,59,6,3,2,-2
1499894475365898,-2,1,7,-79,-6,0,-3,-14
1499894475367895,5,-4,-6,-8,2,2,-2,-28
1499894475367895,-22,4,21,62,-4,-1,10,33
1499894475380858,1,-26,-53,-64,-10,-17,-14,0
1499894475380858,21,5,26,52,4,3,3,74
1499894475382860,-1,-5,-20,-31,-2,-3,-2,-10
1499894475382860,1,9,11,-21,6,7,3,26
1499894475403862,-13,1,-3,22,1,2,1,7
1499894475403862,8,-1,-19,-55,-2,-4,-4,-2
1499894475404861,34,3,29,34,-2,-1,1,-72
1499894475404861,-18,-8,-18,25,-5,-5,-11,-22
1499894475425862,2,8,11,-24,1,2,2,14
1499894475425862,-4,0,4,-26,-2,0,-5,-44
1499894475427861,-11,-9,-13,27,1,0,0,17
1499894475427861,13,3,6,13,2,-2,8,30
1499894475439866,19,0,-12,-79,-10,0,-7,3
1499894475439866,-16,0,-6,-4,-1,-1,3,31
1499894475446917,-1,2,9,10,0,0,-4,-18
1499894475446917,-3,-6,-8,-8,-2,-6,-3,-17
1499894475462868,0,-5,-7,-22,-3,0,2,24
1499894475462868,17,2,13,23,1,2,-2,16
1499894475464867,-23,-2,-12,13,4,6,3,-7
1499894475464867,13,4,6,-99,1,0,-2,-2
1499894475485894,10,-2,9,120,-2,-4,-3,40
1499894475485894,5,-2,11,-34,-1,-2,-4,-41
1499894475487866,-3,-3,-4,-1,2,3,0,-1
1499894475487866,-3,6,9,27,-1,0,-2,-5
1499894475499902,4,0,1,-73,-1,0,0,-19
1499894475499902,-17,-3,-7,24,-1,-4,-10,-13
1499894475506912,0,6,1,23,3,0,-1,24
1499894475506912,5,1,-5,-47,2,5,-2,-70
1499894475530867,-47,-17,-20,13,-13,-15,-13,-70
1499894475530867,4,3,13,46,4,2,6,0
1499894475532867,6,-1,9,-45,0,1,7,24
1499894475532867,1,1,7,11,-2,-4,-4,-8
1499894475545925,3,6,0,5,6,5,4,17
1499894475545925,-5,0,-1,-3,-1,-2,-6,-9
1499894475547872,-16,2,6,4,-1,-4,-2,-36
1499894475547872,3,-10,-11,-15,2,2,0,43
1499894475559909,6,-1,1,37,-6,-4,0,8
1499894475559909,-19,-1,-5,-47,-5,-2,1,-19
1499894475566874,1,-2,-1,32,-3,2,-5,13
1499894475566874,6,-8,-3,-41,-9,-6,-11,8
1499894475582870,3,6,6,-11,2,2,2,-7
1499894475582870,2,4,7,4,5,1,3,6
1499894475584870,-4,-10,-17,-8,-9,-8,-6,-32
1499894475584870,-7,2,6,52,5,2,2,7
1499894475605904,-3,2,15,-43,-1,4,-3,-90
1499894475605904,2,-5,-29,22,7,0,-3,16
1499894475607876,-4,3,12,-31,-10,-2,4,27
1499894475607876,-3,-6,-6,18,-1,-4,0,-5
1499894475619939,0,-7,-19,-10,-2,2,2,32
1499894475619939,3,0,-1,19,-5,-2,-1,25
1499894475634885,-7,-8,-29,-89,-6,-4,-4,-37
1499894475634885,0,4,9,27,-2,0,5,12
1499894475642893,-7,9,18,34,13,5,-8,-3
1499894475642893,-19,-13,0,-24,-9,-6,3,-3
1499894475644877,41,2,-18,20,-2,-4,-2,46
1499894475644877,5,-2,3,6,2,2,1,-13
1499894475665876,9,8,10,-45,1,1,6,55
1499894475665876,-12,-5,-21,21,3,1,-3,-14
1499894475667911,2,-3,9,4,-6,-6,-7,0
1499894475667911,4,-1,-4,24,-10,-6,-2,5
1499894475679880,5,-1,0,7,1,-1,2,-4
1499894475679880,8,4,17,27,-1,1,-1,18
1499894475686888,-10,-10,-25,-21,-2,-2,1,8
1499894475686888,0,0,2,1,3,0,-2,2
1499894475702903,-1,-2,-2,-18,-7,-5,3,16
1499894475702903,9,-1,-14,-42,-5,0,-2,-11
1499894475704878,-11,4,23,25,7,3,-4,-15
1499894475704878,10,-3,-10,24,-3,-5,8,50
1499894475725879,-13,-15,-20,-4,-2,-5,0,-26
1499894475725879,-7,4,12,2,-1,-2,-9,-87
1499894475727877,-1,6,5,35,8,2,-1,3
1499894475727877,-8,-6,-28,-89,-12,-6,2,32
1499894475739880,5,-3,21,29,0,-3,-6,-15
1499894475739880,-16,-1,-4,21,-3,-1,4,1
1499894475746935,-2,1,12,58,-1,-5,-2,8
1499894475746935,1,6,-1,-68,1,6,2,-14
1499894475762897,7,-1,1,14,-1,0,3,48
1499894475762897,6,6,9,18,-2,-2,-4,-53
1499894475764881,1,2,24,10,4,-1,16,-1
1499894475764881,-1,-13,-31,38,-5,-7,-10,-14
1499894475785886,-1,5,4,-65,1,5,1,3
1499894475785886,2,-10,-10,7,1,-1,2,32
1499894475787882,-7,3,10,-24,-1,0,0,2
1499894475787882,-5,-1,-1,20,-1,-2,-2,-41
1499894475799922,3,0,-7,18,-2,3,2,4
1499894475799922,15,6,18,6,3,-3,0,15
1499894475808929,-13,-15,-49,-57,-8,-5,-9,-39
1499894475808929,-1,1,16,34,3,0,-4,-14
1499894475822888,7,8,9,27,7,4,3,12
1499894475822888,-12,7,0,-34,-5,1,4,32
1499894475824887,5,-6,-21,-64,-8,0,-2,17
1499894475824887,-4,-4,8,5,-2,-7,-6,1
1499894475845951,-2,-5,-4,43,3,4,0,-13
1499894475845951,5,5,3,12,4,1,6,14
1499894475847885,-2,-6,-19,8,2,2,10,14
1499894475847885,-4,-6,6,0,-22,-16,-12,3
1499894475859887,-22,1,3,-38,1,2,0,-13
1499894475859887,-3,-15,-16,-13,-5,-4,-4,21
1499894475868888,-1,3,7,21,7,3,-1,9
1499894475868888,-7,4,3,-6,3,2,3,-1
1499894475882898,7,2,6,16,-1,-2,2,38
1499894475882898,-22,-8,-21,33,-3,1,-3,-52
1499894475884888,14,5,23,-54,-5,-3,-4,5
1499894475884888,-2,-2,2,76,1,1,-1,-13
1499894475905938,-2,4,11,-57,-4,-7,-2,9
1499894475905938,-3,-5,-7,8,3,4,0,2
1499894475911909,-5,1,1,38,1,0,-4,8
1499894475911909,-2,4,2,-46,3,1,-1,-18
1499894475919895,-3,-1,-7,21,2,0,8,-23
1499894475919895,3,8,18,-2,6,3,5,-14
1499894475928890,15,-9,-10,6,-9,-6,-5,8
1499894475928890,-10,-8,-3,21,4,3,1,16
1499894475942923,1,2,-2,-38,-4,-2,-1,25
1499894475942923,-1,-3,-9,2,-3,-3,-3,-10
1499894475944895,2,10,9,22,3,2,-3,12
1499894475944895,-1,-1,3,-52,0,2,6,-1
1499894475965924,3,-7,-17,75,4,-3,-8,12
1499894475965924,15,5,15,-50,-12,-10,-4,4
1499894475966898,-10,0,-4,10,4,5,0,-7
1499894475966898,2,-1,0,7,-1,-2,0,1
1499894475979893,0,4,0,-70,-6,-5,-3,18
1499894475979893,0,-8,-6,17,3,3,7,44
1499894475988899,11,7,13,24,2,-3,-5,-37
1499894475988899,-6,-4,-14,-18,2,1,1,-7
1499894476002917,3,-1,-3,30,0,3,1,-18
1499894476002917,-5,0,-4,-32,-5,-4,-3,6
1499894476004897,-3,-3,-1,17,-2,0,3,40
1499894476004897,10,6,16,-1,-1,-4,-4,-1
1499894476025916,-7,-8,-27,-2,1,-4,-5,-15
1499894476025916,-2,-8,-1,17,-9,-2,-2,6
1499894476026912,-14,-2,-2,-45,2,4,2,-29
1499894476026912,0,4,0,-14,0,3,0,-13
1499894476039897,19,1,8,46,-2,-2,-4,18
1499894476039897,-5,6,14,6,3,0,-2,-17
1499894476048911,-3,-7,-22,-1,-10,-6,-5,-3
1499894476048911,4,-2,8,-1,2,0,-1,-17
1499894476062915,-7,-5,-30,9,1,2,-4,-30
1499894476062915,31,-2,11,2,4,2,3,27
1499894476064898,-8,3,18,1,-1,-10,-2,-19
1499894476064898,0,0,-6,-11,1,9,-1,7
1499894476085899,-6,-1,8,3,-2,-2,-2,-6
1499894476085899,-19,-2,-9,-12,1,-3,-2,1
1499894476087901,2,-1,-9,23,-2,-1,-5,-30
1499894476087901,-1,-6,-4,-23,-4,-8,1,2
1499894476099906,-2,6,11,20,0,1,4,-7
1499894476099906,-8,-9,-2,-12,-4,-4,-3,-4
1499894476108921,-1,0,9,-36,2,3,2,13
1499894476108921,-12,3,-6,37,2,1,0,13
1499894476122902,4,-6,-1,-7,-4,-3,-3,-49
1499894476122902,-3,-3,-17,-2,-4,-5,-3,-1
1499894476124901,2,-1,3,16,1,-4,-2,2
1499894476124901,3,-1,-2,-25,1,0,-2,12
1499894476145971,-38,-6,-2,-42,-9,3,14,-18
1499894476145971,17,4,-16,1,1,-1,-5,-8
1499894476146920,-1,0,4,1,-4,-2,-2,-23
1499894476146920,13,-10,-11,3,-4,-3,-1,16
1499894476159945,5,4,31,25,4,-3,-3,23
1499894476159945,1,2,-7,-2,-8,-5,-4,-18
1499894476168906,-15,-2,-10,-70,-3,6,0,-29
1499894476168906,4,4,10,1,0,-1,-2,-4
1499894476182910,0,-7,-7,30,-4,-2,-5,2
1499894476182910,-17,-2,8,-1,3,0,-2,-36
1499894476184905,26,7,-4,52,5,-1,0,32
1499894476184905,-1,0,9,-71,-6,-2,-3,-11
1499894476205944,4,-5,-23,-46,-5,3,4,12
1499894476205944,1,-2,-10,-9,-1,2,1,31
1499894476207938,-11,-3,13,3,-1,-1,-9,13
1499894476207938,-8,5,-12,27,5,1,2,12
1499894476235960,6,2,3,-28,-2,-4,-3,-4
1499894476235960,2,-2,2,26,-3,0,2,6
1499894476236909,5,-1,15,33,4,2,1,19
1499894476236909,-12,-1,0,3,-4,-6,1,13
1499894476243914,1,-1,-7,-33,-6,2,-7,10
1499894476243914,-1,2,0,4,2,-1,0,1
1499894476249953,-3,3,5,-22,-4,-1,2,-7
1499894476249953,-15,-3,-7,14,0,2,-1,-9
1499894476265943,10,-2,-5,41,-2,-6,-3,-12
1499894476265943,-1,-1,17,21,6,3,2,-13
1499894476266944,-2,-5,-20,-30,-9,0,-2,9
1499894476266944,-2,-9,8,11,0,-5,-6,-36
1499894476287919,-4,2,-3,-4,5,5,-8,-4
1499894476287919,-18,4,11,26,2,5,4,-9
1499894476289911,5,4,2,-21,5,3,1,15
1499894476289911,7,6,-2,-37,-7,-3,-1,5
1499894476303926,-10,-9,-1,-2,-6,-6,-6,-66
1499894476303926,-3,5,-1,4,1,-5,-5,-49
1499894476304912,-19,-12,-16,24,-1,-2,-3,-9
1499894476304912,-8,1,8,3,-1,3,1,-1
1499894476325916,10,3,3,10,2,-4,4,15
1499894476325916,17,2,-5,-35,-8,0,-1,27
1499894476326932,-14,-1,7,46,6,2,1,-32
1499894476326932,4,-6,-22,-70,-11,-7,-5,8
1499894476347974,-4,3,9,53,10,3,4,-6
1499894476347974,-1,-2,1,-22,0,0,-3,-14
1499894476349916,0,-1,-3,-21,-4,-2,12,25
1499894476349916,5,0,-13,52,3,-2,-1,1
1499894476362917,-3,3,16,-41,-2,-1,-1,4
1499894476362917,1,-13,-18,21,-2,2,-2,-5
1499894476364916,9,5,5,-18,-2,2,5,13
1499894476364916,-19,2,15,25,0,-3,-1,-31
1499894476385962,1,2,-7,-8,-3,-4,-6,-32
1499894476385962,10,-4,-2,-22,-3,-4,1,68
1499894476386919,11,-5,-24,13,2,-2,-1,-8
1499894476386919,-3,-1,15,57,4,2,-1,-18
1499894476407982,14,2,2,-108,-9,1,0,80
1499894476407982,-13,-2,6,50,3,-7,-16,-26
1499894476409918,-9,-3,-4,9,2,3,-5,3
1499894476409918,7,4,-6,-42,-6,1,0,3
1499894476422935,2,5,36,83,4,0,1,15
1499894476422935,-2,-8,-30,-25,-2,-2,2,10
1499894476428920,1,-1,6,-18,-6,-3,-1,1
1499894476428920,3,3,-6,8,8,1,-1,5
1499894476445982,-2,-4,-2,-9,-2,0,-3,-60
1499894476445982,0,1,13,35,1,-4,1,-11
1499894476446940,-4,-5,-6,-42,-10,-4,-3,-6
1499894476446940,2,-4,-22,-2,-1,2,6,97
1499894476467980,-6,-4,-10,-4,-3,-1,5,-3
1499894476467980,0,9,7,33,5,1,1,6
1499894476469929,-9,-12,-4,9,-7,-6,-7,-15
1499894476469929,2,3,10,-43,0,1,-1,-16
1499894476482923,-4,4,27,78,3,2,5,22
1499894476482923,-6,-17,-50,-99,-7,-2,-6,-8
1499894476488923,-1,10,15,-6,-4,-2,-4,18
1499894476488923,7,-6,10,5,-1,0,4,-9
1499894476505960,-1,-3,-11,32,3,1,0,-7
1499894476505960,12,6,11,-21,-1,2,2,-29
1499894476506927,-4,-6,-21,-59,-11,-16,-8,-3
1499894476506927,3,0,-9,78,5,10,-4,-1
1499894476527929,-9,-9,-15,-67,-7,-5,4,11
1499894476527929,-1,1,2,40,0,0,1,19
1499894476529925,2,2,23,90,4,0,1,-1
1499894476529925,0,-5,-21,-85,-8,-5,-4,-20
1499894476542927,-4,-3,0,10,-3,-5,-6,-28
1499894476542927,-9,0,-3,-27,0,0,-1,-26
1499894476549966,-6,3,14,57,9,3,1,-5
1499894476549966,15,2,0,-10,-6,-3,-3,-3
1499894476565961,3,-5,-1,-29,-1,-1,-4,23
1499894476565961,-4,-4,-10,-5,-8,-3,14,1
1499894476566947,-4,7,6,2,8,4,-7,-22
1499894476566947,-3,-2,2,18,4,1,0,-2
1499894476587931,1,-1,-1,2,1,0,4,-28
1499894476587931,6,0,-3,-28,-4,-3,-5,7
1499894476589929,3,-4,-14,-7,-9,1,5,29
1499894476589929,-5,1,21,44,-1,0,0,-33
1499894476602931,-6,1,-18,-21,-1,0,-2,-8
1499894476602931,-12,-2,22,16,-2,-1,-3,27
1499894476608987,22,3,-6,-33,3,2,3,82
1499894476608987,-11,-3,7,33,-2,-9,-10,-4
1499894476625951,-6,4,-1,35,4,4,3,10
1499894476625951,9,-2,-13,-39,-6,2,-2,-6
1499894476626934,-4,-3,9,1,2,-1,1,-1
1499894476626934,4,-1,4,-17,-3,-6,-3,2
1499894476647977,0,-2,1,33,0,1,10,34
1499894476647977,-6,1,2,-9,1,0,-5,-4
1499894476649932,-10,-1,-8,-18,-4,0,-4,-59
1499894476649932,-5,0,-2,2,2,3,1,-20
1499894476662936,0,4,5,8,0,-4,-5,52
1499894476662936,3,-12,-13,-39,-11,-7,-3,9
1499894476669949,3,0,4,60,14,7,3,0
1499894476669949,3,5,5,-45,-6,1,3,3
1499894476685967,-3,-6,-31,-32,-6,-6,-6,-1
1499894476685967,6,6,22,32,5,1,1,3
1499894476686935,-3,-2,-1,4,-4,1,-3,-7
1499894476686935,-2,-6,-17,-17,-1,-4,-1,20
1499894476707998,3,0,10,-5,0,1,-3,-5
1499894476707998,-2,0,-8,25,3,1,-1,14
1499894476709935,-6,-1,2,26,4,-2,1,-19
1499894476709935,0,6,15,-26,-6,1,-2,-24
1499894476721937,-11,-8,-5,8,-2,-2,9,-17
1499894476721937,14,-1,4,19,1,1,-5,-14
1499894476730938,-5,-1,3,-40,-3,-4,-2,13
1499894476730938,1,0,-6,29,3,-3,1,-1
1499894476745997,-4,-6,-18,14,-4,1,-6,33
1499894476745997,1,4,3,-1,1,1,7,-8
1499894476746939,-10,-1,-4,-10,-1,-1,-2,-18
1499894476746939,1,-6,-22,-1,-10,-11,-3,32
1499894476768002,3,3,9,-21,3,3,-3,-18
1499894476768002,-6,2,4,-35,0,6,2,10
1499894476769949,3,-7,-6,14,-6,-7,-7,-10
1499894476769949,-6,-6,-16,2,1,-1,-2,-9
1499894476781944,5,2,9,-47,-1,2,-1,1
1499894476781944,-5,4,11,81,9,2,0,-7
1499894476790940,2,-2,-9,-105,-7,-2,1,-14
1499894476790940,-10,-4,4,35,2,-2,7,-37
1499894476805955,11,-2,-14,10,-1,-4,-11,-3
1499894476805955,-3,4,25,7,1,-4,1,23
1499894476806941,-1,-9,-29,-8,1,1,1,-24
1499894476806941,1,4,9,3,4,2,2,5
1499894476827959,0,-7,-10,-13,-2,-1,-1,-1
1499894476827959,-6,1,8,16,3,-2,-1,-3
1499894476829943,3,5,12,40,1,-2,-2,18
1499894476829943,13,-3,-16,-59,-8,2,-4,17
1499894476841946,-12,3,7,34,1,-2,-1,-34
1499894476841946,-3,-4,-16,-8,-2,0,-4,-14
1499894476850947,-7,4,5,19,2,2,2,-6
1499894476850947,-4,0,13,0,2,-1,-1,-16
1499894476865974,-7,-8,-26,-14,-5,-1,-2,10
1499894476865974,-1,-11,-23,-3,-4,-4,-2,-1
1499894476866975,7,-6,-4,63,0,-3,-3,-1
1499894476866975,-6,5,2,-103,-7,0,-6,1
1499894476887965,2,3,18,53,0,-4,-5,3
1499894476887965,1,1,5,9,0,4,3,26
1499894476889946,-5,-2,-13,-18,-2,2,1,-4
1499894476889946,4,-2,2,11,2,0,-4,11
1499894476901983,1,0,-1,-2,1,-2,2,4
1499894476901983,-5,-1,-1,-28,-6,-5,-6,-33
1499894476911947,5,5,5,3,0,0,1,16
1499894476911947,-2,-4,-5,41,0,0,4,-15
1499894476925948,-7,-7,-2,-20,-4,-3,-4,-61
1499894476925948,-6,-5,-6,14,0,-3,-1,-23
1499894476926969,13,2,-5,-21,-3,5,2,27
1499894476926969,-12,2,7,38,4,-5,0,-38
1499894476948008,-12,0,3,-6,3,4,1,15
1499894476948008,1,-2,-8,-10,2,-2,-3,-2
1499894476949949,1,3,13,-6,-5,-4,0,16
1499894476949949,3,-8,-21,-8,0,3,4,21
1499894476961949,-3,5,2,31,5,-2,-7,-11
1499894476961949,6,-1,5,-54,-1,0,-1,33
1499894476970952,-6,2,18,32,2,2,0,48
1499894476970952,-2,1,-7,-6,0,-2,-2,0
1499894476985952,-7,-10,-16,-24,-4,-3,-2,-11
1499894476985952,26,2,4,65,1,1,2,18
1499894476986961,2,-5,-15,10,-3,-10,-8,10
1499894476986961,5,3,12,-31,-1,4,-4,-2
1499894477008020,14,6,3,13,1,2,4,5
1499894477008020,-9,-7,2,-7,-6,-5,-1,6
1499894477009953,0,4,0,-11,1,2,1,-28
1499894477009953,-3,-9,-22,44,-6,-5,-1,10
1499894477021959,11,6,11,-20,-3,2,2,18
1499894477021959,-12,2,3,7,0,-1,-2,-27
1499894477030954,4,-3,0,-15,-1,-4,1,-13
1499894477030954,-8,-1,8,0,1,2,10,9
1499894477046001,-2,2,-1,43,0,-1,-10,21
1499894477046001,-1,-1,2,-62,-6,-4,-4,-14
1499894477046974,-3,-1,-5,-6,-1,1,-2,-18
1499894477046974,4,3,4,0,2,0,1,8
1499894477067997,0,-3,-1,18,-1,0,6,10
1499894477067997,-6,-1,1,-34,-7,-1,1,2
1499894477069969,-4,-5,-5,0,-4,-1,-3,-6
1499894477069969,-4,-4,-3,3,-1,-2,-4,-6
1499894477081958,-6,0,-1,26,8,1,5,-26
1499894477081958,3,12,21,-21,-1,2,-5,26
1499894477090959,-21,-21,-57,-1,-10,-8,-5,-14
1499894477090959,12,4,11,28,1,-8,-1,-30
1499894477106005,10,-1,6,-39,4,5,3,79
1499894477106005,-22,-2,-13,46,6,3,1,-91
1499894477106959,-2,-3,6,-60,-7,-1,-9,-3
1499894477106959,-6,2,-5,-10,-2,-3,-2,11
1499894477127964,9,-1,3,-3,-4,-4,-1,7
1499894477127964,-11,3,1,48,5,1,2,25
1499894477129960,9,5,17,-59,-5,-3,-2,-17
1499894477129960,-4,-11,-20,3,-2,-2,-6,-4
1499894477141961,4,5,18,-3,-3,-1,1,-26
1499894477141961,-1,-3,-4,15,1,1,1,16
1499894477150962,-4,0,4,15,2,1,6,-13
1499894477150962,4,2,7,-15,2,2,1,1
1499894477165995,-3,-6,-15,-9,-8,-4,-2,-30
1499894477165995,2,2,7,5,-1,2,0,5
1499894477167006,5,2,10,41,9,1,0,14
1499894477167006,2,-6,1,-46,-11,-5,-7,10
1499894477187983,-2,0,-7,-12,1,0,-4,-2
1499894477187983,-1,-3,4,-1,0,-2,-4,-14
1499894477189964,7,4,-2,-3,0,5,7,10
1499894477189964,-14,5,10,33,5,4,-2,-5
1499894477211036,-8,-8,-2,-20,-8,-7,0,-1
1499894477211036,-6,-5,-24,-43,-3,-2,-3,4
1499894477212986,1,-8,-9,62,-1,-2,1,-8
1499894477212986,-3,4,-5,7,2,3,1,-19
1499894477225966,-17,2,3,10,-1,1,1,19
1499894477225966,14,-1,4,-60,-4,-2,1,-7
1499894477226985,-3,-2,5,-1,2,3,1,11
1499894477226985,-2,-3,-13,21,-3,-2,-1,-19
1499894477248023,-3,-3,-17,-43,-6,-5,-3,2
1499894477248023,-7,-5,4,1,-1,-2,-2,2
1499894477249967,0,-5,2,-31,-2,1,-1,24
1499894477249967,-5,-3,-1,23,-2,1,-6,21
1499894477270987,6,-1,2,-7,-2,-3,-6,-49
1499894477270987,19,-1,-4,17,-3,-4,-1,51
1499894477271974,-3,2,-8,-33,-3,-4,-2,-32
1499894477271974,0,-3,2,14,1,-1,-4,8
1499894477284969,-6,-5,6,0,3,6,0,4
1499894477284969,3,2,2,23,-2,-6,-4,-60
1499894477300979,-2,-3,-7,15,1,-2,-5,-5
1499894477300979,-3,4,15,-22,1,-1,3,5
1499894477308013,7,-8,-22,-23,-11,-7,3,47
1499894477308013,-3,5,6,16,3,5,-1,2
1499894477309978,-11,-1,-2,24,2,-1,0,19
1499894477309978,9,0,-2,-8,0,-2,-6,-21
1499894477330971,2,1,14,-3,0,-3,0,5
1499894477330971,-17,-5,-14,23,-3,-4,0,2
1499894477331972,12,0,9,2,1,2,-3,40
1499894477331972,12,-1,-10,-15,-2,0,15,6
1499894477345024,6,2,12,22,0,2,-3,-45
1499894477345024,-3,0,-5,22,1,-3,-3,12
1499894477352038,-10,-1,-5,-66,-4,-1,2,24
1499894477352038,5,-5,-5,-5,-3,-2,-4,29
1499894477368012,-21,-1,13,46,7,-2,2,-3
1499894477368012,-3,-9,-13,-39,-3,7,1,-5
1499894477369987,5,4,13,16,0,0,1,-5
1499894477369987,-5,-2,-1,-2,2,0,-2,-1
1499894477390983,-3,6,-8,-1,-2,-2,-1,-20
1499894477390983,3,-4,0,-15,1,-2,-3,12
1499894477397012,-1,-5,6,31,-5,-3,-2,-18
1499894477397012,-7,4,7,7,-4,-1,0,-11
1499894477405005,12,-3,-11,-2,2,-1,-3,39
1499894477405005,-11,-3,7,-2,-3,0,2,-8
1499894477411983,9,2,-2,-18,0,-3,-2,-21
1499894477411983,5,1,4,13,2,4,-2,30
1499894477427981,1,-1,1,1,0,-1,12,20
1499894477427981,-11,-3,6,25,0,-4,-4,20
1499894477429977,-10,-1,0,-44,-5,-5,-5,-33
1499894477429977,0,3,13,21,0,-2,-4,25
1499894477451977,6,2,-11,7,2,1,-5,-4
1499894477451977,5,-1,-6,-45,-2,-3,1,12
1499894477452985,-19,0,-2,24,3,-1,0,-6
1499894477452985,23,0,14,45,-1,0,4,-28
1499894477465000,-11,-2,-18,-30,-1,0,-4,-5
1499894477465000,2,-8,-32,-35,-5,-4,-3,-19
1499894477472000,15,7,37,51,0,-4,-7,32
1499894477472000,-22,-15,-50,-55,-5,-1,-2,-34
1499894477488000,6,-1,10,-2,-1,-4,-4,-20
1499894477488000,12,7,10,54,8,5,1,13
1499894477489981,-9,2,-16,-98,-7,1,1,-47
1499894477489981,-1,-1,13,-9,-1,-4,-1,11
1499894477511020,-6,1,-5,25,3,-1,-2,-23
1499894477511020,-10,-9,-14,6,-7,-7,-4,-20
1499894477512991,2,1,-1,-17,1,-1,0,-2
1499894477512991,-14,3,8,25,5,2,-6,-15
1499894477525007,8,1,-12,-43,-8,-1,-3,15
1499894477525007,7,-5,4,6,3,2,5,11
1499894477532005,-16,-5,-10,40,-3,-5,-2,-35
1499894477532005,-3,1,4,3,2,1,-3,4
1499894477547984,4,3,6,-68,-7,-2,-1,24
1499894477547984,-6,-4,-6,23,-3,-2,-3,-6
1499894477549984,14,3,8,-49,-2,2,1,16
1499894477549984,-3,4,8,47,2,-3,1,-26
1499894477571003,-7,-15,-10,17,0,-3,-2,-14
1499894477571003,2,3,13,-5,2,4,5,12
1499894477572001,-3,-3,-7,20,1,0,-2,-14
1499894477572001,4,5,-4,-35,0,0,-1,12
1499894477585007,0,-1,12,25,2,1,3,-14
1499894477585007,3,2,1,21,-2,-7,-4,7
1499894477591989,-12,-6,-14,-41,-5,-1,-2,-3
1499894477591989,-8,0,23,-25,2,0,-1,1
1499894477608053,29,-4,-47,10,-8,0,4,100
1499894477608053,-44,-3,-12,-4,3,-5,-6,-72
1499894477609988,10,9,23,42,-1,2,-5,0
1499894477609988,-4,-20,-32,-42,-8,-4,-2,-5
1499894477630989,-9,6,23,1,2,0,2,0
1499894477630989,27,7,0,-30,-1,2,3,7
1499894477632010,-9,3,2,50,3,-1,-1,-18
1499894477632010,-2,-5,-6,-13,-10,-7,-3,7
1499894477645028,-9,-2,-12,5,-1,-6,-6,-23
1499894477645028,8,2,10,-2,-1,6,1,9
1499894477652032,-6,-6,-10,0,2,-3,0,-6
1499894477652032,8,-1,-3,14,-3,2,1,2
1499894477668055,2,2,21,13,0,-1,-2,-27
1499894477668055,-8,-1,-5,-4,-2,-2,-1,-29
1499894477670008,3,0,2,42,7,2,4,13
1499894477670008,-2,3,1,-53,-2,-2,-1,18
1499894477690993,2,-2,4,40,-3,-4,-2,6
1499894477690993,-2,-4,3,-30,-6,-6,-6,-2
1499894477692993,-1,-4,-32,-2,-1,1,6,6
1499894477692993,9,3,5,12,5,1,1,3
1499894477704992,-4,3,-5,25,3,3,-2,-12
1499894477704992,-2,-7,1,-8,-5,-5,-2,-17
1499894477713994,-2,-6,-9,-30,-3,0,0,34
1499894477713994,6,3,6,15,-4,-4,-1,1
1499894477727996,-15,-2,-15,-4,5,4,0,0
1499894477727996,-1,1,13,2,-3,-6,-2,27
1499894477729997,10,-5,-2,-17,0,2,0,9
1499894477729997,-11,3,4,7,-1,0,0,-7
1499894477751059,1,-1,11,-27,0,2,-4,-13
1499894477751059,4,-3,-17,7,3,-1,1,34
1499894477752015,10,-1,6,9,-7,-4,-5,-3
1499894477752015,12,-2,-1,4,0,0,-1,17
1499894477763997,-5,-2,6,-1,0,0,2,-12
1499894477763997,-4,3,-3,24,1,2,0,5
1499894477772997,-11,-8,-26,-81,-9,-6,-3,5
1499894477772997,4,5,27,59,5,-1,-1,-75
1499894477788022,6,-3,-27,-20,-2,-1,-9,38
1499894477788022,4,5,12,0,2,2,0,-5
1499894477789999,6,5,-4,4,0,-1,4,52
1499894477789999,-11,-9,-6,-6,0,-2,-3,-9
1499894477811059,-2,2,5,-9,0,4,4,-29
1499894477811059,2,2,3,-7,0,1,-1,-16
1499894477813002,3,-2,-3,71,2,-2,-2,2
1499894477813002,3,0,-8,-99,-9,-6,-1,24
1499894477824015,4,0,15,30,-2,-8,-7,-12
1499894477824015,-1,0,-11,-10,2,8,6,14
1499894477834000,-2,2,18,24,3,1,-2,-23
1499894477834000,-3,-5,-9,20,-2,1,-1,0
1499894477848066,-2,2,7,-2,4,-1,0,-4
1499894477848066,-3,-1,-13,-21,-5,-5,-3,2
1499894477850002,-3,-5,0,5,2,0,1,-3
1499894477850002,9,-11,-9,-5,-3,0,-1,9
1499894477871004,-7,-2,-4,-11,-5,-1,-3,-6
1499894477871004,10,0,6,56,2,-1,-3,18
1499894477872007,-9,4,9,-22,4,3,2,-16
1499894477872007,26,4,-11,3,-2,-4,11,60
1499894477884003,-18,-1,21,7,0,0,-1,-25
1499894477884003,23,-2,1,-14,-4,-1,-3,2
1499894477894003,-18,0,7,34,0,-4,0,-23
1499894477894003,-11,6,-1,6,2,4,1,-16
1499894477908044,0,-4,-8,-19,2,3,2,-16
1499894477908044,-6,-3,-5,-6,-2,0,1,-6
1499894477910005,8,-1,11,18,-3,0,-1,91
1499894477910005,-12,2,-3,24,2,-2,-6,-44
1499894477931027,5,0,-2,-21,-2,-4,0,8
1499894477931027,-7,-4,4,-8,-4,-3,-5,7
1499894477932010,-8,-1,7,-1,0,1,0,-23
1499894477932010,4,-4,-8,-3,-7,-3,-5,7
1499894477944073,4,0,-12,23,2,-3,0,4
1499894477944073,9,5,4,-55,-6,-2,0,6
1499894477954011,-1,3,11,0,1,-3,-1,-24
1499894477954011,-15,-13,-31,2,-3,-7,-3,4
1499894477968073,2,1,10,22,2,10,1,-6
1499894477968073,12,4,6,-9,5,1,2,80
1499894477970014,4,-3,-5,32,-14,-5,-3,-8
1499894477970014,-1,-2,-1,-4,2,-1,-2,-3
1499894477997071,-2,-7,-12,-12,-5,-9,-2,13
1499894477997071,-3,-2,0,-1,-1,1,-4,-14
1499894478007011,10,-7,-2,-15,0,-2,5,3
1499894478007011,-4,3,0,-1,0,-2,-4,-4
1499894478007011,-1,4,11,-4,0,-1,1,-2
1499894478007011,-13,-7,-18,7,-1,1,-2,-16
1499894478014012,-4,1,-6,-2,-3,-2,-3,-17
1499894478014012,0,0,7,12,-2,1,0,-4
1499894478028032,0,2,7,-13,2,1,-2,-1
1499894478028032,-15,-5,0,15,-3,-4,-1,-23
1499894478030015,12,-4,-21,-56,-10,-3,-4,1
1499894478030015,-3,2,10,13,2,1,-2,12
1499894478051065,-4,-3,-7,-16,-4,-2,-2,4
1499894478051065,-7,0,8,31,-3,-6,1,-10
1499894478052051,-6,0,-1,2,5,4,-2,-19
1499894478052051,-3,-2,-5,-3,0,-3,-1,0
1499894478064016,1,-1,0,-17,-2,3,3,3
1499894478064016,-3,-3,5,3,-3,-4,0,-12
1499894478073030,-3,0,-3,-3,0,-5,-3,-7
1499894478073030,-4,-1,2,-7,-3,7,-1,0
1499894478088023,-2,-2,-5,5,0,-5,-3,-1
1499894478088023,-2,2,-2,-6,-1,0,0,-6
1499894478094017,-3,-2,-8,-16,0,0,-1,-3
1499894478094017,-5,0,4,3,-4,-1,1,2
1499894478111055,-1,0,2,7,1,-1,0,2
1499894478111055,0,0,-1,-6,3,0,-3,-6
1499894478113017,-1,0,1,9,-1,-3,-1,1
1499894478113017,-2,-1,-1,-3,0,0,0,-11
1499894478133021,-1,-1,-9,-11,-4,-2,-2,-2
1499894478133021,0,1,-5,-24,-1,1,-1,-10
1499894478135027,-5,-1,1,25,2,0,1,4
1499894478135027,-2,-2,6,35,3,-2,-1,-19
1499894478148075,2,-1,2,-50,-6,-1,-3,19
1499894478148075,-1,-4,-8,2,-1,-1,-1,-5
1499894478150021,0,0,-5,9,1,-3,-3,-3
1499894478150021,-1,1,-1,-55,-2,3,-2,8
1499894478171022,-2,-2,4,16,-3,0,1,-10
1499894478171022,-4,-3,-9,17,3,1,-1,-7
1499894478177040,-1,-3,9,8,0,0,-3,0
1499894478177040,0,1,10,11,1,-2,1,5
1499894478193054,-4,-4,-15,-6,-3,-9,-3,-5
1499894478193054,0,3,7,-3,-1,5,1,17
1499894478195027,-5,-1,-5,-17,0,-1,-2,-42
1499894478195027,-4,-2,-8,-3,-3,-1,-1,3
1499894478208083,-3,-2,1,5,-2,-1,-1,-4
1499894478208083,-2,1,2,20,2,0,1,-8
1499894478210022,14,0,-4,-57,-11,-6,2,92
1499894478210022,-6,1,10,26,2,1,0,-3
1499894478231044,7,0,2,21,4,-2,-1,-21
1499894478231044,-18,-5,-10,-10,0,-4,0,-19
1499894478232024,1,4,1,2,1,2,-1,-6
1499894478232024,0,-2,-21,-37,1,1,-1,6
1499894478253025,-2,-3,-1,33,-5,-3,-1,8
1499894478253025,14,2,7,-21,-2,-2,1,14
1499894478259079,-20,-4,-7,-15,-9,0,-2,-27
1499894478259079,-2,1,0,0,0,2,1,-4
1499894478268087,-5,0,-1,4,2,1,12,-18
1499894478268087,2,-2,0,12,-4,-6,-11,6
1499894478274026,-1,0,-1,8,0,3,-1,-16
1499894478274026,10,-1,-1,22,-1,-2,0,18
1499894478291026,-9,-4,0,-29,-1,0,-2,22
1499894478291026,11,-2,-4,14,-4,-4,-1,14
1499894478297088,6,-2,7,5,3,1,0,24
1499894478297088,-3,-6,-15,-13,-6,-13,-6,-15
1499894478313029,4,4,2,-7,1,10,0,3
1499894478313029,-8,-3,-2,9,0,-1,0,-7
1499894478315029,-2,3,6,-11,3,1,-4,12
1499894478315029,-3,-8,-13,13,-11,-3,-3,-18
1499894478328032,0,-3,1,8,-1,-6,-4,7
1499894478328032,-3,0,0,-5,-2,0,0,-14
1499894478334033,6,-2,0,-2,6,4,0,12
1499894478334033,-1,2,0,8,-6,1,0,50
1499894478351084,9,-4,6,-13,-6,-6,-8,-25
1499894478351084,0,-7,-15,-3,1,-1,-5,-16
1499894478352069,-10,-3,2,-9,1,-4,3,11
1499894478352069,2,0,3,-17,-2,1,-1,9
1499894478373032,-7,1,-3,8,3,3,1,10
1499894478373032,3,3,12,31,0,1,4,-4
1499894478375032,3,-4,-11,-19,-4,-6,-5,-10
1499894478375032,-7,-1,1,18,3,-1,4,45
1499894478388044,1,-1,-2,-18,1,2,0,-12
1499894478388044,7,2,0,25,2,0,0,7
1499894478394051,-8,3,3,-12,-2,1,1,-35
1499894478394051,-2,-3,9,-73,-3,1,0,-39
1499894478411074,2,1,-5,42,1,-1,-1,81
1499894478411074,-3,0,-3,-14,2,3,1,-4
1499894478413040,0,-1,2,19,1,1,1,-3
1499894478413040,2,4,6,0,4,-3,-2,-21
1499894478433034,-3,3,3,28,-3,-8,-3,-7
1499894478433034,-11,-5,-7,-7,-3,1,-2,-8
1499894478435036,13,4,-1,-7,-5,-2,-2,-17
1499894478435036,-2,-10,-36,-26,-2,-2,-4,-12
1499894478447078,-2,-4,-17,-7,-3,-2,2,-19
1499894478447078,-2,6,7,-50,-7,-6,-2,-1
1499894478456038,-7,1,2,16,0,1,-4,-13
1499894478456038,4,1,12,12,2,2,0,-2
1499894478471057,5,0,9,8,0,1,-1,-5
1499894478471057,-15,2,2,-14,1,-1,-2,-28
1499894478472038,7,-4,-13,9,5,2,-5,14
1499894478472038,10,2,7,-44,0,3,12,74
1499894478493058,-4,-4,-2,43,-2,-6,-11,-55
1499894478493058,14,10,15,8,-1,-3,0,20
1499894478495041,-2,-9,-8,11,0,-2,-2,1
1499894478495041,-3,4,-7,-1,5,4,1,-6
1499894478508105,3,2,5,-24,-7,3,3,14
1499894478508105,-12,-8,-5,-10,-4,-3,-4,-27
1499894478514060,-7,-2,-6,10,-3,-5,0,-24
1499894478514060,-1,4,8,27,2,-1,-2,-19
1499894478531040,7,3,4,-15,-1,0,2,13
1499894478531040,9,-2,-8,-20,-1,0,-1,4
1499894478532041,-2,-3,-4,30,-3,-5,0,37
1499894478532041,-8,-1,23,33,-5,-2,-3,-19
