timestamp,x,y,z
1499895361375531,1.125,-0.0625,-0.0625
1499895361392531,0.5,-0.1875,0.1875
1499895361415530,-0.0625,-0.4375,0.5625
1499895361435531,0.3125,-0.25,1
1499895361452539,1,-0.0625,1.25
1499895361475535,0.8125,-0.1875,1
1499895361495543,0.6875,-0.5,0.75
1499895361513540,0.3125,-0.5,0.5625
1499895361535538,0.5625,-0.5625,0.625
1499895361555554,1.125,0,0.375
1499895361577554,1.0625,-0.0625,0.8125
1499895361595546,-0.75,-1.125,0.875
1499895361617543,-1.125,-0.125,0.875
1499895361632544,4.0625,-0.1875,2.0625
1499895361655545,2.5,-1.1875,1.375
1499895361676546,5.4375,0.5625,2.5
1499895361692552,5.75,0.25,2.625
1499895361715553,6.4375,0.9375,3
1499895361736550,2.875,-0.25,2.875
1499895361752551,1.0625,-1.75,3.0625
1499895361775551,4.125,-0.8125,1.375
1499895361796553,4.6875,-1.75,0.4375
1499895361812554,3.875,-1.875,-0.125
1499895361835556,3.8125,-1.1875,-1.25
1499895361856556,5.375,-1.25,-1.3125
1499895361872559,-0.125,-1.25,-0.625
1499895361895561,1.125,-1.5625,0.375
1499895361917559,1.5,-1.5625,1.1875
1499895361938561,3.25,0,2.625
1499895361954564,2.3125,0.75,2.0625
1499895361977565,1.8125,0.3125,1.4375
1499895361998564,-0.5,-0.3125,0
1499895362014576,-1.625,-1.1875,-0.1875
1499895362037568,2.1875,-0.8125,-0.125
1499895362058568,1.1875,-0.25,-1.0625
1499895362074568,-2.75,-0.375,-2.3125
1499895362104573,-2.8125,-1.5,-2
1499895362118573,-0.625,-1.75,-1.25
1499895362136572,0.8125,-2.1875,-0.5625
1499895362157572,2.0625,-1.3125,-0.375
1499895362178579,1.0625,-0.5625,-0.125
1499895362194579,-2.3125,-0.9375,-0.3125
1499895362218577,-2.375,-0.25,0.1875
1499895362231578,0.125,-0.5625,0.375
1499895362254578,1.5,-0.8125,0.25
1499895362277579,0.125,-0.3125,-0.4375
1499895362291582,-0.6875,-0.625,-1
1499895362314603,-0.6875,-0.5625,-1.0625
1499895362337586,-0.25,-0.5625,-0.75
1499895362351584,-0.75,-1.3125,0
1499895362374585,0.8125,-0.8125,0.4375
1499895362397588,1.5,0,0.25
1499895362418593,0.75,-0.0625,0.5
1499895362434591,-0.625,-0.9375,0.25
1499895362457592,-0.0625,0,0.625
1499895362478601,0.625,0,0.4375
1499895362494596,-0.25,-0.375,0.375
1499895362517595,-0.6875,-0.625,0.1875
1499895362538595,0.3125,-0.6875,0.25
1499895362554596,0.3125,-0.25,0.125
1499895362577597,0.25,-0.3125,-0.0625
1499895362598599,0.0625,-0.4375,-0.1875
1499895362614603,-0.9375,0.1875,0.0625
1499895362637603,-0.6875,-0.4375,0.1875
1499895362658603,0.5,-0.3125,0.4375
1499895362674603,0.625,0.5,0.1875
1499895362697604,-0.8125,1.125,0.1875
1499895362718621,-1,0.8125,0.1875
1499895362734607,-0.625,0,-0.1875
1499895362757610,-0.375,0.25,0
1499895362778616,-0.25,0.3125,-0.0625
1499895362794612,-0.5625,0,-0.3125
1499895362817612,-0.0625,0.375,-0.0625
1499895362839613,-0.375,-0.4375,-0.4375
1499895362854614,-0.375,-0.8125,0
1499895362877615,-0.375,0,0.125
1499895362899618,-0.25,-0.625,0
1499895362914618,-0.0625,-0.125,0.25
1499895362937618,-0.3125,-0.1875,-0.0625
1499895362959625,0.1875,-0.125,-0.375
1499895362974621,0.25,-0.0625,0
1499895362997626,-0.6875,0,-0.5
1499895363019633,-0.625,0.0625,-0.5
1499895363034625,0.25,0,-0.3125
1499895363057625,-0.1875,0.25,-0.5
1499895363079627,0.25,0.3125,-0.5
1499895363093645,-0.3125,0,-0.5625
1499895363117629,0.25,-0.125,-0.125
1499895363139630,0.5,0.125,-0.125
1499895363153637,-0.25,0.1875,-0.1875
1499895363177633,-1,-0.125,-0.0625
1499895363199634,0.3125,-0.5,0.125
1499895363213635,0.125,-0.5,0
1499895363243665,0.75,0,-0.4375
1499895363259637,0.0625,0,-0.5
1499895363273642,-1.5,-0.125,-0.1875
1499895363296640,-0.5625,0,0.3125
1499895363319640,1,0.1875,0.4375
1499895363333643,-0.125,0,0.1875
1499895363357683,-1,-0.25,0.1875
1499895363379645,-0.1875,-0.1875,0.125
1499895363400650,-0.3125,-0.0625,0.25
1499895363418646,-0.0625,-0.125,-0.125
1499895363439648,0.125,0.125,0.125
1499895363460714,-0.4375,0.375,0.0625
1499895363477653,-1.0625,0.5625,0.25
1499895363500655,-0.8125,0.1875,0.4375
1499895363520681,-0.375,0.125,0.5
1499895363536667,0.5,0.625,0.0625
1499895363559661,-0.25,0.875,0.1875
1499895363580660,-1.625,0.5,0.125
1499895363596661,-1.375,0.6875,0.25
1499895363619659,-0.0625,0.5,0.125
1499895363640662,0.3125,0.875,-0.25
1499895363656661,-0.875,0.9375,-0.3125
1499895363679666,-0.75,0.8125,-0.1875
1499895363700663,-0.375,0.75,0
1499895363717683,0,0.5,-0.1875
1499895363739666,-0.25,-0.3125,0.0625
1499895363760700,-0.4375,-0.9375,0
1499895363777670,0.9375,-0.875,-0.0625
1499895363799668,0.875,-0.625,-0.0625
1499895363828749,-0.25,-0.375,-0.0625
1499895363837692,-0.0625,-0.875,-0.25
1499895363859673,0.25,-0.4375,-0.25
1499895363882678,0.125,-0.625,-0.4375
1499895363903675,0.4375,-0.5625,-0.25
1499895363919675,0.25,-0.0625,-0.125
1499895363941678,-0.0625,-0.0625,-0.625
1499895363956742,-0.0625,-0.25,-0.625
1499895363979690,-0.125,-0.125,-0.75
1499895364001719,0.375,-0.1875,-0.5625
1499895364023687,0.5625,0.125,-0.625
1499895364039682,0.0625,0.0625,-0.5
1499895364062684,-0.6875,-0.0625,-0.375
1499895364076685,0.1875,0.125,-0.375
1499895364099687,0.4375,0,-0.25
1499895364121695,0.9375,-0.5,-0.3125
1499895364136708,0.3125,-0.8125,-0.4375
1499895364159690,0.5,-0.8125,-0.5
1499895364182691,0.6875,-0.5625,-0.25
1499895364196692,0.0625,-0.375,-0.0625
1499895364226749,-0.125,-0.25,0.4375
1499895364241697,0.4375,-0.1875,0.4375
1499895364256712,1.25,-0.375,0.3125
1499895364279697,1.0625,-0.25,0.0625
1499895364302719,-0.4375,-0.5625,-0.125
1499895364317698,0.0625,-0.625,-0.125
1499895364339699,0.4375,-0.0625,-0.125
1499895364361707,0.3125,0.25,-0.1875
1499895364382704,-0.4375,0.4375,0.0625
1499895364399703,-0.75,0.375,0.3125
1499895364422725,-0.3125,0.1875,0.3125
1499895364443705,0.375,0.25,0.5625
1499895364459707,0.3125,0.1875,0.4375
1499895364481729,-1.0625,0.1875,0.25
1499895364504713,-0.6875,-0.125,0.1875
1499895364519711,0.3125,0.3125,0.125
1499895364541715,-0.4375,0.0625,0
1499895364564725,-0.625,-0.3125,-0.125
1499895364579716,-0.3125,0.0625,-0.125
1499895364601718,0.125,0.4375,-0.25
1499895364623738,-0.125,0.3125,-0.3125
1499895364639716,-0.6875,0.3125,-0.0625
1499895364661742,-0.5625,0.3125,0.25
1499895364683721,-0.5625,0.3125,0
1499895364699720,-0.5625,0,0.1875
1499895364721727,0.5,-0.25,0.125
1499895364743723,0.4375,-0.0625,0.4375
1499895364759724,-0.125,0,-0.1875
1499895364782744,-0.5,0,-0.125
1499895364804730,-0.9375,-0.4375,-0.1875
1499895364819728,0.4375,-0.4375,-0.125
1499895364841729,1.0625,-0.5625,-0.1875
1499895364864732,0.375,-0.25,-0.3125
1499895364879733,0.5,-0.3125,0.125
1499895364901731,0.5,-0.5,-0.1875
1499895364924734,0.625,-0.75,-0.1875
1499895364938734,0.5625,-0.625,-0.625
1499895364962735,-0.25,-1,-0.75
1499895364984738,0.3125,-0.5,-0.4375
1499895364998739,1.0625,-0.0625,0
1499895365021746,-0.1875,-0.125,0.0625
1499895365044741,-0.375,-0.0625,0.3125
1499895365058752,0.875,0.0625,-0.0625
1499895365081746,1.375,0.25,-0.25
1499895365104744,0.625,0,-0.1875
1499895365118749,-0.3125,-0.125,-0.4375
1499895365141767,0.125,-0.125,-0.5
1499895365164756,1.125,0.125,-0.5625
1499895365185753,1.0625,0.375,-0.5625
1499895365201754,-0.5,0.5625,-0.5625
1499895365224751,-1.3125,0.0625,-0.375
1499895365238751,0.6875,0,-0.375
1499895365261756,1.5,0.1875,-0.25
1499895365284754,-0.5,0.375,-0.5
1499895365305818,-0.9375,-0.0625,-0.3125
1499895365321758,0,-0.5,-0.25
1499895365344759,1.6875,-0.3125,0.125
1499895365365762,1.375,-0.625,0.1875
1499895365381777,-0.5625,-1.0625,-0.125
1499895365404762,-0.3125,-0.75,-0.25
1499895365425796,0.5625,-0.6875,-0.6875
1499895365441764,0.125,-0.6875,-0.5
1499895365464773,-0.375,-0.5625,-0.25
1499895365485769,-0.9375,-0.6875,0.125
1499895365501767,-1.125,-0.125,0.4375
1499895365524768,-0.6875,0.25,0.4375
1499895365545770,-1.1875,0.375,0.25
1499895365561778,-1.8125,0.8125,0.1875
1499895365584773,-1.4375,1.4375,0.25
1499895365605830,-1.125,1.5625,0.25
1499895365621794,-1.4375,1.375,0.25
1499895365644777,-1.3125,1.6875,0.1875
1499895365665811,0.25,1.4375,0.3125
1499895365682780,-1,0.625,0.1875
1499895365704784,-1.625,0.3125,0.125
1499895365725817,0.1875,0,0.4375
1499895365741782,1.5,-0.0625,0.8125
1499895365764792,0.1875,0,1.125
1499895365786804,-1.3125,0.3125,0.8125
1499895365807827,-0.75,0.5,0.8125
1499895365824790,0.5625,0.75,0.8125
1499895365847793,0.125,1,0
1499895365861797,-1.1875,0.8125,-0.375
1499895365884789,-1.125,0.3125,-1.375
1499895365906798,0.375,1.3125,-2.125
1499895365921812,1.875,1.0625,-1.875
1499895365944794,0.625,0.1875,-3
1499895365966849,0.25,-0.9375,-3.3125
1499895365981811,2.625,-1.5,-2.875
1499895366004796,3.25,-2.1875,-2.8125
1499895366026836,3.5625,-2.5,-2.625
1499895366041814,4.5,-2.875,-2.25
1499895366064807,3.6875,-3.3125,-2.1875
1499895366086807,2.8125,-2.6875,-2.5625
1499895366101823,3,-2.5625,-1.875
1499895366124807,3.75,-2.3125,-1.75
1499895366146805,2.5625,-2.5625,-1.1875
1499895366169810,1.5625,-2.375,-1.125
1499895366184811,1.4375,-1.4375,-0.8125
1499895366206855,1.875,-0.5625,-1.0625
1499895366228830,0.5,-0.25,-0.875
1499895366244810,-0.5625,0.1875,-0.8125
1499895366266848,-1.4375,0.3125,-0.8125
1499895366288815,-2,-0.3125,-0.8125
1499895366304814,-0.9375,-0.5,-1.0625
1499895366326831,0,-0.5625,-0.3125
1499895366347837,-0.3125,-0.625,-0.3125
1499895366364825,-0.9375,-0.375,0.1875
1499895366386818,-0.5625,0.25,0.4375
1499895366407876,-0.3125,1.125,0.4375
1499895366424841,-0.5625,1.3125,0.4375
1499895366446824,-0.375,1.5625,0.5625
1499895366467893,-0.375,1.5,0.6875
1499895366484824,-0.125,1.75,1.25
1499895366507826,0,1.8125,1.0625
1499895366528851,-0.5,1.8125,0.6875
1499895366544828,-0.5,1.6875,0.1875
1499895366574832,-0.6875,1.5,-0.4375
1499895366587834,-0.3125,1.25,-0.375
1499895366611846,0,0.5625,-0.4375
1499895366626890,0.25,0.3125,-0.125
1499895366648846,-0.5,-0.25,0.0625
1499895366664844,-1.125,-0.5625,0.4375
1499895366686853,0.4375,-0.125,1.125
1499895366709840,0.3125,0.1875,1.125
1499895366723837,-0.5,0,0.875
1499895366746841,-0.1875,0.3125,0.6875
1499895366769841,-0.75,0.3125,0.25
1499895366790846,-0.5,-0.0625,0.0625
1499895366806863,0.25,-0.25,-0.25
1499895366829844,0.4375,-0.3125,-0.3125
1499895366843845,0.625,-0.375,-0.5625
1499895366866846,0.875,-0.9375,-0.5
1499895366889847,1.3125,-0.8125,-0.375
1499895366903865,1.25,-0.4375,-0.4375
1499895366926865,0.9375,-0.625,-0.375
1499895366949856,1.0625,-0.9375,-0.5625
1499895366963855,2.0625,-1.1875,-0.625
1499895366986852,2.875,-1.25,-0.875
1499895367009874,3.8125,-1,-0.9375
1499895367023855,4.9375,-1.3125,-0.6875
1499895367046858,3.0625,-1.375,-0.5625
1499895367069858,1.125,-1.5625,-1.125
1499895367083858,0.25,-1.1875,-1
1499895367106864,-1.5625,-1.0625,-0.6875
1499895367129871,-0.8125,-0.8125,-0.6875
1499895367143862,-0.125,-0.125,0.25
1499895367166870,-1.5,0.625,0.6875
1499895367189865,-2.375,1.75,0.5625
1499895367210933,-2.625,2.8125,0
1499895367226874,-2.9375,3,-0.625
1499895367249872,-3.0625,3.0625,-0.8125
1499895367270908,-2.0625,2.5625,-1.0625
1499895367286871,-1.5625,1.8125,-1.625
1499895367309872,-0.875,1.0625,-1.6875
1499895367330893,0.5,0.375,-1.5625
1499895367346882,1.6875,-0.125,-1.1875
1499895367369895,2.6875,-0.875,-0.8125
1499895367390898,2.0625,-1.5,-0.9375
1499895367406879,0.625,-1.4375,-0.375
1499895367429878,1.3125,-1,-0.5
1499895367450880,2.9375,-1.0625,-0.5625
1499895367466883,2.9375,-1.25,-0.8125
1499895367489882,1.625,-1.9375,-1
1499895367510954,0.5,-2.1875,-0.9375
1499895367526890,1.5625,-2.25,-1.125
1499895367549886,3.375,-1.8125,-1.25
1499895367570947,2.9375,-1.875,-1.8125
1499895367586888,0.6875,-2.125,-2.1875
1499895367609909,-0.5,-2,-1.8125
1499895367631892,1.75,-1.625,-0.75
1499895367646893,2.125,-0.9375,0
1499895367669893,0.625,-0.375,0.375
1499895367691899,-0.125,-0.1875,0.875
1499895367706899,0.1875,0.125,1.25
1499895367729897,0.5,0.6875,1.0625
1499895367751899,0,0.9375,0.75
1499895367766908,-0.8125,0.875,0.6875
1499895367789899,-1.625,0.5,0.5
1499895367811908,-1.3125,0.375,0.625
1499895367826937,-0.75,0.75,0.4375
1499895367849904,-0.4375,0.75,0.6875
1499895367871909,-1.125,0.9375,0.375
1499895367886910,-1.5,0.8125,0.5
1499895367909907,-1.4375,0.6875,0.6875
1499895367931908,-1.5,0.5625,1
1499895367946913,-1,0.1875,1.125
1499895367969910,-0.9375,0.375,1.0625
1499895367991913,-1.25,0.25,1.125
1499895368012935,-0.75,-0.375,1.125
1499895368029914,-0.8125,-0.375,0.8125
1499895368052948,-0.8125,-0.375,0.4375
1499895368066937,-0.3125,-0.5625,0.375
1499895368089917,-0.0625,-0.4375,0.25
1499895368111921,-0.4375,0.125,0.0625
1499895368132940,-0.5,0.375,0
1499895368149920,-0.8125,0.375,-0.125
1499895368171927,-0.8125,0.6875,-0.125
1499895368192942,-0.3125,1.0625,-0.0625
