timestamp,x,y,z
1499894483547332,0.4375,0.3125,0.3125
1499894483564332,1.0625,0.25,0.4375
1499894483587335,0.8125,-0.25,0.875
1499894483607337,-1.3125,0,0.4375
1499894483624336,-0.375,0.3125,1.25
1499894483646339,0,-0.25,1.1875
1499894483667343,0.5,-0.8125,0.8125
1499894483684342,1.125,-1.5,0.625
1499894483706341,1.125,-1.375,1.1875
1499894483727343,2.0625,1.1875,1.5625
1499894483744343,9.9375,7.25,0.875
1499894483766343,12.5,6,-0.8125
1499894483788345,-1.8125,-1.25,0.6875
1499894483804346,-4.5625,-4.1875,7.1875
1499894483826347,2.4375,-2,10.375
1499894483849349,4.6875,0.8125,7.75
1499894483864351,11.5,3.6875,4.25
1499894483886351,6.125,1.9375,3.1875
1499894483909352,-4.6875,-1.75,7.5
1499894483930353,-4.6875,-2.9375,8.6875
1499894483946355,1.5,-2,7.125
1499894483969358,17.875,2.375,4.0625
1499894483983356,17.9375,1.5,1.8125
1499894484014359,-1.3125,-2.75,3.3125
1499894484029359,-3.25,-3,3.8125
1499894484045359,6.375,-0.5,1.9375
1499894484066361,10.125,-0.3125,0.6875
1499894484089365,4.4375,-1.6875,-0.625
1499894484103379,-2.375,-2.3125,-0.875
1499894484126364,-0.375,-2.1875,-0.0625
1499894484149366,7.3125,0.125,0.125
1499894484163367,3.9375,1.8125,-0.625
1499894484186368,-2.3125,1.0625,-1.125
1499894484209372,-5.9375,-1.4375,0.625
1499894484237372,-0.1875,-2.1875,1.125
1499894484246373,4.8125,0.375,0.5
1499894484269376,2.5,1.4375,-0.625
1499894484284373,-3.875,1.3125,-1.125
1499894484306383,-6,-0.75,-0.375
1499894484329383,-1.5,-1.125,-0.5
1499894484350390,3.375,-1,-0.75
1499894484366379,2.0625,0.125,-1.9375
1499894484389380,0.75,0.6875,-1.6875
1499894484410395,-3.1875,-0.8125,-0.6875
1499894484426382,-2.25,-0.625,0.5625
1499894484449384,1.0625,-0.4375,0.375
1499894484470388,4.0625,0.0625,-0.1875
1499894484486386,-1.0625,-0.125,-0.625
1499894484515388,-2.875,-0.25,0
1499894484530388,-0.75,-0.875,0.8125
1499894484546390,1.375,-0.375,0.0625
1499894484569395,1.1875,0.5,-0.25
1499894484590393,-1.8125,-0.0625,-0.875
1499894484606406,-3.625,-0.5,-0.375
1499894484629395,-0.375,-0.1875,0.0625
1499894484650408,2.0625,0.1875,-0.125
1499894484666395,-0.25,0.375,-0.75
1499894484689397,-2.3125,-0.1875,-0.1875
1499894484710412,-1.4375,0.1875,0.5
1499894484726401,0.375,0.9375,0.75
1499894484749400,1.0625,1.1875,0.125
1499894484771401,-0.5625,1.25,-0.5
1499894484786403,-2.1875,0.625,-0.5625
1499894484809405,-1.25,0.25,-0.3125
1499894484831405,-0.5625,0,-0.1875
1499894484846408,1.125,0.125,-0.3125
1499894484869410,0.5625,0.4375,-0.9375
1499894484891409,0.0625,-0.3125,-0.625
1499894484906415,-1.1875,-0.875,-0.6875
1499894484929412,-1.3125,-0.4375,-0.3125
1499894484951411,-0.625,0.1875,-0.1875
1499894484965412,-0.625,0.6875,-0.5
1499894484989420,-0.625,0.5625,-0.5625
1499894485012417,-1.375,0,0.1875
1499894485025418,-1.3125,0.1875,0.0625
1499894485049418,-0.3125,0.4375,0.125
1499894485071420,-0.0625,0.5625,-0.625
1499894485085422,0.0625,0.5,-0.4375
1499894485109422,-1.4375,0.1875,-0.5
1499894485131422,-1.4375,0.0625,-0.0625
1499894485145423,0,0.625,0
1499894485169426,0.8125,1.3125,-0.3125
1499894485191428,-0.5625,1.125,-0.625
1499894485205442,-2.4375,0.5625,-0.75
1499894485229430,-1.5625,0.5,-0.5
1499894485251429,-0.0625,0.4375,-0.125
1499894485272431,-0.25,0.1875,-0.0625
1499894485289435,-0.0625,0.375,0.125
1499894485312433,-0.875,0.0625,0.5
1499894485332436,-0.9375,-0.625,0.25
1499894485349438,0.0625,-0.5,0.1875
1499894485371436,0.1875,0.5,-0.0625
1499894485392445,-0.125,0.375,-0.0625
1499894485409440,-1.0625,-0.25,0.25
1499894485431439,-0.6875,0,-0.0625
1499894485452441,-1,0.0625,0
1499894485469444,-0.5,-0.125,0.375
1499894485491443,0.375,0.625,0.3125
1499894485512445,-0.8125,0.25,-0.0625
1499894485529446,-0.375,0.5,0.3125
1499894485551447,-0.6875,0.8125,-0.3125
1499894485572448,-0.8125,1.0625,-0.0625
1499894485589450,-0.3125,0.5625,-0.0625
1499894485612451,-0.875,0.4375,-0.0625
1499894485632458,-1.5,0.4375,-0.25
1499894485649452,0,0.25,-0.75
1499894485671457,-0.6875,0.25,-0.5625
1499894485694455,-0.9375,-0.0625,-0.5
1499894485709457,-0.0625,-0.3125,-0.125
1499894485731457,-0.8125,-0.4375,-0.5
1499894485754463,0.5,-0.6875,-0.3125
1499894485768459,0.375,-0.5625,-0.375
1499894485791462,-0.25,-0.4375,-0.3125
1499894485814462,-0.8125,-0.5625,-0.1875
1499894485828464,-0.75,-0.125,-0.0625
1499894485851465,-0.5,0,-0.1875
1499894485881465,0,0.25,0.0625
1499894485888466,-0.25,0.125,0
1499894485912468,-0.3125,-0.0625,0.1875
1499894485934468,-0.25,0.125,-0.0625
1499894485948470,0.5,0.5625,-0.3125
1499894485971472,0,0.125,-0.1875
1499894485994471,-1.1875,-0.375,-0.5
1499894486008473,-0.125,0,-0.25
1499894486031475,1.3125,0.625,-0.3125
1499894486054475,-0.125,0.8125,-0.5
1499894486075479,-1.125,0.5625,-0.0625
1499894486091478,-1.6875,-0.125,-0.0625
1499894486114482,-0.0625,-0.4375,0.1875
1499894486128482,1.625,-0.3125,0.25
1499894486151481,1.0625,0.0625,0
1499894486173484,-0.375,0,0.3125
1499894486202484,-0.5625,-0.5625,0.4375
1499894486212489,0,-0.5,0.375
1499894486234492,0.625,-0.4375,-0.0625
1499894486255491,0.3125,-0.5625,-0.3125
1499894486271488,-0.5,-0.1875,0
1499894486294490,-0.375,0.5625,0
1499894486314491,-0.75,0.5,0.1875
1499894486331492,-0.3125,0.4375,0.3125
1499894486354495,-0.8125,0.25,0.5
1499894486375495,-0.25,0.5,0.3125
1499894486391496,-0.0625,0.4375,0.0625
1499894486414497,0.1875,0.6875,0.0625
1499894486435499,-0.625,0.6875,-0.25
1499894486451499,-1.625,0.5,0
1499894486474500,-0.4375,0.5625,-0.0625
1499894486495503,0.375,0.5625,-0.375
1499894486512505,0.1875,0.5,-0.0625
1499894486534506,-0.3125,0.6875,-0.3125
1499894486555507,-2.25,0,-0.3125
1499894486571506,-0.9375,-0.375,0.0625
1499894486594508,0.5,-0.5,-0.0625
1499894486614509,0.8125,-0.5625,-0.25
1499894486631509,0.1875,-0.5,-0.25
1499894486654511,0.0625,-0.375,-0.0625
1499894486676512,-0.25,-0.375,-0.25
1499894486691516,-1.125,-0.625,0
1499894486713514,0.375,-0.0625,-0.375
1499894486736517,0.5625,-0.125,-0.25
1499894486751521,0.125,-0.0625,-0.3125
1499894486774518,-0.8125,-0.5,-0.125
1499894486796519,-0.4375,-0.1875,-0.125
1499894486810518,0.625,0.0625,-0.375
1499894486834522,1,0.5,-0.375
1499894486856524,-0.125,0.125,-0.5625
1499894486870523,-0.4375,-0.0625,-0.3125
1499894486893525,0.3125,-0.125,-0.1875
1499894486916526,0.25,0.25,0.0625
1499894486930527,0.8125,0.625,-0.1875
1499894486953553,0.5625,0.375,-0.4375
1499894486976529,-0.5625,-0.25,-0.4375
1499894486990530,-0.5,-0.25,-0.0625
1499894487014532,0.4375,-0.1875,0.3125
1499894487036538,0.5,-0.4375,0.25
1499894487050535,0,-0.5,0.25
1499894487073536,0.25,-0.3125,0.3125
1499894487096537,1.3125,0,0.25
1499894487111540,0.4375,0.125,-0.125
1499894487133539,-1,0.125,-0.0625
1499894487156543,-0.75,0.375,-0.1875
1499894487177540,-0.0625,0.1875,0.0625
1499894487194542,0.25,0.4375,0.3125
1499894487216545,0.125,0.625,0.125
1499894487237546,-0.1875,0.625,0.1875
1499894487254551,-0.9375,0.5625,0
1499894487276546,-1.0625,0.625,0.625
1499894487297548,-0.5625,0.625,0.25
1499894487313549,-1.25,0.5,0.0625
1499894487336551,-0.75,0.0625,0.1875
1499894487357552,0,0,0.0625
1499894487373554,0.0625,-0.0625,0
1499894487396553,0.0625,0.1875,-0.375
1499894487417570,-0.8125,0.0625,-0.0625
1499894487433558,-0.375,0.0625,-0.125
1499894487463558,-1,-0.1875,0.125
1499894487477558,-0.1875,-0.375,0.0625
1499894487493575,1,-0.125,0
1499894487516561,0.375,-0.3125,-0.25
1499894487537563,-0.125,-0.4375,-0.0625
1499894487554564,0,-0.5625,-0.375
1499894487576566,-0.0625,-0.75,-0.3125
1499894487598579,0.5625,-0.5,-0.375
1499894487613567,0.75,0.0625,-0.375
1499894487636569,-0.4375,-0.125,-0.1875
1499894487658583,-0.5,0.0625,-0.25
1499894487673569,0.1875,0.0625,-0.25
1499894487696571,0.9375,-0.0625,0
1499894487718582,0.5625,0.125,-0.4375
1499894487733573,-0.375,-0.0625,-0.1875
1499894487756578,-0.25,-0.1875,-0.25
1499894487778575,0.3125,-0.1875,-0.0625
1499894487793577,0.5625,-0.125,-0.125
1499894487816579,0.5625,-0.0625,-0.5625
1499894487839585,0.125,0.375,0.0625
1499894487853587,-0.625,0,-0.125
1499894487876581,-0.625,-0.125,-0.125
1499894487898582,0,0.125,0.125
1499894487913585,-0.0625,-0.4375,-0.25
1499894487936586,0.3125,-0.4375,0.1875
1499894487958585,0.6875,-0.0625,0.125
1499894487973589,0.5625,-0.125,0
1499894487996589,0.5,-0.0625,0.1875
1499894488018589,0.125,-0.0625,0.0625
1499894488033595,-1.25,-0.1875,0.0625
1499894488056593,-1.125,-0.1875,0.25
1499894488078592,-0.1875,0,0.125
1499894488099608,1.0625,0.3125,0.25
1499894488116597,0.125,0.25,0.25
1499894488138596,-1.1875,0.5625,0.5
1499894488159612,-1.6875,1,0.5
1499894488176600,-0.875,0.5625,0.25
1499894488198601,0.0625,0.375,0.625
1499894488220604,0.0625,0.4375,0.1875
1499894488236603,-0.25,0.4375,0
1499894488258604,-0.5625,0.625,-0.1875
1499894488279607,-0.625,0.625,-0.0625
1499894488296605,-0.875,0.0625,0.125
1499894488318607,-0.4375,0.125,0.125
1499894488340614,0.125,0.0625,-0.3125
1499894488356615,-0.125,-0.25,-0.375
1499894488378609,0.1875,-0.1875,-0.25
1499894488399625,0.25,-0.4375,-0.1875
1499894488416614,0.5,-0.6875,-0.0625
1499894488446614,-0.0625,-0.375,0
1499894488467631,0,-0.25,-0.4375
1499894488476618,0,-0.3125,-0.3125
1499894488498617,-0.1875,-0.875,-0.3125
1499894488520621,0.3125,-0.8125,-0.1875
1499894488536624,1.25,-0.4375,0
1499894488558622,1,-0.4375,-0.1875
1499894488581623,0.75,-0.4375,-0.125
1499894488596623,0.5,-0.25,-0.0625
1499894488618625,0.625,-0.125,-0.0625
1499894488641626,1.625,-0.1875,0
1499894488656630,1,-0.8125,-0.25
1499894488678635,-0.5625,-1.125,-0.1875
1499894488701630,0,-0.6875,0.1875
1499894488722631,-2.5,-0.3125,-0.625
1499894488738631,-3.375,-0.0625,-0.8125
1499894488761634,-2.1875,0.0625,-1.125
1499894488775634,-2.3125,-1.125,-1
1499894488798634,-1.875,-1.4375,-0.5
1499894488821636,0.25,-1.3125,-0.625
1499894488835637,0.625,-1.8125,-0.25
1499894488858638,1.6875,-1.25,0.0625
1499894488887643,1.8125,-0.625,0
1499894488902641,0,0.125,0.3125
1499894488918642,-0.125,0.375,0.5625
1499894488941643,-0.9375,0.625,0.625
1499894488962645,-1.6875,0.4375,0
1499894488978645,-0.625,0.625,0.5625
1499894489001647,1.125,0.875,0.5625
1499894489015647,1.1875,0.75,0.25
1499894489038649,-0.5625,0.1875,-0.3125
1499894489061653,-0.875,-0.1875,0
1499894489082652,0,-0.3125,0.0625
1499894489098652,0.3125,-0.3125,-0.125
1499894489121654,0.6875,-0.9375,-0.25
1499894489142655,0.6875,-1.8125,0.625
1499894489158656,-1.375,-2.1875,1.5
1499894489181657,-4.5625,-1.875,1.75
1499894489203665,-5,-0.9375,1.875
1499894489218660,-6.6875,-1.125,0.5625
1499894489241661,-7.6875,-1.5,0.125
1499894489262663,-7.875,-3.875,-2.375
1499894489278664,-3.1875,-6,-5
1499894489301665,4.625,-5.5625,-6.1875
1499894489322666,9.1875,-3.75,-6.0625
1499894489339671,7.75,-1.8125,-6.0625
