timestamp,x,y,z
1499894107757712,18.25,1.6875,4.6875
1499894107780713,10.5625,-1.75,5.6875
1499894107795713,-12.375,-1.375,8.1875
1499894107817715,-9.0625,-1.375,8.25
1499894107840715,-1.375,-1.6875,5.4375
1499894107855718,13.375,0.25,5.875
1499894107877719,13.3125,2.25,6.8125
1499894107900720,-2.25,1.625,5.4375
1499894107916732,-13.625,-0.5625,3.4375
1499894107937721,-2.5,0.3125,3
1499894107960722,7.4375,-0.6875,0.75
1499894107965726,13.8125,-0.125,-0.3125
1499894107982724,10,0.75,-0.625
1499894108003726,5.6875,-0.1875,-2.375
1499894108026745,-1.25,-1.4375,-2.5625
1499894108042729,-3.25,-1.9375,-2.625
1499894108063729,5.1875,-0.25,-2.375
1499894108085730,8.1875,1.4375,-2.4375
1499894108102734,0.625,1.8125,-1.9375
1499894108126732,-9,1.0625,-0.3125
1499894108145733,-7.8125,-1.9375,0.1875
1499894108162734,2.375,-1.1875,-0.4375
1499894108183738,4.5625,2.375,-0.875
1499894108205739,-0.75,2.0625,-0.875
1499894108222738,-8.3125,1,0
1499894108243740,-7.5,-1.25,0.75
1499894108265742,2.1875,-1.5625,0.1875
1499894108282743,3.375,-0.5625,-0.75
1499894108303742,-1.1875,0.4375,-0.625
1499894108325761,-5.1875,1.4375,-0.6875
1499894108342752,-3.1875,-0.1875,-0.625
1499894108363747,0.75,-1,-0.4375
1499894108385749,2,0.8125,-0.8125
1499894108402749,0.25,2.5625,-1.25
1499894108423750,-2.8125,3.375,-1.4375
1499894108445751,-1.5,2.4375,-0.5
1499894108462752,0.625,1.1875,-0.0625
1499894108483753,-1.875,-0.3125,0.625
1499894108505753,0.125,0.375,0.5
1499894108522756,0.1875,0.5625,-0.25
1499894108543757,-0.5,-0.0625,-0.3125
1499894108565762,-0.25,-0.1875,-0.8125
1499894108582758,0.75,-1.0625,-0.8125
1499894108603759,2.875,-0.4375,-0.4375
1499894108625769,1.25,0.8125,-0.1875
1499894108643762,-2.8125,0.9375,-0.0625
1499894108663764,-3.9375,0.1875,0.375
1499894108693766,0.0625,1.0625,0.375
1499894108703766,0.8125,1.375,-0.0625
1499894108723768,-0.875,1.5625,-0.375
1499894108745768,-0.875,0.8125,0.4375
1499894108763773,-0.75,0.25,0.3125
1499894108783772,-1,-0.125,-0.1875
1499894108805772,0.0625,-0.625,-0.5
1499894108823773,1.25,0.3125,0.375
1499894108843774,-0.375,0.5,0.25
1499894108865778,-1.125,-0.4375,0.75
1499894108883776,1,-0.6875,1
1499894108903776,0.9375,-0.8125,0.375
1499894108925793,1.3125,-0.4375,0.5
1499894108943779,-0.0625,-0.125,0.375
1499894108963782,-2.8125,-0.1875,0.25
1499894108985782,-1.4375,-0.75,0.375
1499894109008783,0.75,-0.6875,0.75
1499894109026784,1.0625,0.0625,0.1875
1499894109045786,-0.75,0.375,-0.125
1499894109068787,-1.75,0.1875,-0.0625
1499894109083788,-1.9375,-0.3125,0.1875
1499894109105789,-1.5,-0.3125,0.5
1499894109128789,-1.8125,-0.0625,0.625
1499894109143791,-2.8125,-0.3125,0.375
1499894109165816,-1.375,0.5,0.1875
1499894109188798,-0.625,0.6875,0.3125
1499894109203795,-1.4375,0.375,0.5
1499894109225811,-1.4375,0.25,0
1499894109248799,-2.25,0.25,0.125
1499894109263800,-1.625,0.375,0.25
1499894109285800,0.125,-0.1875,0.0625
1499894109308802,-0.375,-0.375,-0.1875
1499894109324802,-1.25,-0.125,-0.125
1499894109345802,0.5,-0.25,-0.1875
1499894109368804,-0.9375,-0.5625,-0.0625
1499894109384805,-1.5,-0.25,0.0625
1499894109405805,-0.8125,-0.125,0.1875
1499894109428806,0.4375,0.25,0.1875
1499894109444809,0.125,0.4375,0.125
1499894109465811,-0.9375,0.4375,-0.375
1499894109488812,-1.25,0.25,0.0625
1499894109504811,-0.125,0.375,0
1499894109525827,0,0.375,-0.125
1499894109548814,0.1875,0.6875,0
1499894109564820,-1.0625,0.8125,-0.25
1499894109585818,-1.8125,0.4375,-0.1875
1499894109610818,0,-0.25,0.0625
1499894109630820,-0.1875,0.375,0.0625
1499894109645822,0.0625,0.375,0.25
1499894109668821,-0.0625,0.375,0.25
1499894109685823,-1.4375,0.875,0.0625
1499894109705823,-0.9375,0.3125,0.0625
1499894109728825,-0.0625,0.4375,0.1875
1499894109745826,-0.125,0,0.3125
1499894109765830,-0.125,0.125,0.125
1499894109788829,-0.6875,0.4375,0.25
1499894109806832,-0.875,0.25,0.25
1499894109825845,-0.4375,-0.0625,0.5
1499894109848833,0.875,0.0625,0.125
1499894109866834,0,-0.125,0
1499894109893835,-1.375,-0.1875,-0.0625
1499894109908836,-1.0625,0.3125,0
1499894109925847,-0.9375,0,0.125
1499894109945838,-0.125,-0.875,0.625
1499894109968839,-0.25,-0.125,0.6875
1499894109986840,-1.25,0.375,0.25
1499894110005840,-0.6875,0.375,0.5625
1499894110028841,-0.625,0.1875,0.4375
1499894110046843,-0.75,-0.125,0.5625
1499894110065851,0.375,0.125,0.25
1499894110088848,-1.25,0.5625,-0.3125
1499894110105847,-0.8125,1.125,-0.0625
1499894110125850,-0.75,0.75,-0.0625
1499894110148850,-1.3125,0.375,0.25
1499894110172850,-0.1875,0.5,0.125
1499894110185852,0.25,0.5625,-0.125
1499894110208852,-0.125,0.875,0
1499894110225861,-0.8125,0.8125,-0.125
1499894110246854,-1.0625,0.3125,0.125
1499894110275868,-0.25,0.125,-0.0625
1499894110285858,-0.375,-0.125,-0.25
1499894110306857,-0.0625,-0.4375,-0.125
1499894110328860,-0.0625,-0.6875,-0.1875
1499894110346861,-0.3125,-0.625,0.1875
1499894110367862,-0.125,-0.625,0
1499894110388878,0.1875,-0.3125,0.125
1499894110405866,-0.4375,-0.3125,0
1499894110426867,-0.25,0.125,0.1875
1499894110448866,-0.0625,0.5,0.0625
1499894110470868,-0.5625,0.0625,-0.0625
1499894110494869,-0.4375,0,-0.0625
1499894110507870,-0.25,0.4375,-0.375
1499894110525876,-0.0625,0.5,-0.4375
1499894110546873,0.0625,0.625,-0.375
1499894110568873,0.1875,0.5625,0.125
1499894110585877,-0.8125,0.3125,0.25
1499894110608875,-0.8125,0.1875,0.1875
1499894110627878,0.625,0.375,0
1499894110646879,0.4375,0.3125,-0.25
1499894110668883,-1.5,0.25,-0.4375
1499894110688882,-0.9375,0.0625,-0.1875
1499894110705882,0.3125,0.25,0.0625
1499894110728883,0,-0.0625,0.0625
1499894110747885,0.125,0.1875,0.75
1499894110765885,-0.0625,0.5,0.5625
1499894110788896,-0.875,0.125,0.4375
1499894110808887,0.125,0.4375,0.0625
1499894110825897,0.8125,0.375,-0.3125
1499894110848892,-0.25,0.0625,0
1499894110868892,0.0625,0.5,-0.125
1499894110885892,0.125,0.5,-0.3125
1499894110908902,-0.25,-0.0625,-0.0625
1499894110927894,-0.375,0.0625,-0.0625
1499894110945895,-0.5,0.8125,0.125
1499894110968896,-0.0625,1,0.3125
1499894110987913,-0.375,0.6875,0.25
1499894111005900,-0.25,0.4375,0.625
1499894111028901,-0.5625,0.1875,0.4375
1499894111050901,-0.25,0.5,0.375
1499894111065903,0.5625,0.5625,0.5625
1499894111088906,0.0625,0.5625,0.25
1499894111107903,-1.125,0.0625,0.0625
1499894111125915,-0.5,-0.1875,0
1499894111148908,0.9375,-0.0625,0
1499894111169908,0.5,0.8125,-0.125
1499894111185911,-0.1875,0.6875,-0.125
1499894111209911,-0.6875,0.375,-0.0625
1499894111229912,-1.8125,-0.125,-0.3125
1499894111245914,0.125,-0.375,-0.0625
1499894111268914,1,-0.3125,-0.625
1499894111289916,0.625,-0.125,-0.6875
1499894111305918,-1.375,0.4375,-1.1875
1499894111328917,-2.0625,0.1875,-1
1499894111350919,-1.9375,-0.375,-0.875
1499894111365927,0.1875,-0.5,-0.5625
1499894111388926,1.875,-0.375,-0.25
1499894111410922,0.9375,0.25,-0.0625
1499894111433926,-0.3125,0.5625,0.3125
1499894111454924,-0.625,0.25,0.4375
1499894111469925,-0.9375,0.5,0.0625
1499894111485926,-0.25,0.5,0.5625
1499894111509928,0.5,0.3125,0.375
1499894111530928,-0.6875,0.25,0.4375
1499894111545930,-0.375,0.5,0.25
1499894111568932,0.3125,0.9375,0.125
1499894111590932,-0.375,-0.25,-0.1875
1499894111610935,-1.0625,0.0625,-0.375
1499894111627935,0.125,0.4375,0.3125
1499894111649935,0.125,-0.0625,0.375
1499894111671941,-1.0625,0.3125,0.75
1499894111687939,-0.5625,0.75,0.6875
1499894111710940,0,0.3125,0.75
1499894111731941,0,-0.0625,0.6875
1499894111747942,0.375,-0.0625,0.3125
1499894111770943,-0.125,-0.0625,0.125
1499894111791945,-0.6875,0.0625,-0.1875
1499894111807945,-0.375,0.125,0.0625
1499894111830947,-0.125,0.5,-0.0625
1499894111851949,-0.375,0.3125,0.3125
1499894111867948,-0.1875,0.25,0.25
1499894111890950,-0.8125,0.0625,0.3125
1499894111911952,-1.0625,0.25,0.3125
1499894111927955,-0.4375,0.8125,0.4375
1499894111950954,-1.125,0.5625,0.625
1499894111971955,-1.125,0.25,0.3125
1499894111987956,-0.1875,0.4375,0.5625
1499894112010957,0.125,0.5,0.1875
1499894112031958,0.3125,0.5,-0.0625
1499894112047959,-0.5,0.625,-0.125
1499894112070960,-1.5,0.8125,-0.25
1499894112091962,-1.3125,0.375,0.0625
1499894112107962,-0.125,0.125,0.25
1499894112130964,0.5625,0.375,0
1499894112151965,0.4375,-0.125,0.25
1499894112167966,-1,-0.4375,0
1499894112190967,-0.6875,-0.1875,-0.1875
1499894112210969,0.25,-0.625,-0.125
1499894112227969,0.625,-0.625,-0.0625
1499894112250970,-0.0625,-0.125,0.25
1499894112271972,-0.4375,-0.0625,0.3125
1499894112287974,-0.5,0.0625,0.375
1499894112310975,-0.3125,0.5,0.3125
1499894112331975,-0.4375,0.5,-0.125
1499894112347976,-0.3125,0.1875,0.0625
1499894112370977,0.125,0.1875,0
1499894112392979,0.0625,0.5,-0.375
1499894112407980,0.3125,0.75,-0.5625
1499894112430983,-0.875,0.5,-0.3125
1499894112451982,-0.125,0.5,0.5
1499894112467983,-0.5,0.3125,0.4375
1499894112489985,-0.5625,0.375,0.25
1499894112512987,0.25,0.5,0.25
1499894112527986,-0.375,0,0.1875
1499894112550988,-1.0625,0.25,0.1875
1499894112572989,-1.125,0.25,0.5
1499894112587991,0.25,0.4375,0.5
1499894112610991,-0.75,0.125,0.8125
1499894112633993,-1.1875,0,0.6875
1499894112646993,-0.3125,-0.0625,0.5625
1499894112669996,1.0625,0.0625,0
1499894112693008,0.625,0.4375,0.25
1499894112706996,-0.3125,0.5,0
1499894112729998,-1,0.4375,0.25
1499894112753000,-1.25,0.5625,0.1875
1499894112767008,0.625,0.6875,0.375
1499894112791002,0.125,0.9375,0.1875
1499894112814011,-1.5,0.6875,0.5
1499894112827004,-1.375,0.5,0.375
1499894112850005,-0.875,0.1875,0.5
1499894112873006,0,0.4375,0.125
1499894112887008,0.125,0.75,0.3125
1499894112911009,-0.1875,0.75,-0.1875
1499894112933010,-0.5,0.5,0.1875
1499894112947011,-0.875,0.25,0.0625
1499894112970013,-0.625,-0.0625,0.125
1499894112993020,0.6875,0.4375,-0.0625
1499894113014016,0.75,0.875,-0.375
1499894113030016,-0.375,0.4375,-0.3125
1499894113053020,-1.0625,-0.5625,0.1875
1499894113074021,0.375,-0.875,0.3125
1499894113090020,0.9375,-0.4375,0.125
1499894113120021,1.3125,-0.1875,-0.4375
1499894113134023,1.0625,0.125,-0.3125
1499894113150022,-1.1875,-0.3125,0
1499894113173024,-1.3125,-0.4375,0.625
1499894113194026,-0.3125,0.3125,0.5
1499894113211027,0.25,0.5,0.25
1499894113233028,0.375,0.625,0
1499894113254029,0.3125,0.3125,-0.125
1499894113270030,-1.125,0,0.0625
1499894113293036,-0.8125,0.25,-0.1875
1499894113314033,-0.4375,0.1875,-0.5
