timestamp,x,y,z,w
1499894546353551,-0.259949,-0.607605,0.646667,0.38092
1499894546368552,-0.259766,-0.605591,0.647766,0.382263
1499894546390558,-0.260193,-0.604004,0.648804,0.382874
1499894546413554,-0.261169,-0.603516,0.648926,0.382629
1499894546428555,-0.262634,-0.604004,0.648743,0.381226
1499894546450557,-0.263733,-0.604309,0.648804,0.379822
1499894546473561,-0.264038,-0.603699,0.649292,0.379761
1499894546494569,-0.263306,-0.600708,0.651733,0.380859
1499894546511562,-0.263123,-0.598694,0.653503,0.381165
1499894546533562,-0.263062,-0.59845,0.653931,0.380737
1499894546554564,-0.263245,-0.599487,0.653259,0.38031
1499894546572568,-0.263062,-0.599976,0.652954,0.380127
1499894546593570,-0.262268,-0.598938,0.65387,0.380676
1499894546607565,-0.261292,-0.597473,0.655273,0.381226
1499894546630568,-0.260986,-0.597229,0.655579,0.381226
1499894546653567,-0.260864,-0.597534,0.655457,0.381104
1499894546667568,-0.260498,-0.597534,0.65564,0.381042
1499894546690572,-0.260376,-0.59729,0.656006,0.380981
1499894546720578,-0.26001,-0.596802,0.656616,0.38092
1499894546727572,-0.259583,-0.596191,0.657349,0.380859
1499894546750574,-0.259521,-0.596191,0.657471,0.380676
1499894546773575,-0.259521,-0.596497,0.657349,0.380432
1499894546787577,-0.259521,-0.596802,0.657043,0.380432
1499894546811577,-0.259521,-0.596802,0.657043,0.380432
1499894546833598,-0.259521,-0.596802,0.657104,0.380432
1499894546854581,-0.25946,-0.597168,0.656799,0.380371
1499894546870580,-0.259399,-0.597473,0.656555,0.380432
1499894546893582,-0.259338,-0.597473,0.656555,0.380432
1499894546914588,-0.259338,-0.597412,0.656555,0.380432
1499894546930583,-0.259399,-0.597717,0.656311,0.380432
1499894546953589,-0.259399,-0.597656,0.656311,0.380432
1499894546974607,-0.259399,-0.597656,0.656311,0.380432
1499894546990590,-0.259521,-0.597961,0.655945,0.380554
1499894547013589,-0.259766,-0.598022,0.655701,0.380676
1499894547034610,-0.259949,-0.598145,0.65564,0.380554
1499894547050591,-0.26001,-0.598389,0.655518,0.38031
1499894547073592,-0.259888,-0.598206,0.655701,0.38031
1499894547094615,-0.259888,-0.598206,0.655701,0.38031
1499894547110594,-0.259827,-0.598206,0.655701,0.380371
1499894547133596,-0.259827,-0.598206,0.655701,0.380371
1499894547154598,-0.259766,-0.598206,0.655823,0.380188
1499894547170613,-0.259583,-0.598145,0.655945,0.380188
1499894547193602,-0.259521,-0.598145,0.655945,0.380188
1499894547214621,-0.259521,-0.598145,0.655945,0.380249
1499894547230604,-0.259521,-0.598145,0.656006,0.380249
1499894547253608,-0.259705,-0.598511,0.655701,0.380005
1499894547275604,-0.259705,-0.598511,0.655701,0.380066
1499894547290605,-0.259583,-0.598083,0.655945,0.38031
1499894547313606,-0.259583,-0.598083,0.655945,0.38031
1499894547335607,-0.259705,-0.598267,0.655762,0.380249
1499894547350626,-0.259644,-0.598267,0.655762,0.380249
1499894547380610,-0.259644,-0.598267,0.655762,0.380249
1499894547395612,-0.259644,-0.598267,0.655762,0.38031
1499894547410646,-0.259888,-0.598328,0.65564,0.380249
1499894547433615,-0.260071,-0.598389,0.655457,0.380249
1499894547438633,-0.260254,-0.598572,0.655273,0.380249
1499894547461674,-0.260254,-0.598572,0.655273,0.380249
1499894547477616,-0.260254,-0.598572,0.655273,0.380249
1499894547498682,-0.260254,-0.598572,0.655273,0.380249
1499894547522632,-0.260376,-0.598816,0.655029,0.380249
1499894547537621,-0.260376,-0.598816,0.654968,0.380249
1499894547558667,-0.260376,-0.598816,0.655029,0.380249
1499894547581621,-0.260376,-0.598816,0.655029,0.380249
1499894547597629,-0.260376,-0.598816,0.655029,0.380249
1499894547618667,-0.260254,-0.598999,0.654907,0.380249
1499894547641649,-0.260132,-0.599182,0.654724,0.380249
1499894547659625,-0.260132,-0.599182,0.654724,0.38031
1499894547678644,-0.260132,-0.599182,0.654724,0.38031
1499894547701665,-0.260132,-0.599182,0.654724,0.38031
1499894547717635,-0.260071,-0.599182,0.654724,0.38031
1499894547738631,-0.260071,-0.599182,0.654724,0.38031
1499894547761657,-0.260071,-0.599182,0.654724,0.38031
1499894547777632,-0.260071,-0.599182,0.654724,0.380371
1499894547798654,-0.260071,-0.599182,0.654724,0.380371
1499894547821679,-0.26001,-0.599182,0.654724,0.380371
1499894547837636,-0.26001,-0.599182,0.654724,0.380371
1499894547858665,-0.259949,-0.598999,0.654846,0.380493
1499894547881639,-0.259949,-0.598999,0.654846,0.380493
1499894547897639,-0.259949,-0.598999,0.654846,0.380554
1499894547918706,-0.259888,-0.598999,0.654846,0.380554
1499894547941656,-0.259949,-0.598999,0.654846,0.380554
1499894547957650,-0.259949,-0.598938,0.654846,0.380554
1499894547978651,-0.259888,-0.598938,0.654907,0.380554
1499894548001657,-0.259888,-0.598999,0.654846,0.380554
1499894548017655,-0.259827,-0.599182,0.654724,0.380554
1499894548038649,-0.259827,-0.599182,0.654724,0.380554
1499894548061659,-0.259766,-0.599182,0.654724,0.380554
1499894548077653,-0.259766,-0.599182,0.654724,0.380554
1499894548098718,-0.259766,-0.599121,0.654785,0.380554
1499894548129657,-0.259705,-0.599121,0.654785,0.380615
1499894548137653,-0.259705,-0.599121,0.654785,0.380615
1499894548158676,-0.259705,-0.599121,0.654785,0.380615
1499894548181666,-0.259827,-0.599426,0.654541,0.380493
1499894548197660,-0.259888,-0.599365,0.654541,0.380493
1499894548218718,-0.259888,-0.599365,0.654541,0.380493
1499894548241661,-0.259949,-0.599426,0.65448,0.380432
1499894548259661,-0.26001,-0.599548,0.654358,0.380371
1499894548278661,-0.26001,-0.599609,0.654358,0.380371
1499894548301672,-0.26001,-0.599548,0.654358,0.380371
1499894548319664,-0.26001,-0.599548,0.654358,0.380371
1499894548341665,-0.260132,-0.599548,0.654297,0.380493
1499894548361679,-0.260315,-0.599548,0.654175,0.380554
1499894548386672,-0.260498,-0.599609,0.654053,0.380554
1499894548398705,-0.260498,-0.599609,0.654053,0.380554
1499894548421672,-0.260498,-0.599609,0.654053,0.380554
1499894548439674,-0.260498,-0.599609,0.654053,0.380554
1499894548458706,-0.260498,-0.599609,0.654053,0.380554
1499894548481673,-0.260498,-0.599609,0.654053,0.380554
1499894548499680,-0.260498,-0.599609,0.654053,0.380554
1499894548518678,-0.260376,-0.599792,0.653992,0.380432
1499894548541680,-0.260193,-0.599609,0.654175,0.380493
1499894548559693,-0.26001,-0.599487,0.654358,0.380615
1499894548578682,-0.259949,-0.59967,0.654175,0.380615
1499894548601691,-0.259949,-0.599915,0.653992,0.380554
1499894548619686,-0.259949,-0.599915,0.653992,0.380554
1499894548638683,-0.259949,-0.599915,0.653992,0.380554
1499894548661684,-0.259949,-0.599915,0.653992,0.380554
1499894548683705,-0.259888,-0.599915,0.653992,0.380615
1499894548700692,-0.259888,-0.599854,0.653992,0.380615
1499894548721690,-0.259888,-0.600037,0.65387,0.380615
1499894548743694,-0.259888,-0.600098,0.653809,0.380615
1499894548758709,-0.259766,-0.600037,0.65387,0.380676
1499894548781694,-0.259644,-0.599792,0.653992,0.38092
1499894548803739,-0.259644,-0.599792,0.653992,0.38092
1499894548820699,-0.259644,-0.599915,0.653931,0.380859
1499894548841700,-0.259644,-0.599915,0.653931,0.380859
1499894548863714,-0.259644,-0.599915,0.653931,0.380859
1499894548886700,-0.259583,-0.599915,0.653931,0.38092
1499894548900698,-0.259583,-0.599915,0.653931,0.38092
1499894548924699,-0.259583,-0.599915,0.653931,0.38092
1499894548940700,-0.259583,-0.599915,0.653931,0.38092
1499894548961711,-0.259583,-0.599915,0.653931,0.38092
1499894548983705,-0.259583,-0.599915,0.653931,0.38092
1499894548999740,-0.259521,-0.599915,0.653931,0.380981
1499894549021752,-0.259521,-0.599915,0.653931,0.380981
1499894549043714,-0.259521,-0.599854,0.653931,0.380981
1499894549060714,-0.25946,-0.599915,0.653931,0.381042
1499894549080711,-0.25946,-0.599915,0.653931,0.381042
1499894549103756,-0.25946,-0.599915,0.653931,0.381042
1499894549120710,-0.25946,-0.599915,0.653931,0.381042
1499894549141711,-0.25946,-0.599915,0.653931,0.381042
1499894549163713,-0.25946,-0.599915,0.653931,0.381042
1499894549181735,-0.259399,-0.599915,0.653931,0.381042
1499894549201729,-0.259399,-0.599915,0.65387,0.381042
1499894549223737,-0.259399,-0.599915,0.653931,0.381042
1499894549241718,-0.259399,-0.599915,0.653931,0.381042
1499894549261733,-0.259399,-0.599915,0.653931,0.381042
1499894549283741,-0.259399,-0.599854,0.653931,0.381042
1499894549301721,-0.259399,-0.599854,0.653931,0.381042
1499894549321744,-0.25946,-0.599976,0.653809,0.381042
1499894549343724,-0.25946,-0.599976,0.653809,0.381042
1499894549361727,-0.25946,-0.599976,0.653809,0.381042
1499894549380744,-0.25946,-0.599976,0.653809,0.381042
1499894549403768,-0.25946,-0.599976,0.653809,0.381104
1499894549421729,-0.25946,-0.599976,0.653809,0.381104
1499894549440730,-0.25946,-0.599976,0.653809,0.381104
1499894549463735,-0.25946,-0.599976,0.653809,0.381104
1499894549481732,-0.25946,-0.599976,0.653809,0.381104
1499894549501742,-0.25946,-0.599976,0.653809,0.381104
1499894549523755,-0.25946,-0.599976,0.653809,0.381104
1499894549541742,-0.25946,-0.599976,0.653809,0.381104
1499894549561745,-0.259399,-0.599915,0.65387,0.381104
1499894549583741,-0.259399,-0.599915,0.65387,0.381104
1499894549601738,-0.259399,-0.599915,0.65387,0.381165
1499894549621751,-0.259338,-0.599915,0.65387,0.381165
1499894549643743,-0.259338,-0.599915,0.653809,0.381165
1499894549661742,-0.259338,-0.599915,0.65387,0.381226
1499894549680744,-0.259277,-0.599915,0.65387,0.381226
1499894549703784,-0.259277,-0.599915,0.65387,0.381226
1499894549721746,-0.259399,-0.600037,0.653687,0.381226
1499894549740748,-0.259399,-0.600037,0.653687,0.381226
1499894549763749,-0.259338,-0.599854,0.653809,0.381348
1499894549781749,-0.259338,-0.599854,0.65387,0.381348
1499894549802751,-0.259277,-0.599792,0.65387,0.381409
1499894549823754,-0.259277,-0.599792,0.65387,0.381409
1499894549841752,-0.259338,-0.599792,0.65387,0.381348
1499894549862758,-0.259338,-0.599792,0.65387,0.381348
1499894549883760,-0.259338,-0.599792,0.65387,0.381348
1499894549901756,-0.259338,-0.599792,0.65387,0.381348
1499894549922757,-0.25946,-0.599915,0.653748,0.381226
1499894549943758,-0.25946,-0.599915,0.653748,0.381226
1499894549965761,-0.25946,-0.599915,0.653748,0.381226
1499894549983763,-0.259399,-0.599915,0.653748,0.381287
1499894550003793,-0.259399,-0.599915,0.653809,0.381287
1499894550021764,-0.25946,-0.599915,0.653687,0.381348
1499894550042766,-0.259583,-0.600037,0.653625,0.381226
1499894550063766,-0.259583,-0.600037,0.653564,0.381226
1499894550081785,-0.259583,-0.600037,0.653564,0.381226
1499894550102769,-0.259583,-0.600037,0.653625,0.381287
1499894550123787,-0.259583,-0.600037,0.653625,0.381287
1499894550141774,-0.259766,-0.60022,0.653442,0.381165
1499894550163791,-0.259766,-0.60022,0.653442,0.381165
1499894550183794,-0.259766,-0.599976,0.653625,0.381287
1499894550201777,-0.259766,-0.599976,0.653625,0.381287
1499894550223774,-0.259766,-0.599915,0.653625,0.381287
1499894550243776,-0.259766,-0.599915,0.653625,0.381287
1499894550261799,-0.259766,-0.599915,0.653625,0.381287
1499894550283778,-0.259766,-0.599915,0.653625,0.381287
1499894550305784,-0.259766,-0.599915,0.653625,0.381287
1499894550321781,-0.259766,-0.599976,0.653625,0.381287
1499894550343782,-0.259766,-0.599976,0.653625,0.381287
1499894550363786,-0.259766,-0.599976,0.653625,0.381287
1499894550389790,-0.259766,-0.599915,0.653625,0.381287
1499894550403789,-0.259766,-0.599915,0.653625,0.381287
1499894550423789,-0.259766,-0.599915,0.653625,0.381287
1499894550441808,-0.259766,-0.599915,0.653625,0.381287
1499894550463790,-0.259705,-0.599915,0.653625,0.381287
1499894550483810,-0.259705,-0.599976,0.653625,0.381287
1499894550501797,-0.259705,-0.599976,0.653625,0.381348
1499894550523793,-0.259644,-0.599915,0.653625,0.381348
1499894550543794,-0.259644,-0.599976,0.653564,0.381348
1499894550561795,-0.259644,-0.599976,0.653625,0.381409
1499894550583795,-0.259583,-0.599976,0.653564,0.381409
1499894550606804,-0.259583,-0.599976,0.653564,0.381409
1499894550621798,-0.259583,-0.599915,0.653625,0.381409
1499894550643799,-0.259521,-0.599915,0.653625,0.38147
1499894550663802,-0.259521,-0.599915,0.653625,0.38147
1499894550681801,-0.259521,-0.599915,0.653625,0.38147
1499894550703806,-0.259521,-0.599915,0.653625,0.38147
1499894550724807,-0.259521,-0.599915,0.653625,0.38147
1499894550741805,-0.259521,-0.599915,0.653625,0.38147
1499894550763811,-0.259521,-0.599915,0.653625,0.38147
1499894550784811,-0.25946,-0.599792,0.653748,0.381531
1499894550801826,-0.25946,-0.599792,0.653748,0.381531
1499894550823809,-0.259399,-0.599792,0.653748,0.381592
1499894550844809,-0.259399,-0.599731,0.653748,0.381592
1499894550861829,-0.259338,-0.599731,0.653748,0.381592
1499894550883816,-0.259338,-0.599731,0.653748,0.381653
1499894550904816,-0.259277,-0.599792,0.653748,0.381653
1499894550921817,-0.259277,-0.599792,0.653748,0.381653
1499894550943816,-0.259277,-0.599731,0.653748,0.381653
1499894550964821,-0.259277,-0.599731,0.653748,0.381714
1499894550981835,-0.259277,-0.599731,0.653748,0.381714
1499894551003825,-0.259277,-0.599731,0.653748,0.381653
1499894551024825,-0.259277,-0.599731,0.653748,0.381714
1499894551041843,-0.259277,-0.599731,0.653748,0.381714
1499894551063827,-0.259277,-0.599731,0.653809,0.381714
1499894551090824,-0.259277,-0.59967,0.653809,0.381714
1499894551106853,-0.259338,-0.599731,0.653687,0.381714
1499894551122830,-0.259338,-0.599731,0.653687,0.381714
1499894551145828,-0.259338,-0.599731,0.653687,0.381714
1499894551166867,-0.259338,-0.599731,0.653687,0.381714
1499894551183866,-0.259338,-0.599731,0.653748,0.381714
1499894551205837,-0.259338,-0.599731,0.653748,0.381714
