timestamp,x,y,z,w
1499894094143927,-0.163818,-0.671021,0.701965,0.173584
1499894094160928,-0.164246,-0.670471,0.702271,0.174011
1499894094182925,-0.164307,-0.668579,0.703735,0.175354
1499894094203928,-0.164124,-0.66748,0.704529,0.176575
1499894094220927,-0.164795,-0.668213,0.703735,0.176208
1499894094242941,-0.166077,-0.666016,0.705688,0.175659
1499894094263930,-0.167603,-0.665039,0.706421,0.174805
1499894094280932,-0.168579,-0.666931,0.704712,0.173645
1499894094302932,-0.168762,-0.666748,0.704895,0.173462
1499894094323935,-0.169067,-0.664429,0.706909,0.17395
1499894094340935,-0.169434,-0.663086,0.708069,0.173889
1499894094362936,-0.169861,-0.663147,0.708069,0.173279
1499894094383937,-0.169861,-0.663147,0.70813,0.172974
1499894094400938,-0.169312,-0.663025,0.708374,0.172974
1499894094422941,-0.168579,-0.66272,0.708862,0.172913
1499894094446940,-0.168091,-0.661682,0.709839,0.173218
1499894094460942,-0.167908,-0.660828,0.710571,0.173767
1499894094482943,-0.167908,-0.660461,0.710815,0.174011
1499894094505946,-0.167847,-0.66095,0.710449,0.173828
1499894094520945,-0.167847,-0.661255,0.710205,0.173645
1499894094542946,-0.167969,-0.661133,0.710388,0.173462
1499894094565951,-0.168091,-0.660706,0.710693,0.173584
1499894094580949,-0.168152,-0.660217,0.71106,0.173828
1499894094602949,-0.168152,-0.660156,0.711121,0.173889
1499894094625957,-0.168091,-0.660339,0.710999,0.173889
1499894094646952,-0.168091,-0.660583,0.710754,0.173889
1499894094663959,-0.168091,-0.660583,0.710754,0.17395
1499894094685956,-0.168091,-0.660583,0.710754,0.17395
1499894094706958,-0.167969,-0.660889,0.710449,0.174072
1499894094722957,-0.167847,-0.661072,0.710266,0.174072
1499894094745958,-0.167847,-0.661072,0.710266,0.174072
1499894094759960,-0.167847,-0.661072,0.710327,0.174072
1499894094783961,-0.167847,-0.661011,0.710327,0.174072
1499894094805962,-0.167969,-0.661194,0.710144,0.174194
1499894094819962,-0.167969,-0.661316,0.709961,0.174316
1499894094842964,-0.167908,-0.661316,0.710022,0.174377
1499894094865965,-0.167908,-0.661255,0.710022,0.174377
1499894094879966,-0.167969,-0.661377,0.7099,0.174377
1499894094902967,-0.168091,-0.66156,0.709717,0.174255
1499894094925977,-0.168091,-0.66156,0.709717,0.174255
1499894094939969,-0.16803,-0.66156,0.709717,0.174316
1499894094962971,-0.16803,-0.66156,0.709717,0.174316
1499894094985972,-0.167969,-0.66156,0.709778,0.174316
1499894095006973,-0.16803,-0.66156,0.709778,0.174316
1499894095022974,-0.168152,-0.661621,0.709595,0.174377
1499894095045978,-0.168152,-0.661438,0.709717,0.174683
1499894095066978,-0.168091,-0.66156,0.709595,0.174927
1499894095082977,-0.168213,-0.661682,0.709412,0.175049
1499894095105979,-0.168335,-0.661865,0.709167,0.174988
1499894095126982,-0.168396,-0.661987,0.709045,0.174988
1499894095142981,-0.168335,-0.661987,0.709106,0.175049
1499894095165983,-0.168335,-0.661987,0.709045,0.175049
1499894095186984,-0.168274,-0.661987,0.709106,0.17511
1499894095202985,-0.168274,-0.661987,0.709106,0.17511
1499894095225990,-0.168274,-0.661926,0.709106,0.17511
1499894095246987,-0.168274,-0.662109,0.708984,0.17511
1499894095262988,-0.168274,-0.662109,0.708984,0.17511
1499894095285990,-0.168274,-0.661865,0.709106,0.175354
1499894095306991,-0.168274,-0.661865,0.709106,0.175354
1499894095322990,-0.168396,-0.662048,0.708984,0.175293
1499894095345993,-0.168457,-0.662231,0.70874,0.175293
1499894095366995,-0.168457,-0.662231,0.70874,0.175293
1499894095382995,-0.168396,-0.662231,0.70874,0.175293
1499894095405998,-0.168396,-0.662231,0.708801,0.175354
1499894095427997,-0.168457,-0.662109,0.708801,0.175598
1499894095442998,-0.168457,-0.662109,0.708801,0.175598
1499894095466002,-0.168457,-0.66217,0.708679,0.175659
1499894095488002,-0.168579,-0.662292,0.708557,0.175842
1499894095511003,-0.168579,-0.662415,0.708374,0.175964
1499894095526003,-0.168579,-0.662415,0.708374,0.175964
1499894095548004,-0.168579,-0.662415,0.708435,0.175964
1499894095562005,-0.168579,-0.662354,0.708435,0.175964
1499894095586007,-0.168579,-0.662537,0.708252,0.176086
1499894095608008,-0.168518,-0.662537,0.708252,0.176086
1499894095622009,-0.168518,-0.662537,0.708252,0.176086
1499894095646011,-0.168518,-0.662537,0.708252,0.176086
1499894095668012,-0.168457,-0.662598,0.708191,0.176147
1499894095682015,-0.168396,-0.662598,0.708191,0.176147
1499894095706013,-0.168396,-0.662598,0.708191,0.176147
1499894095728015,-0.168396,-0.66272,0.70813,0.176147
1499894095742017,-0.168335,-0.66272,0.70813,0.176147
1499894095766018,-0.168335,-0.662659,0.70813,0.176147
1499894095788019,-0.168274,-0.662659,0.708191,0.176208
1499894095802019,-0.168274,-0.662659,0.708191,0.176208
1499894095826020,-0.168274,-0.662781,0.708069,0.176208
1499894095848021,-0.168274,-0.662781,0.708069,0.176208
1499894095862025,-0.168274,-0.662781,0.708069,0.176208
1499894095886024,-0.168274,-0.662781,0.708069,0.17627
1499894095908026,-0.168213,-0.66272,0.708069,0.17627
1499894095929028,-0.168213,-0.66272,0.70813,0.17627
1499894095946028,-0.168152,-0.66272,0.70813,0.176331
1499894095968028,-0.168152,-0.66272,0.70813,0.176331
1499894095989032,-0.168152,-0.66272,0.70813,0.176331
1499894096006032,-0.168152,-0.662659,0.70813,0.176331
1499894096028032,-0.168152,-0.662659,0.70813,0.176331
1499894096049034,-0.168091,-0.662659,0.70813,0.176392
1499894096066035,-0.168152,-0.662476,0.708313,0.176331
1499894096088037,-0.168152,-0.662476,0.708313,0.176392
1499894096110038,-0.168091,-0.662476,0.708374,0.176392
1499894096126039,-0.168091,-0.662476,0.708374,0.176453
1499894096148042,-0.16803,-0.662415,0.708374,0.176453
1499894096169043,-0.16803,-0.662415,0.708374,0.176453
1499894096186043,-0.16803,-0.662354,0.708435,0.176453
1499894096208044,-0.16803,-0.662354,0.708435,0.176514
1499894096229044,-0.167969,-0.662476,0.708313,0.176514
1499894096246045,-0.167969,-0.662476,0.708313,0.176514
1499894096268046,-0.167969,-0.662476,0.708374,0.176514
1499894096289051,-0.167969,-0.662476,0.708374,0.176514
1499894096306049,-0.167908,-0.662415,0.708374,0.176575
1499894096328050,-0.167908,-0.662415,0.708435,0.176575
1499894096349052,-0.16803,-0.662659,0.70813,0.176514
1499894096366058,-0.168091,-0.662903,0.707947,0.176453
1499894096389057,-0.168091,-0.662842,0.707947,0.176514
1499894096412054,-0.16803,-0.662842,0.707947,0.176514
1499894096426055,-0.16803,-0.662964,0.707825,0.176636
1499894096448057,-0.16803,-0.662964,0.707825,0.176636
1499894096471058,-0.16803,-0.662964,0.707825,0.176636
1499894096486060,-0.167969,-0.663025,0.707764,0.176636
1499894096508060,-0.167969,-0.663025,0.707764,0.176636
1499894096531062,-0.167969,-0.663025,0.707764,0.176636
1499894096545063,-0.167969,-0.663025,0.707825,0.176636
1499894096568064,-0.167847,-0.663208,0.707703,0.176636
1499894096591065,-0.167847,-0.663147,0.707703,0.176636
1499894096605066,-0.167847,-0.663147,0.707703,0.176636
1499894096628067,-0.167786,-0.663147,0.707764,0.176636
1499894096651069,-0.167786,-0.663147,0.707764,0.176697
1499894096665070,-0.167786,-0.663086,0.707764,0.176697
1499894096688071,-0.167725,-0.663086,0.707764,0.176697
1499894096711072,-0.167725,-0.663086,0.707764,0.176758
1499894096716084,-0.167725,-0.663025,0.707825,0.176758
1499894096732073,-0.167664,-0.663025,0.707825,0.176758
1499894096761076,-0.167664,-0.663025,0.707825,0.176758
1499894096776079,-0.167664,-0.663025,0.707825,0.176819
1499894096792085,-0.167603,-0.663025,0.707825,0.176819
1499894096813080,-0.167603,-0.663025,0.707825,0.176819
1499894096836079,-0.167603,-0.663025,0.707825,0.17688
1499894096852080,-0.167603,-0.662964,0.707886,0.17688
1499894096873081,-0.167603,-0.662964,0.707886,0.17688
1499894096896083,-0.167603,-0.662964,0.707886,0.176819
1499894096912085,-0.167603,-0.662964,0.707886,0.17688
1499894096933085,-0.167603,-0.663025,0.707825,0.176819
1499894096956086,-0.167542,-0.663025,0.707825,0.176819
1499894096972087,-0.167542,-0.663025,0.707825,0.17688
1499894096993090,-0.16748,-0.663025,0.707825,0.17688
1499894097016096,-0.16748,-0.662964,0.707886,0.176941
1499894097034090,-0.167419,-0.662964,0.707886,0.176941
1499894097053091,-0.167419,-0.662964,0.707886,0.177002
1499894097077094,-0.167419,-0.662903,0.707947,0.177002
1499894097094094,-0.167419,-0.662903,0.707947,0.177002
1499894097113096,-0.16748,-0.662964,0.707886,0.177063
1499894097136097,-0.16748,-0.662903,0.707886,0.177063
1499894097154098,-0.16748,-0.662903,0.707947,0.177063
1499894097173100,-0.16748,-0.662903,0.707947,0.177063
1499894097196100,-0.167542,-0.663086,0.707764,0.177063
1499894097214101,-0.16748,-0.663086,0.707764,0.177124
1499894097233104,-0.16748,-0.663086,0.707764,0.177124
1499894097256104,-0.16748,-0.663025,0.707764,0.177124
1499894097274104,-0.16748,-0.663025,0.707764,0.177124
1499894097293105,-0.16748,-0.663025,0.707825,0.177124
1499894097316109,-0.167419,-0.662964,0.707825,0.177185
1499894097334108,-0.167419,-0.662964,0.707825,0.177185
1499894097353110,-0.167419,-0.662964,0.707825,0.177185
1499894097376110,-0.167419,-0.662964,0.707886,0.177185
1499894097398114,-0.167358,-0.662903,0.707886,0.177185
1499894097413114,-0.167419,-0.662903,0.707886,0.177185
1499894097436118,-0.167358,-0.662903,0.707886,0.177185
1499894097458115,-0.167358,-0.662903,0.707947,0.177246
1499894097476116,-0.167358,-0.662842,0.707947,0.177246
1499894097496117,-0.167358,-0.662842,0.707947,0.177246
1499894097518120,-0.167358,-0.662842,0.707947,0.177246
1499894097533122,-0.167297,-0.662842,0.707947,0.177246
1499894097556122,-0.167297,-0.662842,0.708008,0.177307
1499894097581121,-0.167297,-0.662781,0.708008,0.177307
1499894097601122,-0.167236,-0.662781,0.708008,0.177307
1499894097616126,-0.167236,-0.662781,0.708008,0.177368
1499894097638127,-0.167236,-0.662781,0.708069,0.177368
1499894097653125,-0.167236,-0.66272,0.708069,0.177368
1499894097676127,-0.167175,-0.66272,0.70813,0.177429
1499894097698129,-0.167236,-0.66272,0.708008,0.177551
1499894097713131,-0.167236,-0.66272,0.708069,0.177612
1499894097736131,-0.167236,-0.662659,0.708069,0.177612
1499894097758132,-0.167236,-0.662659,0.708069,0.177612
1499894097773133,-0.167236,-0.662659,0.708069,0.177612
1499894097796138,-0.167175,-0.662598,0.70813,0.177612
1499894097818138,-0.167175,-0.662598,0.70813,0.177612
1499894097833138,-0.167175,-0.662598,0.70813,0.177673
1499894097856139,-0.167114,-0.662598,0.70813,0.177673
1499894097878138,-0.167114,-0.662598,0.708191,0.177734
1499894097893140,-0.167053,-0.662537,0.708191,0.177734
1499894097916141,-0.167053,-0.662537,0.708191,0.177795
1499894097938144,-0.166992,-0.662537,0.708191,0.177795
1499894097955143,-0.166992,-0.662476,0.708252,0.177856
1499894097976145,-0.166931,-0.662476,0.708252,0.177856
1499894097998146,-0.167114,-0.662476,0.708191,0.177917
1499894098015159,-0.167114,-0.662476,0.708191,0.177917
1499894098036150,-0.167236,-0.662415,0.708191,0.17804
1499894098059156,-0.167358,-0.662231,0.708313,0.178223
1499894098075153,-0.167542,-0.66217,0.708252,0.178406
1499894098096151,-0.167542,-0.66217,0.708313,0.178406
1499894098118154,-0.167542,-0.662109,0.708313,0.178406
1499894098135156,-0.16748,-0.662109,0.708313,0.178406
1499894098156154,-0.16748,-0.662109,0.708313,0.178467
1499894098178157,-0.16748,-0.661743,0.708618,0.178528
1499894098195158,-0.16748,-0.661743,0.708618,0.178528
1499894098216160,-0.16748,-0.661865,0.708557,0.178467
1499894098238161,-0.16748,-0.661865,0.708557,0.178467
1499894098256160,-0.16748,-0.661865,0.708557,0.178528
1499894098276164,-0.16748,-0.661804,0.708557,0.178528
1499894098298163,-0.16748,-0.661804,0.708557,0.178528
1499894098316164,-0.16748,-0.661804,0.708557,0.178528
1499894098336170,-0.167419,-0.661804,0.708618,0.178528
1499894098358167,-0.167419,-0.661743,0.708618,0.178589
1499894098376178,-0.167419,-0.661743,0.708618,0.178589
1499894098396169,-0.167419,-0.661987,0.708435,0.178528
1499894098418171,-0.167358,-0.661987,0.708435,0.178528
1499894098436171,-0.167358,-0.661926,0.708496,0.178589
1499894098456173,-0.167236,-0.661743,0.708618,0.178711
1499894098478173,-0.167236,-0.661743,0.708679,0.178711
1499894098501174,-0.167236,-0.661682,0.708679,0.178711
1499894098516181,-0.167175,-0.661682,0.708679,0.178772
1499894098538178,-0.167175,-0.661682,0.708679,0.178772
1499894098556180,-0.167175,-0.661682,0.70874,0.178772
1499894098576180,-0.167114,-0.661621,0.70874,0.178833
1499894098600182,-0.167114,-0.661621,0.70874,0.178833
1499894098616182,-0.167175,-0.661804,0.708618,0.178894
1499894098636184,-0.167175,-0.661743,0.708618,0.178894
1499894098658185,-0.167114,-0.66156,0.708801,0.178894
1499894098676186,-0.167114,-0.66156,0.708801,0.178894
1499894098696192,-0.167114,-0.66156,0.708801,0.178955
1499894098718189,-0.167053,-0.661499,0.708862,0.178955
1499894098736189,-0.167053,-0.661499,0.708862,0.179016
1499894098757190,-0.166992,-0.661499,0.708862,0.179016
1499894098778193,-0.166992,-0.661499,0.708862,0.179016
1499894098796193,-0.166931,-0.661255,0.709106,0.179077
1499894098816196,-0.166931,-0.661194,0.709106,0.179138
1499894098838194,-0.16687,-0.661194,0.709167,0.179138
1499894098862196,-0.16687,-0.661194,0.709167,0.179138
1499894098877198,-0.16687,-0.661194,0.709167,0.179138
1499894098898198,-0.16687,-0.661133,0.709167,0.179138
1499894098916204,-0.167053,-0.66095,0.70929,0.179321
1499894098937200,-0.167236,-0.660828,0.709351,0.179443
1499894098959208,-0.167358,-0.660889,0.709167,0.179504
1499894098976205,-0.167419,-0.661072,0.709045,0.179626
1499894098997205,-0.167358,-0.661011,0.709045,0.179626
1499894099018205,-0.167358,-0.661011,0.709045,0.179626
1499894099036207,-0.167358,-0.661011,0.709106,0.179626
1499894099057207,-0.167358,-0.66095,0.709106,0.179626
1499894099078209,-0.167297,-0.66095,0.709106,0.179688
1499894099096209,-0.167297,-0.66095,0.709167,0.179565
1499894099117213,-0.167297,-0.66095,0.709167,0.179565
1499894099138235,-0.167358,-0.66095,0.709167,0.179504
1499894099156213,-0.167358,-0.660889,0.709229,0.179443
1499894099177214,-0.167419,-0.660522,0.709595,0.179382
1499894099198216,-0.167542,-0.660278,0.709839,0.179138
1499894099221217,-0.167786,-0.660095,0.710022,0.178833
1499894099239219,-0.168091,-0.659912,0.710205,0.178467
1499894099259230,-0.168579,-0.659729,0.710388,0.17804
1499894099276226,-0.16925,-0.659668,0.710449,0.177429
1499894099299222,-0.169983,-0.659546,0.710571,0.176697
1499894099318223,-0.170715,-0.659363,0.710754,0.175903
1499894099336223,-0.171448,-0.658997,0.71106,0.175293
1499894099363225,-0.172302,-0.658508,0.711487,0.174622
1499894099378225,-0.173096,-0.658203,0.711731,0.173889
1499894099396227,-0.173828,-0.657959,0.711914,0.173279
1499894099419229,-0.174255,-0.657715,0.712158,0.172729
1499894099438235,-0.174438,-0.657593,0.712341,0.172302
1499894099456230,-0.174438,-0.65741,0.712585,0.172058
1499894099479232,-0.174438,-0.657104,0.712891,0.171936
1499894099498232,-0.174683,-0.65686,0.713135,0.171509
1499894099521234,-0.175049,-0.656799,0.713379,0.170532
1499894099539235,-0.175964,-0.656799,0.713562,0.16864
1499894099559257,-0.177795,-0.657288,0.71344,0.165466
1499894099581239,-0.180664,-0.657776,0.713318,0.160828
1499894099599239,-0.184448,-0.658569,0.712952,0.154785
1499894099618241,-0.189026,-0.660461,0.71167,0.146851
1499894099641242,-0.194214,-0.663208,0.709656,0.137207
1499894099659243,-0.199707,-0.665588,0.707886,0.126648
1499894099680244,-0.205017,-0.666382,0.707397,0.116272
1499894099701244,-0.209778,-0.665344,0.708496,0.106384
1499894099726246,-0.2146,-0.663086,0.710754,0.0957642
1499894099738250,-0.219727,-0.6604,0.713135,0.0841064
1499894099761249,-0.225281,-0.659363,0.713745,0.0710449
1499894099779249,-0.231018,-0.660767,0.711975,0.0563965
1499894099800251,-0.236267,-0.663086,0.709106,0.0414429
1499894099821252,-0.241028,-0.664551,0.706787,0.0269165
1499894099839253,-0.245605,-0.66449,0.705688,0.0128784
1499894099860255,-0.249939,-0.663025,0.705688,-0.000488281
1499894099881258,-0.254211,-0.660645,0.706238,-0.0136108
