timestamp,roll,pitch,yaw
1499876404739242,-1.38016,-0.246555,-0.575787
1499876404763243,-1.37942,-0.245818,-0.575591
1499876404778245,-1.37962,-0.245765,-0.575679
1499876404799247,-1.37962,-0.245685,-0.575564
1499876404823247,-1.37962,-0.245685,-0.575564
1499876404838247,-1.37905,-0.245077,-0.575626
1499876404859249,-1.37909,-0.243992,-0.575491
1499876404900253,-1.37851,-0.242716,-0.575606
1499876404901254,-1.37697,-0.241257,-0.576064
1499876404921253,-1.37496,-0.239891,-0.576929
1499876404943255,-1.36999,-0.238618,-0.578705
1499876404961256,-1.36813,-0.236404,-0.57922
1499876404981256,-1.36606,-0.233749,-0.578851
1499876405034261,-1.3591,-0.232273,-0.578992
1499876405035261,-1.35274,-0.229872,-0.578375
1499876405042262,-1.3447,-0.225641,-0.578338
1499876405062260,-1.34336,-0.220726,-0.576786
1499876405078264,-1.34274,-0.216206,-0.576212
1499876405109264,-1.33917,-0.212378,-0.575888
1499876405123267,-1.32983,-0.2095,-0.576384
1499876405146264,-1.32328,-0.207271,-0.577255
1499876405169269,-1.325,-0.206767,-0.578037
1499876405190268,-1.32942,-0.206221,-0.57787
1499876405206268,-1.32979,-0.205654,-0.577191
1499876405229270,-1.3262,-0.205283,-0.577154
1499876405250272,-1.32204,-0.204602,-0.578473
1499876405266272,-1.32186,-0.204389,-0.579269
1499876405289277,-1.32591,-0.20458,-0.578681
1499876405303274,-1.32922,-0.20464,-0.577406
1499876405326277,-1.32678,-0.203585,-0.577388
1499876405349277,-1.324,-0.203977,-0.578385
1499876405363277,-1.32209,-0.204241,-0.579432
1499876405386279,-1.32618,-0.204271,-0.579103
1499876405409280,-1.32921,-0.20431,-0.578144
1499876405430301,-1.327,-0.203271,-0.578492
1499876405446283,-1.32511,-0.204026,-0.579324
1499876405469285,-1.32527,-0.204462,-0.580014
1499876405497287,-1.3288,-0.205046,-0.578699
1499876405506288,-1.32796,-0.205258,-0.577758
1499876405529308,-1.32433,-0.205114,-0.579046
1499876405550304,-1.32283,-0.205928,-0.580391
1499876405566290,-1.32587,-0.206444,-0.580385
1499876405589310,-1.32685,-0.206222,-0.579857
1499876405610312,-1.3242,-0.206032,-0.579649
1499876405626293,-1.32255,-0.206322,-0.580219
1499876405649293,-1.32497,-0.206811,-0.580492
1499876405670315,-1.32614,-0.206366,-0.58099
1499876405686297,-1.32617,-0.206275,-0.581067
1499876405709319,-1.32467,-0.206119,-0.581991
1499876405730303,-1.32551,-0.206725,-0.583121
1499876405746302,-1.32916,-0.207404,-0.584107
1499876405769301,-1.33517,-0.206836,-0.584351
1499876405790302,-1.33519,-0.206101,-0.584575
1499876405806303,-1.33398,-0.20636,-0.585889
1499876405829306,-1.33252,-0.207257,-0.5865
1499876405851306,-1.33493,-0.208002,-0.586932
1499876405866307,-1.33869,-0.208453,-0.587087
1499876405889314,-1.33773,-0.207929,-0.587705
1499876405911312,-1.33626,-0.207439,-0.588389
1499876405926310,-1.33743,-0.207659,-0.588717
1499876405949311,-1.33922,-0.207832,-0.588651
1499876405971313,-1.34202,-0.207847,-0.588207
1499876405986314,-1.3416,-0.207456,-0.588275
1499876406015314,-1.34105,-0.207335,-0.588958
1499876406032316,-1.34062,-0.207341,-0.58941
1499876406054318,-1.34307,-0.207452,-0.589146
1499876406075320,-1.34434,-0.207406,-0.588536
1499876406091322,-1.34242,-0.206863,-0.58835
1499876406114322,-1.34158,-0.206891,-0.588376
1499876406135322,-1.3423,-0.207136,-0.587953
1499876406151324,-1.34358,-0.207013,-0.587228
1499876406174346,-1.34246,-0.2067,-0.587139
1499876406195327,-1.34246,-0.2067,-0.587139
1499876406219348,-1.34263,-0.206339,-0.586604
1499876406234331,-1.34345,-0.206158,-0.586185
1499876406255348,-1.34329,-0.205868,-0.585726
1499876406271330,-1.34218,-0.205555,-0.585801
1499876406294334,-1.3421,-0.205478,-0.586206
1499876406315334,-1.34233,-0.20551,-0.586706
1499876406331336,-1.34293,-0.205947,-0.586945
1499876406354337,-1.34393,-0.205967,-0.586901
1499876406376335,-1.34321,-0.205633,-0.587238
1499876406391337,-1.34191,-0.205192,-0.588063
1499876406414338,-1.34174,-0.205063,-0.588978
1499876406436342,-1.34317,-0.204819,-0.589208
1499876406451341,-1.34468,-0.204639,-0.588901
1499876406474343,-1.34335,-0.204688,-0.589019
1499876406496344,-1.34177,-0.204637,-0.589666
1499876406511347,-1.34262,-0.204851,-0.59012
1499876406534366,-1.34347,-0.204901,-0.590211
1499876406556351,-1.34333,-0.204686,-0.59003
1499876406571350,-1.34237,-0.205151,-0.59002
1499876406594369,-1.34252,-0.205443,-0.590317
1499876406616350,-1.34352,-0.205618,-0.590504
1499876406622350,-1.34486,-0.205327,-0.590069
1499876406638374,-1.34472,-0.205035,-0.589773
1499876406659357,-1.34394,-0.204804,-0.589838
1499876406682353,-1.34399,-0.204712,-0.59008
1499876406698356,-1.34525,-0.204421,-0.590167
1499876406719377,-1.34604,-0.204409,-0.589787
1499876406742357,-1.34628,-0.204278,-0.588914
1499876406758361,-1.34579,-0.203825,-0.588347
1499876406779381,-1.34518,-0.203631,-0.588423
1499876406801382,-1.34448,-0.203385,-0.589008
1499876406818362,-1.34492,-0.203274,-0.589513
1499876406839362,-1.34601,-0.203281,-0.58898
1499876406861367,-1.34577,-0.203184,-0.588335
1499876406878369,-1.3451,-0.203081,-0.588168
1499876406899368,-1.3451,-0.203081,-0.588168
1499876406921369,-1.34514,-0.20299,-0.588247
1499876406938368,-1.34566,-0.202955,-0.588347
1499876406959369,-1.34566,-0.202955,-0.588347
1499876406981390,-1.34569,-0.202864,-0.588425
1499876406998373,-1.34666,-0.202976,-0.588305
1499876407019374,-1.34722,-0.20285,-0.588483
1499876407041394,-1.34722,-0.20285,-0.588483
1499876407058377,-1.34725,-0.20276,-0.588562
1499876407079398,-1.34809,-0.20331,-0.588243
1499876407101399,-1.34843,-0.203727,-0.587788
1499876407118381,-1.34886,-0.203707,-0.587204
1499876407139401,-1.34901,-0.203756,-0.587185
1499876407161400,-1.34822,-0.20377,-0.587565
1499876407178382,-1.34881,-0.204208,-0.58764
1499876407199405,-1.3508,-0.204571,-0.586812
1499876407221405,-1.35072,-0.204353,-0.585948
1499876407239386,-1.34911,-0.20455,-0.585569
1499876407259388,-1.34805,-0.204878,-0.585818
1499876407281388,-1.34882,-0.205197,-0.585838
1499876407299390,-1.35104,-0.205502,-0.585262
1499876407319391,-1.3502,-0.205287,-0.58497
1499876407341412,-1.34853,-0.205332,-0.585047
1499876407359393,-1.34882,-0.205595,-0.585208
1499876407379415,-1.35017,-0.205454,-0.585007
1499876407401396,-1.35017,-0.205454,-0.585007
1499876407419396,-1.34921,-0.205023,-0.584698
1499876407439400,-1.34815,-0.205185,-0.584584
1499876407461420,-1.3482,-0.205082,-0.584692
1499876407479404,-1.34771,-0.205528,-0.584423
1499876407499422,-1.34667,-0.205357,-0.58391
1499876407523402,-1.34598,-0.205346,-0.583667
1499876407544423,-1.34482,-0.205534,-0.584178
1499876407559421,-1.34475,-0.2057,-0.585061
1499876407581423,-1.34478,-0.205533,-0.585024
1499876407604407,-1.34455,-0.205424,-0.584409
1499876407619425,-1.34369,-0.205466,-0.584404
1499876407641410,-1.34362,-0.205632,-0.585287
1499876407664430,-1.34423,-0.20549,-0.58582
1499876407679412,-1.34507,-0.205538,-0.585911
1499876407701412,-1.34506,-0.205551,-0.585881
1499876407724415,-1.34511,-0.205447,-0.585989
1499876407740416,-1.34509,-0.205383,-0.585844
1499876407761437,-1.34546,-0.205453,-0.586192
1499876407784438,-1.34546,-0.205453,-0.586192
1499876407799418,-1.34561,-0.205259,-0.585695
1499876407821421,-1.34518,-0.205358,-0.58522
1499876407844423,-1.34516,-0.20537,-0.585191
1499876407859424,-1.34533,-0.205406,-0.585201
1499876407881425,-1.34446,-0.204871,-0.585327
1499876407904423,-1.34446,-0.204871,-0.585327
1499876407920425,-1.34347,-0.204609,-0.585056
1499876407941446,-1.34305,-0.204708,-0.584582
1499876407964446,-1.34294,-0.204816,-0.583984
1499876407980429,-1.34291,-0.204906,-0.583906
1499876408001432,-1.34265,-0.204884,-0.584386
1499876408024433,-1.34335,-0.205048,-0.584859
1499876408040454,-1.34359,-0.204747,-0.584959
1499876408061453,-1.34359,-0.204747,-0.584959
1499876408084456,-1.34359,-0.204747,-0.584959
1499876408100458,-1.34311,-0.20477,-0.585053
1499876408121439,-1.34372,-0.204963,-0.584977
1499876408144458,-1.34473,-0.204969,-0.584963
1499876408160461,-1.34471,-0.204982,-0.584933
1499876408181460,-1.34431,-0.205234,-0.584852
1499876408204445,-1.34471,-0.205714,-0.584868
1499876408220442,-1.3452,-0.205768,-0.584889
1499876408241443,-1.34537,-0.205816,-0.585033
1499876408267447,-1.34601,-0.20615,-0.585216
1499876408282445,-1.34601,-0.20615,-0.585216
1499876408301467,-1.34601,-0.20615,-0.585216
1499876408324451,-1.34701,-0.206169,-0.585173
1499876408342450,-1.34701,-0.206169,-0.585173
1499876408361450,-1.34701,-0.206169,-0.585173
1499876408384473,-1.34701,-0.206169,-0.585173
1499876408402474,-1.34701,-0.206169,-0.585173
1499876408421456,-1.34659,-0.206025,-0.584383
1499876408444459,-1.34551,-0.206435,-0.583249
1499876408462478,-1.34423,-0.207066,-0.582391
1499876408481458,-1.34304,-0.207505,-0.58172
1499876408504460,-1.34309,-0.207661,-0.581104
1499876408522462,-1.3433,-0.207698,-0.580269
1499876408541479,-1.34218,-0.207725,-0.579573
1499876408571463,-1.34145,-0.208204,-0.579799
1499876408582467,-1.34144,-0.208217,-0.579769
1499876408601467,-1.34216,-0.208046,-0.57984
1499876408624469,-1.34216,-0.208046,-0.57984
1499876408642468,-1.34164,-0.208172,-0.579991
1499876408661467,-1.34164,-0.208172,-0.579991
1499876408684491,-1.34217,-0.208288,-0.580318
1499876408702473,-1.34278,-0.208633,-0.58047
1499876408721471,-1.34278,-0.208633,-0.58047
1499876408744473,-1.34331,-0.208595,-0.580568
1499876408762474,-1.34399,-0.208682,-0.580761
1499876408781496,-1.34364,-0.20892,-0.581037
1499876408804498,-1.34291,-0.209333,-0.581281
1499876408822498,-1.34291,-0.209333,-0.581281
1499876408843479,-1.34384,-0.209531,-0.581079
1499876408864484,-1.34384,-0.209531,-0.581079
1499876408882502,-1.34349,-0.209769,-0.581355
1499876408903485,-1.3434,-0.210196,-0.581352
1499876408924488,-1.34461,-0.210735,-0.581263
1499876408942487,-1.34461,-0.210735,-0.581263
1499876408963488,-1.34381,-0.210763,-0.581616
1499876408984509,-1.34352,-0.210819,-0.582048
1499876409002509,-1.34448,-0.211248,-0.582354
1499876409024494,-1.34448,-0.211248,-0.582354
1499876409044492,-1.34443,-0.211263,-0.581998
1499876409062491,-1.34373,-0.211187,-0.581775
1499876409083493,-1.34341,-0.211501,-0.58233
1499876409104515,-1.34487,-0.211894,-0.58257
1499876409122495,-1.34553,-0.211906,-0.582484
1499876409143498,-1.34553,-0.211906,-0.582484
1499876409164500,-1.34514,-0.212004,-0.582338
1499876409189499,-1.34514,-0.212004,-0.582338
1499876409204500,-1.34534,-0.211717,-0.582081
1499876409224503,-1.34551,-0.211753,-0.582091
1499876409242502,-1.34474,-0.211524,-0.582322
1499876409270504,-1.34491,-0.21156,-0.582332
1499876409284525,-1.34549,-0.211187,-0.582355
1499876409302506,-1.34505,-0.210876,-0.582214
1499876409324509,-1.34505,-0.210876,-0.582214
1499876409344529,-1.34503,-0.210889,-0.582184
1499876409362530,-1.34516,-0.210526,-0.582496
1499876409384511,-1.34516,-0.210526,-0.582496
1499876409404532,-1.34516,-0.210526,-0.582496
1499876409422514,-1.34572,-0.211208,-0.582722
1499876409444516,-1.34723,-0.21169,-0.582363
1499876409464515,-1.34837,-0.211834,-0.58225
1499876409482518,-1.34837,-0.211834,-0.58225
1499876409504518,-1.34823,-0.211697,-0.582184
1499876409524519,-1.34782,-0.212205,-0.582552
1499876409542540,-1.3489,-0.212696,-0.582645
1499876409564521,-1.35,-0.213021,-0.582538
1499876409584521,-1.35125,-0.212816,-0.582707
1499876409602543,-1.35062,-0.212636,-0.582755
1499876409624527,-1.34931,-0.212521,-0.58284
1499876409644529,-1.34982,-0.212563,-0.58289
1499876409662527,-1.35019,-0.212401,-0.582892
1499876409684529,-1.35019,-0.212401,-0.582892
1499876409704528,-1.35019,-0.212401,-0.582892
1499876409722530,-1.34992,-0.212457,-0.583488
1499876409744531,-1.35069,-0.212776,-0.583505
1499876409764531,-1.35146,-0.212928,-0.583159
1499876409782551,-1.35149,-0.212837,-0.583237
1499876409804538,-1.35093,-0.212809,-0.582831
1499876409825536,-1.35011,-0.212749,-0.582936
