timestamp,x,y,z,w
1499894000974005,-0.109131,-0.670593,0.714172,0.168335
1499894000997002,-0.109253,-0.668457,0.71582,0.169861
1499894001019002,-0.109314,-0.666565,0.71759,0.1698
1499894001034002,-0.109985,-0.66803,0.71637,0.168579
1499894001057012,-0.110657,-0.669617,0.714905,0.16803
1499894001079007,-0.111145,-0.66925,0.71521,0.167969
1499894001094006,-0.111267,-0.667542,0.716736,0.168274
1499894001117010,-0.111572,-0.665466,0.718445,0.168701
1499894001139009,-0.112244,-0.665344,0.718506,0.168518
1499894001160010,-0.112488,-0.666748,0.717346,0.167969
1499894001177010,-0.112305,-0.666809,0.717346,0.167908
1499894001201013,-0.112061,-0.664917,0.718994,0.168335
1499894001222015,-0.111816,-0.663147,0.720642,0.168518
1499894001237015,-0.111389,-0.662842,0.721069,0.168213
1499894001259016,-0.110718,-0.662598,0.721436,0.167847
1499894001280017,-0.110229,-0.661499,0.722534,0.167969
1499894001297023,-0.109802,-0.660645,0.72345,0.167725
1499894001319020,-0.109497,-0.660095,0.723999,0.16748
1499894001340019,-0.109314,-0.659607,0.724548,0.167236
1499894001363024,-0.109131,-0.659241,0.724976,0.167053
1499894001379022,-0.10907,-0.659302,0.724915,0.167053
1499894001400023,-0.109009,-0.659912,0.724426,0.166992
1499894001417026,-0.108765,-0.660645,0.723755,0.166992
1499894001439026,-0.108521,-0.660461,0.723877,0.167236
1499894001460027,-0.108337,-0.660156,0.724121,0.167603
1499894001477029,-0.108215,-0.660278,0.723999,0.167542
1499894001499030,-0.108215,-0.660889,0.723511,0.167542
1499894001520031,-0.108093,-0.661133,0.723267,0.167603
1499894001537032,-0.108276,-0.660889,0.72345,0.167725
1499894001559033,-0.108582,-0.660645,0.723572,0.168152
1499894001580037,-0.108948,-0.660522,0.723572,0.168335
1499894001597037,-0.109192,-0.661133,0.7229,0.168335
1499894001619037,-0.109192,-0.661865,0.72229,0.168213
1499894001649039,-0.109253,-0.661682,0.722412,0.168335
1499894001657039,-0.109192,-0.661316,0.722656,0.168701
1499894001680040,-0.109131,-0.661499,0.722473,0.168884
1499894001702042,-0.10907,-0.661804,0.722229,0.168823
1499894001716043,-0.10907,-0.661804,0.722229,0.168884
1499894001739043,-0.10907,-0.661621,0.722412,0.168823
1499894001762050,-0.10907,-0.661255,0.722717,0.168823
1499894001776045,-0.10907,-0.661255,0.722717,0.168823
1499894001799047,-0.10907,-0.661438,0.722534,0.168945
1499894001822049,-0.10907,-0.661621,0.722412,0.168823
1499894001844051,-0.10907,-0.661621,0.722412,0.168823
1499894001859051,-0.109009,-0.661621,0.722412,0.168884
1499894001882053,-0.109009,-0.66156,0.722412,0.168884
1499894001896056,-0.109009,-0.66156,0.722412,0.168884
1499894001919054,-0.109131,-0.661682,0.72229,0.169006
1499894001949056,-0.109131,-0.661682,0.72229,0.169006
1499894001956057,-0.109375,-0.661804,0.722168,0.169067
1499894001979059,-0.109436,-0.661926,0.721985,0.169067
1499894002002059,-0.109436,-0.661926,0.721985,0.169067
1499894002016060,-0.109436,-0.661926,0.721985,0.169067
1499894002039061,-0.109436,-0.661926,0.721985,0.169128
1499894002062074,-0.109497,-0.661682,0.722168,0.169128
1499894002076062,-0.109497,-0.661499,0.722351,0.169189
1499894002099064,-0.109436,-0.661499,0.722412,0.169189
1499894002122066,-0.109436,-0.661438,0.722412,0.169189
1499894002143068,-0.109436,-0.661438,0.722412,0.169189
1499894002159069,-0.109619,-0.661621,0.722229,0.169128
1499894002182068,-0.109619,-0.661804,0.722107,0.169006
1499894002203070,-0.109619,-0.661804,0.722107,0.169067
1499894002219072,-0.109619,-0.661804,0.722107,0.169067
1499894002242072,-0.109558,-0.661804,0.722107,0.169067
1499894002270073,-0.109619,-0.661926,0.721985,0.169067
1499894002279074,-0.109619,-0.661865,0.721985,0.169067
1499894002302076,-0.109619,-0.661926,0.721985,0.169128
1499894002323077,-0.109619,-0.661865,0.721985,0.169128
1499894002339080,-0.109558,-0.661865,0.721985,0.169128
1499894002362082,-0.109558,-0.661865,0.721985,0.169128
1499894002383083,-0.109558,-0.661865,0.722046,0.169189
1499894002399081,-0.109558,-0.661865,0.722046,0.169189
1499894002422085,-0.109497,-0.661865,0.722046,0.169189
1499894002443085,-0.109497,-0.661865,0.722046,0.169189
1499894002459086,-0.109497,-0.661865,0.722046,0.16925
1499894002482089,-0.109436,-0.661926,0.721924,0.16925
1499894002503103,-0.109436,-0.661926,0.721924,0.169312
1499894002519090,-0.109375,-0.661804,0.722046,0.169373
1499894002542090,-0.109314,-0.661804,0.722107,0.169373
1499894002564092,-0.109375,-0.661865,0.721985,0.169434
1499894002579092,-0.109314,-0.661865,0.721985,0.169434
1499894002602095,-0.109314,-0.661865,0.721985,0.169434
1499894002624095,-0.109314,-0.661682,0.722168,0.169373
1499894002639097,-0.109314,-0.661682,0.722168,0.169434
1499894002662100,-0.109314,-0.661682,0.722168,0.169434
1499894002684098,-0.109253,-0.661682,0.722168,0.169495
1499894002699100,-0.109253,-0.661682,0.722168,0.169495
1499894002722101,-0.109192,-0.661621,0.722168,0.169495
1499894002744103,-0.109192,-0.661621,0.722229,0.169556
1499894002758103,-0.109314,-0.661682,0.722107,0.169678
1499894002782104,-0.109314,-0.661682,0.722107,0.169678
1499894002804105,-0.109314,-0.661682,0.722107,0.169678
1499894002818105,-0.109314,-0.661621,0.722107,0.169678
1499894002842108,-0.109253,-0.661621,0.722168,0.169678
1499894002864109,-0.109436,-0.661804,0.721985,0.169678
1499894002878110,-0.109436,-0.661804,0.721985,0.169678
1499894002902111,-0.109375,-0.661804,0.721985,0.169678
1499894002924112,-0.109436,-0.661926,0.721863,0.169678
1499894002938113,-0.109436,-0.661926,0.721863,0.169739
1499894002962117,-0.109436,-0.661682,0.722046,0.169861
1499894002984116,-0.109558,-0.661804,0.721863,0.169922
1499894002998122,-0.109558,-0.662048,0.72168,0.169861
1499894003022120,-0.109558,-0.662048,0.72168,0.169861
1499894003044120,-0.109497,-0.661987,0.721741,0.169861
1499894003065121,-0.109497,-0.661987,0.721741,0.169861
1499894003082122,-0.109497,-0.661987,0.721741,0.169922
1499894003105123,-0.109436,-0.66217,0.721619,0.169861
1499894003125124,-0.109436,-0.66217,0.721619,0.169861
1499894003142127,-0.109436,-0.662109,0.721619,0.169861
1499894003164126,-0.109436,-0.662109,0.721619,0.169861
1499894003193127,-0.109436,-0.662292,0.721497,0.169861
1499894003208129,-0.109436,-0.662292,0.721436,0.169861
1499894003224130,-0.109436,-0.662292,0.721436,0.169922
1499894003245140,-0.109375,-0.662292,0.721497,0.169922
1499894003262134,-0.109314,-0.662292,0.721436,0.169983
1499894003284133,-0.109314,-0.662292,0.721436,0.169983
1499894003305134,-0.109314,-0.662292,0.721436,0.170044
1499894003322137,-0.109314,-0.662292,0.721436,0.170044
1499894003344137,-0.109314,-0.662292,0.721497,0.170044
1499894003365138,-0.109192,-0.662476,0.721313,0.170105
1499894003382138,-0.109192,-0.662476,0.721313,0.170105
1499894003404141,-0.109131,-0.662476,0.721313,0.170105
1499894003425141,-0.109131,-0.662415,0.721313,0.170166
1499894003442144,-0.109131,-0.662537,0.721252,0.170166
1499894003464144,-0.109131,-0.662659,0.72113,0.170166
1499894003485144,-0.109131,-0.662598,0.72113,0.170227
1499894003502147,-0.109131,-0.662476,0.721252,0.170288
1499894003524147,-0.10907,-0.662476,0.721252,0.170288
1499894003547155,-0.109009,-0.662537,0.721191,0.170349
1499894003562149,-0.109009,-0.662537,0.721191,0.170349
1499894003584151,-0.108948,-0.662537,0.721191,0.17041
1499894003607151,-0.108948,-0.662537,0.721191,0.17041
1499894003622153,-0.108948,-0.662476,0.721252,0.170471
1499894003644154,-0.108887,-0.662476,0.721252,0.170471
1499894003666155,-0.108948,-0.662476,0.721252,0.170532
1499894003681157,-0.109009,-0.662537,0.72113,0.170532
1499894003704157,-0.109009,-0.662537,0.721191,0.170532
1499894003726159,-0.109009,-0.662537,0.721191,0.170532
1499894003741159,-0.10907,-0.662598,0.721069,0.170593
1499894003764161,-0.109131,-0.66272,0.720947,0.170654
1499894003786161,-0.109131,-0.66272,0.720947,0.170654
1499894003801165,-0.10907,-0.662659,0.721008,0.170654
1499894003824164,-0.10907,-0.662659,0.721008,0.170654
1499894003846169,-0.10907,-0.662659,0.721008,0.170715
1499894003861168,-0.109009,-0.662659,0.721008,0.170715
1499894003884168,-0.10907,-0.662781,0.720886,0.170837
1499894003906182,-0.10907,-0.66272,0.720886,0.170837
1499894003921170,-0.10907,-0.66272,0.720886,0.170837
1499894003944172,-0.10907,-0.66272,0.720886,0.170837
1499894003966172,-0.10907,-0.66272,0.720886,0.170837
1499894003981173,-0.10907,-0.66272,0.720947,0.170837
1499894004004174,-0.109009,-0.662842,0.720764,0.170898
1499894004026180,-0.109009,-0.662842,0.720764,0.170898
1499894004048176,-0.109009,-0.662842,0.720764,0.170898
1499894004064178,-0.109009,-0.662842,0.720764,0.170959
1499894004086179,-0.109009,-0.662842,0.720825,0.170959
1499894004108181,-0.108948,-0.662842,0.720825,0.170959
1499894004124181,-0.108948,-0.662781,0.720825,0.171021
1499894004146185,-0.108887,-0.662781,0.720825,0.171021
1499894004167186,-0.108887,-0.662781,0.720825,0.171021
1499894004184185,-0.108887,-0.662781,0.720825,0.171082
1499894004206200,-0.108887,-0.66272,0.720886,0.171082
1499894004227189,-0.108826,-0.66272,0.720886,0.171082
1499894004244189,-0.108826,-0.66272,0.720886,0.171082
1499894004266190,-0.108826,-0.66272,0.720886,0.171143
1499894004288192,-0.108765,-0.662659,0.720947,0.171143
1499894004304192,-0.108765,-0.662659,0.720947,0.171143
1499894004326195,-0.108765,-0.662659,0.720947,0.171204
1499894004348199,-0.108704,-0.662598,0.721008,0.171204
1499894004364196,-0.108826,-0.662659,0.720886,0.171204
1499894004386198,-0.108826,-0.662659,0.720886,0.171204
1499894004407198,-0.108765,-0.662659,0.720947,0.171265
1499894004424199,-0.108765,-0.662659,0.720886,0.171265
1499894004446204,-0.108765,-0.662659,0.720947,0.171265
1499894004469202,-0.108704,-0.662659,0.720947,0.171326
1499894004484202,-0.108704,-0.662659,0.720947,0.171326
1499894004506218,-0.108643,-0.662598,0.720947,0.171326
1499894004529205,-0.108643,-0.662598,0.720947,0.171387
1499894004543206,-0.108704,-0.66272,0.720825,0.171326
1499894004566208,-0.108704,-0.66272,0.720825,0.171387
1499894004589209,-0.108643,-0.66272,0.720886,0.171387
1499894004604209,-0.108643,-0.66272,0.720886,0.171387
1499894004626212,-0.108765,-0.662903,0.720642,0.171387
1499894004649213,-0.108826,-0.663086,0.72052,0.171387
1499894004663213,-0.108826,-0.663086,0.72052,0.171387
1499894004686213,-0.108826,-0.663025,0.72052,0.171387
1499894004709216,-0.108826,-0.663025,0.72052,0.171448
1499894004723226,-0.108887,-0.663086,0.720459,0.171448
1499894004746218,-0.108948,-0.663208,0.720398,0.171387
1499894004769218,-0.108948,-0.663147,0.720398,0.171387
1499894004783219,-0.108948,-0.663147,0.720398,0.171387
1499894004806229,-0.109131,-0.663025,0.720459,0.171509
1499894004829223,-0.109192,-0.663208,0.720276,0.17157
1499894004850224,-0.109314,-0.663391,0.720093,0.17157
1499894004866226,-0.109314,-0.663391,0.720093,0.17157
1499894004889227,-0.109253,-0.663391,0.720093,0.17157
1499894004903226,-0.109253,-0.663391,0.720093,0.171631
1499894004926229,-0.109253,-0.663391,0.720093,0.171631
1499894004949230,-0.109253,-0.663513,0.719971,0.171631
1499894004970230,-0.109253,-0.663513,0.719971,0.171631
1499894004986233,-0.109253,-0.663513,0.719971,0.171631
1499894005010234,-0.109253,-0.663513,0.719971,0.171631
1499894005030233,-0.109253,-0.663513,0.719971,0.171631
1499894005046243,-0.109192,-0.663513,0.719971,0.171692
1499894005069237,-0.109131,-0.663452,0.720032,0.171692
1499894005090237,-0.109131,-0.663452,0.720032,0.171692
1499894005106251,-0.109131,-0.663452,0.720032,0.171692
1499894005129240,-0.10907,-0.663452,0.720032,0.171753
1499894005151239,-0.10907,-0.663391,0.720032,0.171753
1499894005166244,-0.10907,-0.663391,0.720093,0.171753
1499894005189244,-0.10907,-0.663391,0.720093,0.171753
1499894005210245,-0.10907,-0.66333,0.720093,0.171814
1499894005226245,-0.109009,-0.66333,0.720093,0.171814
1499894005249250,-0.109009,-0.66333,0.720154,0.171814
1499894005270246,-0.10907,-0.663391,0.720032,0.171875
1499894005286249,-0.10907,-0.663391,0.720032,0.171875
1499894005316252,-0.109009,-0.663391,0.720032,0.171875
1499894005330252,-0.109009,-0.663391,0.720032,0.171936
1499894005346257,-0.108948,-0.663391,0.720032,0.171936
1499894005369254,-0.108948,-0.663391,0.720093,0.171936
1499894005390255,-0.108948,-0.66333,0.720093,0.171997
1499894005406255,-0.108887,-0.66333,0.720093,0.171997
1499894005429258,-0.108887,-0.66333,0.720093,0.171997
1499894005451258,-0.108887,-0.663269,0.720154,0.172058
1499894005466263,-0.108826,-0.663269,0.720154,0.172058
1499894005489262,-0.108826,-0.663208,0.720154,0.172058
1499894005511262,-0.108826,-0.663208,0.720215,0.172058
1499894005527262,-0.108765,-0.663147,0.720215,0.172119
1499894005549267,-0.108765,-0.663147,0.720276,0.172119
1499894005571264,-0.108765,-0.663147,0.720276,0.172119
1499894005586267,-0.108765,-0.663147,0.720276,0.172119
1499894005610269,-0.108765,-0.663086,0.720276,0.17218
1499894005631270,-0.108765,-0.663086,0.720337,0.17218
1499894005646269,-0.108765,-0.663086,0.720337,0.17218
1499894005669272,-0.108704,-0.663025,0.720337,0.17218
1499894005691272,-0.108704,-0.663025,0.720337,0.17218
1499894005706282,-0.108826,-0.663086,0.720276,0.172241
1499894005729275,-0.108826,-0.663086,0.720276,0.172241
1499894005751276,-0.108826,-0.663086,0.720276,0.172241
1499894005766278,-0.108826,-0.663086,0.720276,0.172241
1499894005789279,-0.108826,-0.663086,0.720276,0.172302
1499894005811280,-0.108826,-0.663086,0.720276,0.172302
1499894005826281,-0.108826,-0.663086,0.720276,0.172302
1499894005849282,-0.108826,-0.663086,0.720276,0.172302
1499894005871281,-0.108826,-0.663025,0.720276,0.172302
1499894005886285,-0.108765,-0.663025,0.720276,0.172302
1499894005915288,-0.108765,-0.663025,0.720276,0.172363
1499894005931286,-0.108765,-0.663025,0.720337,0.172363
1499894005952286,-0.108765,-0.663025,0.720337,0.172363
1499894005969290,-0.108704,-0.663025,0.720337,0.172363
1499894005991290,-0.108704,-0.662964,0.720337,0.172424
1499894006012294,-0.108704,-0.662964,0.720337,0.172424
1499894006029294,-0.108704,-0.662964,0.720398,0.172424
1499894006051292,-0.108643,-0.662964,0.720398,0.172424
1499894006073302,-0.108643,-0.662903,0.720398,0.172485
1499894006089295,-0.108643,-0.662903,0.720459,0.172485
1499894006112297,-0.108582,-0.662903,0.720459,0.172485
1499894006132297,-0.108582,-0.662842,0.720459,0.172485
1499894006149300,-0.108643,-0.663025,0.720276,0.172546
1499894006171301,-0.108643,-0.663147,0.720154,0.172546
1499894006192302,-0.108643,-0.663147,0.720215,0.172546
1499894006210303,-0.108704,-0.662842,0.720398,0.172607
1499894006231304,-0.108704,-0.662842,0.720459,0.172607
1499894006252306,-0.108765,-0.663025,0.720276,0.172485
1499894006269306,-0.108765,-0.662964,0.720337,0.172485
1499894006291307,-0.108704,-0.662781,0.72052,0.172546
1499894006312309,-0.108643,-0.662476,0.720764,0.172668
1499894006329309,-0.108643,-0.662476,0.720764,0.172668
1499894006351312,-0.108643,-0.662476,0.720764,0.172729
1499894006374314,-0.108643,-0.662476,0.720764,0.172729
1499894006389316,-0.108643,-0.662476,0.720764,0.172729
