timestamp,x,y,z,w
1499876428424613,-0.600952,0.00238037,-0.232788,0.764648
1499876428446614,-0.600403,0.00219727,-0.233093,0.764954
1499876428469616,-0.600281,0.00311279,-0.232849,0.765137
1499876428484614,-0.599487,0.00402832,-0.232483,0.765869
1499876428507617,-0.597168,0.00421143,-0.232544,0.767639
1499876428529619,-0.597168,0.00469971,-0.23175,0.767944
1499876428552640,-0.594971,0.00415039,-0.230652,0.769897
1499876428597625,-0.593628,0.00463867,-0.229431,0.771362
1499876428606624,-0.592834,0.00543213,-0.227966,0.7724
1499876428607622,-0.592041,0.00585938,-0.227234,0.773193
1499876428620623,-0.590759,0.00610352,-0.22644,0.774414
1499876428643644,-0.588196,0.00579834,-0.226074,0.776428
1499876428658626,-0.586304,0.00543213,-0.226196,0.777832
1499876428684628,-0.585693,0.00531006,-0.225586,0.778503
1499876428734631,-0.584412,0.00549316,-0.224915,0.779663
1499876428734631,-0.583862,0.00628662,-0.223877,0.780334
1499876428741651,-0.581848,0.00653076,-0.2229,0.782104
1499876428761652,-0.579712,0.00634766,-0.2229,0.783691
1499876428777653,-0.579712,0.00628662,-0.2229,0.783691
1499876428808635,-0.581482,0.0067749,-0.223022,0.782349
1499876428829634,-0.583069,0.00720215,-0.222717,0.78125
1499876428846636,-0.581482,0.00701904,-0.222656,0.782471
1499876428868638,-0.5802,0.00653076,-0.223511,0.783142
1499876428889641,-0.580933,0.00634766,-0.223999,0.782532
1499876428906642,-0.582336,0.0067749,-0.223999,0.781433
1499876428928640,-0.582764,0.00665283,-0.223572,0.78125
1499876428949641,-0.581543,0.00585938,-0.223877,0.782043
1499876428966664,-0.581421,0.00579834,-0.224304,0.782043
1499876428988644,-0.581787,0.00604248,-0.224609,0.781677
1499876429009645,-0.582947,0.00665283,-0.224548,0.780823
1499876429026647,-0.582397,0.0067749,-0.224426,0.781311
1499876429048648,-0.581726,0.0065918,-0.224915,0.781616
1499876429071648,-0.581604,0.00628662,-0.225525,0.781555
1499876429085650,-0.582642,0.0065918,-0.225891,0.78064
1499876429108674,-0.583435,0.00714111,-0.225586,0.780151
1499876429131674,-0.582275,0.00720215,-0.225769,0.781006
1499876429146678,-0.581787,0.00695801,-0.226379,0.781128
1499876429168655,-0.581299,0.00695801,-0.226563,0.781494
1499876429191679,-0.582703,0.00732422,-0.226257,0.780518
1499876429205658,-0.582153,0.00714111,-0.22583,0.781067
1499876429228658,-0.580811,0.00695801,-0.225891,0.782043
1499876429251682,-0.580322,0.0067749,-0.226318,0.782288
1499876429265663,-0.58136,0.00708008,-0.226318,0.781494
1499876429288666,-0.582214,0.00744629,-0.225891,0.781006
1499876429311663,-0.580994,0.00732422,-0.225708,0.781921
1499876429325664,-0.580933,0.00720215,-0.225952,0.781921
1499876429348674,-0.581421,0.00726318,-0.226135,0.781494
1499876429371666,-0.581909,0.00775146,-0.225891,0.781189
1499876429385688,-0.58197,0.00805664,-0.225708,0.781189
1499876429408673,-0.582153,0.00811768,-0.225708,0.781067
1499876429431690,-0.581909,0.00799561,-0.225891,0.781189
1499876429445670,-0.582214,0.00817871,-0.226135,0.780945
1499876429468675,-0.582764,0.00854492,-0.226013,0.780518
1499876429491692,-0.582886,0.00891113,-0.225769,0.780518
1499876429505674,-0.582397,0.0090332,-0.225891,0.780823
1499876429528685,-0.58197,0.00921631,-0.226196,0.781067
1499876429551699,-0.582581,0.00933838,-0.226318,0.780579
1499876429572680,-0.583008,0.00939941,-0.226196,0.780273
1499876429588680,-0.582703,0.00927734,-0.226196,0.780518
1499876429611701,-0.582153,0.00927734,-0.226257,0.780884
1499876429632681,-0.58197,0.00939941,-0.226624,0.780945
1499876429648686,-0.582581,0.00982666,-0.226807,0.780457
1499876429671689,-0.582886,0.0100708,-0.226746,0.780212
1499876429676686,-0.582642,0.0103149,-0.226807,0.780396
1499876429698707,-0.582581,0.010437,-0.22699,0.780334
1499876429721707,-0.582397,0.0106812,-0.227112,0.780457
1499876429737687,-0.582703,0.0108643,-0.227173,0.780212
1499876429758709,-0.583008,0.0109863,-0.227051,0.780029
1499876429781711,-0.582581,0.0110474,-0.227051,0.780396
1499876429797690,-0.58252,0.0112305,-0.227173,0.780334
1499876429818694,-0.58252,0.0112305,-0.227173,0.780334
1499876429841725,-0.583069,0.0113525,-0.227234,0.779968
1499876429857694,-0.583069,0.0114136,-0.227173,0.779907
1499876429878696,-0.582825,0.0112915,-0.22699,0.780151
1499876429901715,-0.58252,0.0111084,-0.227173,0.780334
1499876429917697,-0.582886,0.0111694,-0.227295,0.780029
1499876429938701,-0.583435,0.0113525,-0.2276,0.779541
1499876429961721,-0.584045,0.0115356,-0.227722,0.779053
1499876429977701,-0.584412,0.0113525,-0.228027,0.778687
1499876429998705,-0.584229,0.0111694,-0.228333,0.778748
1499876430021725,-0.584412,0.0111084,-0.228821,0.778442
1499876430037728,-0.5849,0.0111694,-0.22937,0.777954
1499876430058707,-0.585327,0.0114746,-0.229675,0.777527
1499876430081707,-0.585388,0.0116577,-0.229858,0.777405
1499876430097731,-0.585449,0.0116577,-0.230103,0.777283
1499876430118712,-0.585449,0.0115356,-0.230347,0.777222
1499876430141711,-0.585815,0.0115356,-0.23053,0.776855
1499876430157729,-0.586304,0.0116577,-0.230713,0.776428
1499876430178734,-0.586121,0.0117798,-0.230957,0.776489
1499876430201714,-0.585876,0.0117798,-0.23114,0.776672
1499876430217737,-0.585815,0.0115967,-0.231262,0.776672
1499876430238718,-0.58606,0.0115356,-0.23114,0.776489
1499876430261721,-0.58606,0.0115356,-0.23114,0.776489
1499876430277736,-0.585815,0.0117798,-0.231262,0.776672
1499876430298720,-0.585449,0.012146,-0.231445,0.776855
1499876430321737,-0.585632,0.0124512,-0.231628,0.776672
1499876430337731,-0.586182,0.0126953,-0.231445,0.776306
1499876430358745,-0.586182,0.0126953,-0.231445,0.776306
1499876430384741,-0.585876,0.0128784,-0.231323,0.77655
1499876430397729,-0.58551,0.0130615,-0.231323,0.776855
1499876430418731,-0.585754,0.0134277,-0.231323,0.776672
1499876430441749,-0.586365,0.0137329,-0.231079,0.776306
1499876430457729,-0.586121,0.0137939,-0.230713,0.77655
1499876430478730,-0.585815,0.0137939,-0.230652,0.776855
1499876430501753,-0.585815,0.0137939,-0.230652,0.776794
1499876430519732,-0.585938,0.0139771,-0.23053,0.776733
1499876430538736,-0.586182,0.0140991,-0.230347,0.776611
1499876430561755,-0.586121,0.0140381,-0.230042,0.776733
1499876430579757,-0.585938,0.013916,-0.230042,0.776855
1499876430598759,-0.585999,0.013855,-0.230042,0.776855
1499876430621741,-0.586304,0.013916,-0.230164,0.776611
1499876430639761,-0.586487,0.0140381,-0.230103,0.776489
1499876430658762,-0.586487,0.0140381,-0.230103,0.776489
1499876430688763,-0.586487,0.0140381,-0.230103,0.776489
1499876430699746,-0.586487,0.0140381,-0.230103,0.776489
1499876430718744,-0.586487,0.0140381,-0.230103,0.776489
1499876430741747,-0.586487,0.0140381,-0.230103,0.776489
1499876430759767,-0.586487,0.0140381,-0.230103,0.776428
1499876430778768,-0.586243,0.0140991,-0.22998,0.776672
1499876430801769,-0.586243,0.0140991,-0.22998,0.776672
1499876430819750,-0.586304,0.0140991,-0.22998,0.776672
1499876430838751,-0.586304,0.0140991,-0.22998,0.776611
1499876430861773,-0.586304,0.0140991,-0.22998,0.776611
1499876430879775,-0.586365,0.0141602,-0.22998,0.776611
1499876430898757,-0.586365,0.0141602,-0.22998,0.776611
1499876430921755,-0.586365,0.0141602,-0.22998,0.776611
1499876430939776,-0.586365,0.0141602,-0.22998,0.776611
1499876430958778,-0.586731,0.0140991,-0.229858,0.776306
1499876430981780,-0.586792,0.0140991,-0.229858,0.776306
1499876431006763,-0.586426,0.0140991,-0.22998,0.77655
1499876431018761,-0.586243,0.0141602,-0.230164,0.776611
1499876431041764,-0.586426,0.0142822,-0.230225,0.776489
1499876431063786,-0.586426,0.0142822,-0.230225,0.776489
1499876431078786,-0.586426,0.0147095,-0.230347,0.776428
1499876431101767,-0.586609,0.0154419,-0.23053,0.776245
1499876431123768,-0.587036,0.0161133,-0.230774,0.775818
1499876431140771,-0.587402,0.0166016,-0.230896,0.775513
1499876431161770,-0.587524,0.0169067,-0.230957,0.775391
1499876431183773,-0.58728,0.0169678,-0.231018,0.775574
1499876431200772,-0.586975,0.0169067,-0.231079,0.775757
1499876431221794,-0.586914,0.0167847,-0.231018,0.775757
1499876431243774,-0.586914,0.0166626,-0.230835,0.775879
1499876431260797,-0.586853,0.0164795,-0.230835,0.77594
1499876431281798,-0.586914,0.0164795,-0.230835,0.775879
1499876431303780,-0.586914,0.0164795,-0.230774,0.775879
1499876431320782,-0.586914,0.0164795,-0.230774,0.775879
1499876431341802,-0.586914,0.0164795,-0.230774,0.775879
1499876431363803,-0.586914,0.0164795,-0.230774,0.775879
1499876431380786,-0.586914,0.0164795,-0.230774,0.775879
1499876431401786,-0.586975,0.0164795,-0.230774,0.775879
1499876431423785,-0.587036,0.0164185,-0.230591,0.775818
1499876431441787,-0.586975,0.0162964,-0.23053,0.77594
1499876431461786,-0.587097,0.0162964,-0.230469,0.775879
1499876431483789,-0.587219,0.0162964,-0.230347,0.775757
1499876431501790,-0.587219,0.0163574,-0.230347,0.775757
1499876431521790,-0.587219,0.0163574,-0.230347,0.775757
1499876431543792,-0.587219,0.0162964,-0.230347,0.775757
1499876431561794,-0.587219,0.0163574,-0.230347,0.775757
1499876431581793,-0.587219,0.0163574,-0.230347,0.775757
1499876431603798,-0.587524,0.0162964,-0.230347,0.775513
1499876431621797,-0.587524,0.0162964,-0.230347,0.775513
1499876431641798,-0.58728,0.0164185,-0.230408,0.775696
1499876431663820,-0.58728,0.0164185,-0.230347,0.775696
1499876431681803,-0.587463,0.0165405,-0.230347,0.775574
1499876431701801,-0.587524,0.0166016,-0.230347,0.775574
1499876431723804,-0.587524,0.0166016,-0.230347,0.775574
1499876431741804,-0.587524,0.0166016,-0.230347,0.775574
1499876431761804,-0.587524,0.0166016,-0.230347,0.775574
1499876431783807,-0.58783,0.0166016,-0.230408,0.775269
1499876431801808,-0.587891,0.0166016,-0.230408,0.775269
1499876431821829,-0.587891,0.0166016,-0.230408,0.775269
1499876431843826,-0.588135,0.0167236,-0.23053,0.775024
1499876431861814,-0.588928,0.0170898,-0.230652,0.774414
1499876431881814,-0.589905,0.017395,-0.230713,0.773621
1499876431903815,-0.590637,0.0177002,-0.230713,0.77301
1499876431921815,-0.590698,0.0177002,-0.230713,0.77301
1499876431941838,-0.590454,0.0172729,-0.230713,0.773193
1499876431963819,-0.590393,0.0169067,-0.230774,0.773254
1499876431981821,-0.590515,0.0164795,-0.230835,0.773132
1499876432001839,-0.590759,0.0163574,-0.230774,0.77301
1499876432023819,-0.590881,0.0163574,-0.23053,0.772949
1499876432041833,-0.59082,0.0162354,-0.230408,0.773071
1499876432062822,-0.59082,0.0162354,-0.230408,0.773071
1499876432083823,-0.59082,0.0162354,-0.230408,0.773071
1499876432101828,-0.59082,0.0162354,-0.230408,0.773071
1499876432122828,-0.59082,0.0162354,-0.230408,0.773071
1499876432143848,-0.590454,0.0161743,-0.230164,0.773376
1499876432161828,-0.590332,0.0161133,-0.230042,0.773499
1499876432184850,-0.590149,0.0160522,-0.22998,0.773682
1499876432203851,-0.589966,0.0159302,-0.230103,0.773804
1499876432221840,-0.589966,0.0159302,-0.230103,0.773804
1499876432242832,-0.589783,0.0159912,-0.229919,0.773987
1499876432263853,-0.589661,0.0158691,-0.229736,0.774109
1499876432281856,-0.589661,0.0158691,-0.229736,0.774109
1499876432302837,-0.589661,0.0159302,-0.229736,0.774109
1499876432323839,-0.589539,0.0159302,-0.229675,0.774231
1499876432341838,-0.589539,0.0159302,-0.229675,0.774231
1499876432362842,-0.589539,0.0159302,-0.229675,0.774231
1499876432383862,-0.589539,0.0159302,-0.229675,0.774231
1499876432401844,-0.5896,0.0159302,-0.229675,0.77417
1499876432424860,-0.5896,0.0159302,-0.229675,0.77417
1499876432443847,-0.589661,0.0159302,-0.229675,0.77417
1499876432461848,-0.589783,0.0159912,-0.229736,0.774048
1499876432484867,-0.590149,0.0160522,-0.229614,0.773804
1499876432503850,-0.590088,0.0159302,-0.229309,0.773926
1499876432521848,-0.590149,0.015686,-0.229187,0.773926
1499876432544871,-0.590149,0.015625,-0.229248,0.773926
1499876432563850,-0.590271,0.015564,-0.22937,0.773804
1499876432581852,-0.590576,0.0153809,-0.22937,0.77356
1499876432604875,-0.590515,0.0153198,-0.229187,0.773682
1499876432623857,-0.590332,0.0150757,-0.229187,0.773804
1499876432641860,-0.590271,0.0147705,-0.22937,0.773804
1499876432671859,-0.590454,0.0147705,-0.229431,0.773621
1499876432683879,-0.590881,0.0148926,-0.229309,0.773315
1499876432701867,-0.590698,0.0150146,-0.229187,0.773499
1499876432724881,-0.590393,0.0148926,-0.229187,0.773743
1499876432743883,-0.590393,0.0148926,-0.229187,0.773743
1499876432761863,-0.590393,0.0148315,-0.229187,0.773743
1499876432784864,-0.590698,0.0149536,-0.229004,0.773621
1499876432803885,-0.590454,0.0150146,-0.228821,0.773804
1499876432821903,-0.590271,0.0150146,-0.228821,0.773926
1499876432844888,-0.590271,0.0150146,-0.228821,0.773926
1499876432863868,-0.590271,0.0150146,-0.228821,0.773926
1499876432881869,-0.590271,0.0150146,-0.228821,0.773926
1499876432904892,-0.590332,0.0150146,-0.228821,0.773926
1499876432923871,-0.590149,0.0150757,-0.22876,0.774048
1499876432947873,-0.590149,0.0150146,-0.22876,0.774048
1499876432964874,-0.590149,0.0150146,-0.22876,0.774048
1499876432985897,-0.590332,0.0151978,-0.228699,0.773926
1499876433001887,-0.590332,0.0151978,-0.228638,0.773926
1499876433024899,-0.59021,0.0151978,-0.228577,0.774048
1499876433045900,-0.590027,0.0150757,-0.228577,0.77417
1499876433061880,-0.59021,0.0150146,-0.228638,0.774048
1499876433084884,-0.590271,0.0150146,-0.228638,0.774048
1499876433105884,-0.590149,0.0149536,-0.228271,0.774231
1499876433121884,-0.590149,0.0147705,-0.227844,0.774353
1499876433144884,-0.590027,0.0145874,-0.227539,0.774536
1499876433165885,-0.590027,0.0145874,-0.227539,0.774536
1499876433181891,-0.590088,0.0145874,-0.227539,0.774475
1499876433204909,-0.590271,0.0144043,-0.227478,0.774353
1499876433225889,-0.59021,0.0140991,-0.227417,0.774414
1499876433241892,-0.589783,0.0137939,-0.227356,0.77478
1499876433264891,-0.589783,0.0137939,-0.227356,0.77478
1499876433285913,-0.590027,0.013855,-0.227478,0.774536
1499876433301915,-0.590332,0.0140381,-0.227478,0.774292
1499876433323895,-0.590332,0.0140381,-0.227417,0.774292
1499876433353898,-0.590027,0.0140381,-0.227478,0.774536
1499876433366916,-0.590027,0.0140381,-0.227478,0.774536
1499876433383898,-0.590088,0.0140381,-0.227478,0.774536
1499876433405902,-0.590088,0.0140381,-0.227478,0.774475
1499876433426919,-0.589966,0.0140381,-0.227356,0.774658
1499876433443904,-0.589844,0.013916,-0.227417,0.774719
1499876433465903,-0.589844,0.013916,-0.227417,0.774719
1499876433486906,-0.590088,0.0136719,-0.227417,0.774536
1499876433503905,-0.59021,0.0133667,-0.227478,0.774414
1499876433525907,-0.59021,0.0130005,-0.227478,0.774414
1499876433546929,-0.590271,0.0125732,-0.227478,0.774414
1499876433563911,-0.590515,0.012085,-0.227417,0.774231
1499876433585910,-0.590637,0.0115967,-0.227417,0.774109
1499876433600916,-0.590515,0.0111694,-0.227478,0.774231
1499876433623912,-0.590393,0.0106201,-0.227539,0.774292
