timestamp,x,y,z,w
1499895291055554,-0.335571,-0.553833,0.669006,0.364746
1499895291071560,-0.335754,-0.553894,0.669128,0.364319
1499895291093558,-0.33606,-0.554199,0.669128,0.363647
1499895291115560,-0.336304,-0.554321,0.669189,0.362976
1499895291130558,-0.335876,-0.553833,0.669922,0.362793
1499895291153574,-0.335022,-0.552917,0.671021,0.362976
1499895291175565,-0.334839,-0.551941,0.67218,0.36261
1499895291190563,-0.334778,-0.550659,0.673401,0.362183
1499895291213588,-0.334778,-0.549561,0.6745,0.361816
1499895291235565,-0.335327,-0.55011,0.674194,0.361084
1499895291250568,-0.335266,-0.550537,0.674011,0.360779
1499895291273567,-0.334778,-0.549255,0.67511,0.361145
1499895291295589,-0.334473,-0.547791,0.676331,0.361389
1499895291312576,-0.334351,-0.547546,0.676758,0.361145
1499895291333570,-0.334229,-0.547974,0.676575,0.360962
1499895291355586,-0.334106,-0.548279,0.67627,0.361084
1499895291372573,-0.33374,-0.547791,0.676697,0.36145
1499895291393580,-0.333374,-0.547424,0.677063,0.361633
1499895291415579,-0.333191,-0.547546,0.677124,0.361511
1499895291433578,-0.333069,-0.547607,0.677063,0.361572
1499895291453593,-0.333069,-0.547791,0.67688,0.361694
1499895291475580,-0.333008,-0.547791,0.67688,0.361755
1499895291492581,-0.33313,-0.547302,0.677185,0.361755
1499895291513592,-0.333069,-0.547058,0.677551,0.361572
1499895291543585,-0.332703,-0.546936,0.677856,0.361572
1499895291552584,-0.332153,-0.546753,0.678101,0.361877
1499895291573585,-0.331726,-0.546814,0.678101,0.362061
1499895291596592,-0.331421,-0.546814,0.678162,0.362244
1499895291612593,-0.331421,-0.546814,0.678162,0.362244
1499895291633588,-0.331238,-0.546997,0.678162,0.362183
1499895291655591,-0.330933,-0.547058,0.678162,0.362366
1499895291672594,-0.330872,-0.547058,0.678162,0.362427
1499895291693612,-0.330933,-0.54718,0.677979,0.362427
1499895291716593,-0.330994,-0.547302,0.677917,0.362427
1499895291732596,-0.331116,-0.547302,0.677856,0.362427
1499895291753594,-0.331055,-0.547119,0.677856,0.362732
1499895291775595,-0.331116,-0.547241,0.677673,0.362854
1499895291792598,-0.331116,-0.547241,0.677673,0.362854
1499895291820618,-0.331116,-0.547241,0.677673,0.362854
1499895291835620,-0.331238,-0.547241,0.677612,0.362793
1499895291861601,-0.331238,-0.547241,0.677612,0.362793
1499895291873608,-0.331238,-0.547241,0.677612,0.362793
1499895291895604,-0.331238,-0.547241,0.677612,0.362793
1499895291913608,-0.331238,-0.547241,0.677612,0.362793
1499895291933604,-0.331238,-0.547241,0.677612,0.362793
1499895291955606,-0.331421,-0.547363,0.677551,0.362671
1499895291978613,-0.331421,-0.547363,0.677551,0.362671
1499895291993633,-0.33136,-0.547363,0.677551,0.362671
1499895292015610,-0.33136,-0.547363,0.677551,0.362671
1499895292033611,-0.33136,-0.547363,0.677551,0.362671
1499895292053651,-0.33136,-0.547363,0.677551,0.362671
1499895292075614,-0.33136,-0.547363,0.677551,0.362732
1499895292093614,-0.331299,-0.547302,0.677551,0.362732
1499895292113650,-0.33136,-0.547546,0.677368,0.362732
1499895292135634,-0.331482,-0.547668,0.677246,0.36261
1499895292153623,-0.331482,-0.547485,0.677368,0.362732
1499895292173620,-0.331421,-0.547485,0.677368,0.362732
1499895292195626,-0.331543,-0.547363,0.677307,0.362915
1499895292213626,-0.331726,-0.547363,0.677124,0.363098
1499895292233644,-0.33197,-0.547485,0.676941,0.363098
1499895292255688,-0.332153,-0.547485,0.676819,0.363098
1499895292273625,-0.332214,-0.547424,0.676819,0.363098
1499895292294626,-0.332214,-0.547424,0.676819,0.363098
1499895292315628,-0.332214,-0.547424,0.676819,0.363098
1499895292333628,-0.332153,-0.547424,0.67688,0.363098
1499895292353687,-0.332153,-0.547424,0.67688,0.363098
1499895292375650,-0.332092,-0.547302,0.677002,0.363159
1499895292393635,-0.331909,-0.547119,0.677185,0.36322
1499895292413665,-0.331726,-0.546936,0.677368,0.363281
1499895292435656,-0.331665,-0.546936,0.677368,0.363342
1499895292453636,-0.331726,-0.547058,0.677246,0.363342
1499895292474656,-0.331726,-0.547058,0.677246,0.363342
1499895292495638,-0.331726,-0.547058,0.677246,0.363342
1499895292513647,-0.331726,-0.547058,0.677246,0.363342
1499895292534640,-0.331726,-0.547058,0.677246,0.363342
1499895292555641,-0.331726,-0.547058,0.677246,0.363342
1499895292578661,-0.331665,-0.547058,0.677246,0.363342
1499895292594643,-0.331665,-0.547058,0.677246,0.363342
1499895292615665,-0.331665,-0.547058,0.677307,0.363342
1499895292638651,-0.331665,-0.546997,0.677307,0.363342
1499895292654651,-0.331665,-0.546997,0.677307,0.363342
1499895292675647,-0.331665,-0.546997,0.677307,0.363342
1499895292698650,-0.331787,-0.547058,0.677246,0.363342
1499895292715655,-0.331787,-0.547058,0.677246,0.363342
1499895292735657,-0.331787,-0.547058,0.677246,0.363342
1499895292758679,-0.331787,-0.547058,0.677185,0.363342
1499895292774653,-0.331787,-0.547058,0.677185,0.363342
1499895292795657,-0.331787,-0.547058,0.677185,0.363342
1499895292818692,-0.331787,-0.547058,0.677185,0.363342
1499895292836675,-0.331787,-0.547058,0.677185,0.363342
1499895292855678,-0.331787,-0.547058,0.677185,0.363342
1499895292878662,-0.331787,-0.547058,0.677246,0.363342
1499895292896661,-0.331787,-0.546997,0.677246,0.363342
1499895292916666,-0.331848,-0.547058,0.677185,0.363281
1499895292938665,-0.331848,-0.547058,0.677185,0.363281
1499895292956668,-0.331848,-0.547058,0.677185,0.363342
1499895292975665,-0.331787,-0.547058,0.677185,0.363342
1499895292999667,-0.331787,-0.547058,0.677185,0.363342
1499895293017672,-0.331787,-0.547058,0.677185,0.363342
1499895293038669,-0.331787,-0.547058,0.677185,0.363342
1499895293058686,-0.331787,-0.547058,0.677185,0.363342
1499895293076681,-0.331787,-0.547058,0.677185,0.363342
1499895293095674,-0.331787,-0.547058,0.677185,0.363342
1499895293118689,-0.331787,-0.547058,0.677185,0.363342
1499895293136674,-0.331787,-0.547058,0.677185,0.363342
1499895293155692,-0.331787,-0.547058,0.677185,0.363342
1499895293178678,-0.331665,-0.547058,0.677307,0.363281
1499895293196679,-0.331665,-0.547058,0.677307,0.363281
1499895293215685,-0.331665,-0.547058,0.677307,0.363281
1499895293238682,-0.331604,-0.547058,0.677307,0.363281
1499895293256689,-0.331604,-0.547058,0.677307,0.363281
1499895293275682,-0.331604,-0.547058,0.677307,0.363281
1499895293298688,-0.331604,-0.547058,0.677307,0.363281
1499895293317685,-0.331604,-0.547058,0.677307,0.363281
1499895293335688,-0.331604,-0.547058,0.677307,0.363342
1499895293358689,-0.331604,-0.547058,0.677368,0.363342
1499895293376711,-0.331543,-0.546997,0.677368,0.363342
1499895293397691,-0.331604,-0.547058,0.677368,0.363342
1499895293418693,-0.331604,-0.546997,0.677368,0.363281
1499895293436691,-0.331604,-0.546997,0.677368,0.363342
1499895293457694,-0.331604,-0.546997,0.677368,0.363281
1499895293478700,-0.331604,-0.546997,0.677368,0.363281
1499895293496696,-0.331604,-0.546997,0.677368,0.363281
1499895293517698,-0.331604,-0.546997,0.677368,0.363342
1499895293538702,-0.331604,-0.546997,0.677368,0.363342
1499895293556702,-0.331604,-0.546936,0.677429,0.363342
1499895293578704,-0.331604,-0.546997,0.677429,0.363342
1499895293598703,-0.331604,-0.546936,0.677429,0.363342
1499895293616703,-0.331604,-0.546936,0.677429,0.363342
1499895293637703,-0.331543,-0.546936,0.677429,0.363342
1499895293658708,-0.331543,-0.546936,0.677429,0.363342
1499895293676730,-0.331543,-0.546936,0.677429,0.363342
1499895293697708,-0.331543,-0.546936,0.677429,0.363342
1499895293718709,-0.331543,-0.546936,0.677429,0.363342
1499895293735711,-0.331604,-0.546936,0.677429,0.363342
1499895293763713,-0.331543,-0.546936,0.677429,0.363342
1499895293778714,-0.331543,-0.546936,0.677429,0.363342
1499895293796713,-0.331543,-0.546936,0.677429,0.363342
1499895293818714,-0.331543,-0.546936,0.677429,0.363342
1499895293838715,-0.331543,-0.546936,0.677429,0.363342
1499895293855718,-0.331543,-0.546936,0.677429,0.363342
1499895293878720,-0.331482,-0.546936,0.677429,0.363342
1499895293905735,-0.331482,-0.546936,0.677429,0.363403
1499895293917720,-0.331482,-0.546936,0.677429,0.363403
1499895293938721,-0.331482,-0.546875,0.677429,0.363403
1499895293958737,-0.331482,-0.546875,0.67749,0.363403
1499895293975724,-0.331482,-0.546875,0.67749,0.363403
1499895293998725,-0.331482,-0.546875,0.67749,0.363403
1499895294018727,-0.331482,-0.546875,0.67749,0.363403
1499895294035731,-0.331482,-0.546875,0.67749,0.363403
1499895294058729,-0.331482,-0.546875,0.67749,0.363403
1499895294078733,-0.331482,-0.546875,0.67749,0.363403
1499895294095731,-0.331543,-0.546997,0.677368,0.363342
1499895294118739,-0.331543,-0.546997,0.677368,0.363342
1499895294138733,-0.331543,-0.546997,0.677429,0.363342
1499895294156745,-0.331543,-0.546997,0.677368,0.363342
1499895294178735,-0.331543,-0.546997,0.677368,0.363342
1499895294198755,-0.331543,-0.546997,0.677368,0.363342
1499895294221739,-0.331543,-0.546997,0.677368,0.363403
1499895294238755,-0.331482,-0.546997,0.677368,0.363403
1499895294258749,-0.331482,-0.546997,0.677368,0.363403
1499895294276794,-0.331482,-0.546997,0.677368,0.363403
1499895294298742,-0.331482,-0.546997,0.677368,0.363403
1499895294318783,-0.331482,-0.546997,0.677368,0.363403
1499895294335764,-0.331482,-0.546997,0.677368,0.363403
1499895294358755,-0.331421,-0.546997,0.677368,0.363403
1499895294379746,-0.331543,-0.546753,0.67749,0.363464
1499895294400781,-0.331543,-0.546753,0.677551,0.363464
1499895294418748,-0.331665,-0.546875,0.677429,0.363342
1499895294439752,-0.331726,-0.546997,0.677368,0.36322
1499895294455751,-0.331726,-0.546997,0.677368,0.36322
1499895294478754,-0.331665,-0.546692,0.677551,0.363342
1499895294499754,-0.331665,-0.546692,0.677551,0.363342
1499895294516793,-0.331787,-0.546753,0.67749,0.363281
1499895294538755,-0.331909,-0.546936,0.677307,0.363281
1499895294558765,-0.331909,-0.546936,0.677307,0.363281
1499895294575762,-0.331909,-0.546936,0.677307,0.363281
1499895294597760,-0.331909,-0.546936,0.677307,0.363281
1499895294618766,-0.33197,-0.547058,0.677185,0.36322
1499895294635778,-0.33197,-0.547058,0.677185,0.36322
1499895294657787,-0.33197,-0.547058,0.677185,0.36322
1499895294678785,-0.33197,-0.547058,0.677185,0.36322
1499895294694765,-0.33197,-0.547058,0.677185,0.36322
1499895294717775,-0.33197,-0.547058,0.677185,0.36322
1499895294740767,-0.33197,-0.547058,0.677185,0.36322
1499895294754785,-0.33197,-0.547058,0.677185,0.36322
1499895294783769,-0.33197,-0.547058,0.677185,0.363281
1499895294799772,-0.331909,-0.547058,0.677185,0.363281
1499895294815772,-0.331909,-0.547058,0.677185,0.363281
1499895294837773,-0.331909,-0.547058,0.677185,0.363281
1499895294860779,-0.331909,-0.547058,0.677185,0.363281
1499895294874775,-0.331848,-0.547058,0.677185,0.363342
1499895294897779,-0.331848,-0.547058,0.677185,0.363342
1499895294920784,-0.331848,-0.547058,0.677185,0.363342
1499895294934779,-0.331848,-0.547058,0.677185,0.363342
1499895294957783,-0.331848,-0.547058,0.677185,0.363342
1499895294980802,-0.331848,-0.546997,0.677185,0.363342
1499895294994783,-0.331848,-0.546997,0.677246,0.363342
1499895295017789,-0.331848,-0.546997,0.677246,0.363342
1499895295040784,-0.331787,-0.546997,0.677246,0.363342
1499895295054786,-0.331787,-0.546997,0.677246,0.363342
1499895295077788,-0.331787,-0.546997,0.677246,0.363403
1499895295100788,-0.331787,-0.546997,0.677246,0.363403
1499895295114790,-0.331726,-0.546997,0.677246,0.363403
1499895295137790,-0.331726,-0.546997,0.677246,0.363403
1499895295160797,-0.331726,-0.546997,0.677246,0.363464
1499895295174794,-0.331726,-0.546997,0.677246,0.363464
1499895295197794,-0.331665,-0.546936,0.677246,0.363464
1499895295220817,-0.331665,-0.546936,0.677246,0.363464
1499895295241798,-0.331665,-0.546936,0.677246,0.363464
1499895295257802,-0.331665,-0.546936,0.677307,0.363464
1499895295279798,-0.331665,-0.546936,0.677246,0.363464
1499895295301862,-0.331665,-0.546936,0.677307,0.363464
1499895295317802,-0.331665,-0.546936,0.677307,0.363464
1499895295340830,-0.331665,-0.546936,0.677307,0.363464
1499895295361805,-0.331665,-0.546936,0.677307,0.363464
1499895295377804,-0.331665,-0.546936,0.677307,0.363464
1499895295400838,-0.331665,-0.546875,0.677307,0.363464
1499895295421808,-0.331665,-0.546875,0.677307,0.363525
1499895295437809,-0.331604,-0.546875,0.677368,0.363525
1499895295460809,-0.331604,-0.546875,0.677368,0.363525
1499895295481810,-0.331604,-0.546875,0.677368,0.363525
1499895295497811,-0.331604,-0.546875,0.677368,0.363525
1499895295520814,-0.331604,-0.546875,0.677368,0.363525
1499895295541834,-0.331604,-0.546875,0.677368,0.363525
1499895295557818,-0.331665,-0.546875,0.677368,0.363525
1499895295580815,-0.331604,-0.546875,0.677368,0.363525
1499895295601881,-0.331665,-0.546875,0.677368,0.363525
1499895295617818,-0.331604,-0.546875,0.677368,0.363525
1499895295640821,-0.331604,-0.546875,0.677368,0.363525
1499895295662821,-0.331604,-0.546814,0.677368,0.363525
1499895295683821,-0.331604,-0.546875,0.677368,0.363525
1499895295700825,-0.331604,-0.546814,0.677368,0.363525
1499895295722824,-0.331604,-0.546814,0.677368,0.363525
1499895295737827,-0.331604,-0.546814,0.677368,0.363525
1499895295760827,-0.331604,-0.546814,0.677429,0.363525
1499895295782828,-0.331543,-0.546814,0.677429,0.363586
