timestamp,x,y,z,w
1499876458108329,-0.473083,-0.10614,-0.415344,0.769714
1499876458132330,-0.47467,-0.105103,-0.413818,0.769714
1499876458147332,-0.473755,-0.104675,-0.412048,0.77124
1499876458169351,-0.471558,-0.105164,-0.410889,0.773132
1499876458193337,-0.469055,-0.105957,-0.410217,0.774902
1499876458207347,-0.46759,-0.105713,-0.409546,0.776184
1499876458229395,-0.467407,-0.104553,-0.409241,0.776611
1499876458284361,-0.467163,-0.103088,-0.409119,0.777039
1499876458286370,-0.466553,-0.101563,-0.408875,0.777771
1499876458291353,-0.465759,-0.100464,-0.408936,0.77832
1499876458304340,-0.464661,-0.0988159,-0.408691,0.779297
1499876458328341,-0.461914,-0.0976563,-0.408997,0.780884
1499876458343349,-0.459473,-0.0965576,-0.409363,0.782288
1499876458387365,-0.458252,-0.0952759,-0.409119,0.783325
1499876458387365,-0.457703,-0.0942993,-0.408386,0.784119
1499876458401753,-0.456299,-0.0934448,-0.407288,0.785583
1499876458424783,-0.453918,-0.0934448,-0.406006,0.787659
1499876458446798,-0.451233,-0.0941772,-0.404724,0.789795
1499876458469797,-0.450439,-0.0944214,-0.403625,0.790771
1499876458485774,-0.4505,-0.0946655,-0.402832,0.791077
1499876458508757,-0.450256,-0.0952148,-0.402161,0.791504
1499876458529804,-0.448425,-0.0963135,-0.401672,0.792664
1499876458545771,-0.446472,-0.0973511,-0.401978,0.793457
1499876458568797,-0.447021,-0.0977173,-0.402405,0.792908
1499876458589826,-0.448975,-0.0974731,-0.402405,0.79187
1499876458605769,-0.448975,-0.0980225,-0.402649,0.791687
1499876458629783,-0.448242,-0.0991211,-0.403259,0.791626
1499876458649769,-0.448181,-0.0999146,-0.404114,0.791138
1499876458666776,-0.44928,-0.0998535,-0.404236,0.790466
1499876458688805,-0.449158,-0.100403,-0.403931,0.790588
1499876458709810,-0.448608,-0.101196,-0.404114,0.79071
1499876458725774,-0.448669,-0.101624,-0.404724,0.790283
1499876458748787,-0.449463,-0.10144,-0.404846,0.789795
1499876458769817,-0.4505,-0.101013,-0.404541,0.789429
1499876458785772,-0.450134,-0.101318,-0.404541,0.789612
1499876458808779,-0.450073,-0.101257,-0.404602,0.789612
1499876458830775,-0.449768,-0.101318,-0.404968,0.789612
1499876458845796,-0.4505,-0.100708,-0.405029,0.789246
1499876458868797,-0.4505,-0.100647,-0.405029,0.789246
1499876458890779,-0.449951,-0.100708,-0.405029,0.789551
1499876458905787,-0.449585,-0.100586,-0.405396,0.789612
1499876458928818,-0.450012,-0.100281,-0.405762,0.789185
1499876458950781,-0.450684,-0.0997314,-0.405823,0.788818
1499876458965788,-0.4505,-0.0996094,-0.405823,0.78894
1499876458988822,-0.450134,-0.0994873,-0.406006,0.789063
1499876459010798,-0.450195,-0.0992432,-0.406189,0.789001
1499876459025789,-0.450439,-0.0991211,-0.406311,0.788757
1499876459048825,-0.4505,-0.0991211,-0.406311,0.788757
1499876459070788,-0.450134,-0.0992432,-0.406372,0.78894
1499876459085796,-0.450073,-0.0992432,-0.406372,0.78894
1499876459108792,-0.450317,-0.0992432,-0.406494,0.788757
1499876459130791,-0.450623,-0.0993042,-0.406616,0.788513
1499876459145796,-0.450684,-0.0993042,-0.406616,0.788452
1499876459168833,-0.450256,-0.0995483,-0.406677,0.788635
1499876459190815,-0.450195,-0.0996094,-0.407043,0.788513
1499876459204797,-0.450562,-0.0993652,-0.407288,0.788208
1499876459228837,-0.451172,-0.0991821,-0.407288,0.787842
1499876459250799,-0.451172,-0.0993652,-0.407043,0.787964
1499876459265815,-0.450623,-0.0996704,-0.407104,0.788208
1499876459288840,-0.450195,-0.0996704,-0.407288,0.78833
1499876459310802,-0.450623,-0.0995483,-0.407654,0.787964
1499876459331850,-0.451355,-0.0992432,-0.407654,0.787598
1499876459348844,-0.451294,-0.0993652,-0.407471,0.787659
1499876459370806,-0.450867,-0.0996704,-0.40741,0.787964
1499876459393812,-0.450867,-0.0996704,-0.40741,0.787964
1499876459415810,-0.451111,-0.0994263,-0.407654,0.78772
1499876459429822,-0.451538,-0.0991211,-0.407837,0.787415
1499876459453852,-0.451538,-0.0990601,-0.407837,0.787415
1499876459475812,-0.451538,-0.0991211,-0.407837,0.787415
1499876459489835,-0.451538,-0.0991211,-0.407837,0.787415
1499876459513846,-0.451294,-0.0990601,-0.407898,0.787537
1499876459535815,-0.451355,-0.098938,-0.408081,0.787354
1499876459549848,-0.451599,-0.098938,-0.408203,0.78717
1499876459573850,-0.451599,-0.0993042,-0.408264,0.787109
1499876459595820,-0.451355,-0.0995483,-0.408325,0.78717
1499876459609840,-0.451355,-0.0995483,-0.408325,0.78717
1499876459633846,-0.45166,-0.0993652,-0.408569,0.786926
1499876459655822,-0.451843,-0.0992432,-0.408875,0.786621
1499876459669851,-0.452026,-0.0993652,-0.409058,0.786438
1499876459693828,-0.451843,-0.0995483,-0.409119,0.786499
1499876459715826,-0.451599,-0.0997314,-0.40918,0.78656
1499876459729832,-0.451599,-0.0997314,-0.40918,0.78656
1499876459753860,-0.451599,-0.0997314,-0.40918,0.78656
1499876459775830,-0.451599,-0.0996704,-0.40918,0.78656
1499876459796850,-0.451477,-0.0999146,-0.409058,0.786682
1499876459813853,-0.451477,-0.0999756,-0.409058,0.786682
1499876459835833,-0.451721,-0.0999146,-0.409119,0.786499
1499876459856834,-0.451843,-0.0997925,-0.409241,0.786377
1499876459873854,-0.451904,-0.0997925,-0.409241,0.786377
1499876459895836,-0.451843,-0.0999146,-0.409058,0.786499
1499876459916878,-0.451538,-0.100098,-0.408997,0.786682
1499876459933854,-0.451538,-0.100037,-0.408997,0.786682
1499876459955848,-0.451782,-0.0999146,-0.409119,0.786499
1499876459976846,-0.45166,-0.100037,-0.409241,0.786438
1499876459993861,-0.45166,-0.100037,-0.409241,0.786438
1499876460015848,-0.45166,-0.100098,-0.409241,0.786438
1499876460036886,-0.45166,-0.100098,-0.409241,0.786438
1499876460053862,-0.45166,-0.100098,-0.409241,0.786438
1499876460075861,-0.451721,-0.100037,-0.409241,0.786438
1499876460096888,-0.451721,-0.100098,-0.409241,0.786438
1499876460113862,-0.451721,-0.100098,-0.409241,0.786438
1499876460141853,-0.451721,-0.100098,-0.409241,0.786438
1499876460156896,-0.45166,-0.10022,-0.409241,0.786438
1499876460173864,-0.451599,-0.100342,-0.409363,0.786438
1499876460195854,-0.451599,-0.100403,-0.409485,0.786316
1499876460218864,-0.451416,-0.100647,-0.409607,0.786377
1499876460233861,-0.451355,-0.10083,-0.409668,0.786316
1499876460255857,-0.451599,-0.100891,-0.409729,0.786133
1499876460278865,-0.451599,-0.100891,-0.409729,0.786133
1499876460293881,-0.451477,-0.100952,-0.409912,0.786133
1499876460315880,-0.451416,-0.100952,-0.409912,0.786133
1499876460338866,-0.451782,-0.101074,-0.409912,0.785889
1499876460353869,-0.451782,-0.101074,-0.409912,0.785889
1499876460375884,-0.45166,-0.101196,-0.409668,0.786072
1499876460398872,-0.45166,-0.101196,-0.409668,0.786072
1499876460412866,-0.451782,-0.101196,-0.409668,0.786011
1499876460435867,-0.452087,-0.101135,-0.409607,0.785889
1499876460458870,-0.452026,-0.101135,-0.409607,0.785889
1499876460472881,-0.452087,-0.101196,-0.409607,0.785889
1499876460495871,-0.452332,-0.101257,-0.409546,0.785767
1499876460518877,-0.452454,-0.101196,-0.409546,0.785706
1499876460532873,-0.452393,-0.101135,-0.409546,0.785706
1499876460555874,-0.452393,-0.101135,-0.409546,0.785767
1499876460578879,-0.452393,-0.101135,-0.409546,0.785767
1499876460592923,-0.452393,-0.101135,-0.409546,0.785706
1499876460615883,-0.452454,-0.101196,-0.409546,0.785706
1499876460638879,-0.452454,-0.101196,-0.409546,0.785706
1499876460652880,-0.452454,-0.101196,-0.409546,0.785706
1499876460675882,-0.452332,-0.101318,-0.409546,0.785767
1499876460698888,-0.452332,-0.101318,-0.409546,0.785767
1499876460712915,-0.452332,-0.101318,-0.409546,0.785767
1499876460735907,-0.452332,-0.101379,-0.409546,0.785767
1499876460758898,-0.452332,-0.101379,-0.409546,0.785706
1499876460779897,-0.452393,-0.101318,-0.409546,0.785706
1499876460795892,-0.452271,-0.101624,-0.409668,0.785706
1499876460818889,-0.452393,-0.101807,-0.40979,0.785522
1499876460839901,-0.452698,-0.101929,-0.409973,0.785278
1499876460855892,-0.452698,-0.101868,-0.409973,0.785278
1499876460878898,-0.452698,-0.101868,-0.409973,0.785217
1499876460899904,-0.452759,-0.101868,-0.409973,0.785217
1499876460915904,-0.452515,-0.102112,-0.409973,0.785339
1499876460938902,-0.452759,-0.102112,-0.410034,0.785156
1499876460959904,-0.453247,-0.102112,-0.410034,0.784851
1499876460975899,-0.453308,-0.102112,-0.410034,0.784851
1499876460998906,-0.453308,-0.102051,-0.410034,0.784851
1499876461019911,-0.453308,-0.102051,-0.410034,0.784851
1499876461035909,-0.453369,-0.102051,-0.409973,0.784851
1499876461058909,-0.453308,-0.102051,-0.410034,0.784851
1499876461079913,-0.453491,-0.102051,-0.410095,0.784668
1499876461103912,-0.453796,-0.102051,-0.410034,0.784546
1499876461118912,-0.453796,-0.102051,-0.410034,0.784546
1499876461139919,-0.453735,-0.102051,-0.410034,0.784546
1499876461155914,-0.453735,-0.102051,-0.410034,0.784607
1499876461178917,-0.453979,-0.10199,-0.410095,0.784424
1499876461200912,-0.453979,-0.10199,-0.410095,0.784424
1499876461214924,-0.453796,-0.10199,-0.410095,0.784546
1499876461238921,-0.453796,-0.10199,-0.410095,0.784546
1499876461260921,-0.453918,-0.102051,-0.410156,0.784424
1499876461275918,-0.454163,-0.102112,-0.410278,0.78418
1499876461298924,-0.454163,-0.102112,-0.410278,0.78418
1499876461320919,-0.454102,-0.102295,-0.410278,0.784241
1499876461334920,-0.454102,-0.102295,-0.410278,0.784241
1499876461357991,-0.454102,-0.102295,-0.410278,0.784241
1499876461380923,-0.454163,-0.102295,-0.410217,0.784241
1499876461394933,-0.454102,-0.102417,-0.410278,0.784241
1499876461418940,-0.453918,-0.102844,-0.410217,0.784302
1499876461440948,-0.453918,-0.103149,-0.410156,0.784302
1499876461454927,-0.453796,-0.103516,-0.410217,0.784302
1499876461478933,-0.453613,-0.103882,-0.410217,0.784302
1499876461500948,-0.453369,-0.104187,-0.4104,0.784302
1499876461514941,-0.453552,-0.104309,-0.410522,0.78418
1499876461537994,-0.453979,-0.104309,-0.410583,0.783875
1499876461560933,-0.454041,-0.104248,-0.410583,0.783875
1499876461574947,-0.453918,-0.104553,-0.410522,0.783875
1499876461598943,-0.453918,-0.104553,-0.410522,0.783875
1499876461620937,-0.454224,-0.104492,-0.410461,0.783752
1499876461634949,-0.454285,-0.104431,-0.410461,0.783752
1499876461658001,-0.454041,-0.104553,-0.410461,0.783875
1499876461680939,-0.454041,-0.104553,-0.4104,0.783875
1499876461702003,-0.454041,-0.104614,-0.4104,0.783875
1499876461724953,-0.454102,-0.104614,-0.4104,0.783875
1499876461740948,-0.454041,-0.104614,-0.4104,0.783875
1499876461762011,-0.454041,-0.104614,-0.410461,0.783875
1499876461778003,-0.454041,-0.104614,-0.410461,0.783875
1499876461800967,-0.454041,-0.104553,-0.4104,0.783875
1499876461822003,-0.454041,-0.104553,-0.4104,0.783875
1499876461837950,-0.454102,-0.104553,-0.4104,0.783875
1499876461860967,-0.454041,-0.104614,-0.4104,0.783875
1499876461882013,-0.454224,-0.104553,-0.410583,0.783691
1499876461898021,-0.454407,-0.104553,-0.410645,0.783569
1499876461920953,-0.454651,-0.104431,-0.410706,0.783386
1499876461941955,-0.454712,-0.104431,-0.410706,0.783386
1499876461958020,-0.454651,-0.104614,-0.410645,0.783386
1499876461980957,-0.454651,-0.104614,-0.410645,0.783386
1499876462002018,-0.454651,-0.104614,-0.410645,0.783386
1499876462018020,-0.454651,-0.104614,-0.410645,0.783386
1499876462040961,-0.454651,-0.104614,-0.410645,0.783386
1499876462062030,-0.454651,-0.104614,-0.410645,0.783386
1499876462085963,-0.454651,-0.104797,-0.410706,0.783325
1499876462100984,-0.454529,-0.104919,-0.410889,0.783325
1499876462122990,-0.45459,-0.10498,-0.411072,0.783142
1499876462138021,-0.454895,-0.10498,-0.411194,0.782898
1499876462160967,-0.454895,-0.10498,-0.411194,0.782898
1499876462182987,-0.454956,-0.10498,-0.411194,0.782898
1499876462197994,-0.454956,-0.10498,-0.411194,0.782898
1499876462220971,-0.454956,-0.10498,-0.411194,0.782898
1499876462242975,-0.454956,-0.10498,-0.411194,0.782898
1499876462257973,-0.454956,-0.10498,-0.411194,0.782898
1499876462280974,-0.454956,-0.10498,-0.411194,0.782898
1499876462302990,-0.454956,-0.105103,-0.411072,0.782959
1499876462324029,-0.454834,-0.105164,-0.411011,0.78302
1499876462340978,-0.455078,-0.105164,-0.411011,0.782898
1499876462362991,-0.455261,-0.105103,-0.411072,0.782776
1499876462377981,-0.455261,-0.105164,-0.411072,0.782776
1499876462385002,-0.4552,-0.105164,-0.411072,0.782776
1499876462406049,-0.455383,-0.10498,-0.41095,0.782776
1499876462429022,-0.455322,-0.104919,-0.410889,0.782837
1499876462445006,-0.455017,-0.10498,-0.41095,0.782959
1499876462466043,-0.455017,-0.10498,-0.41095,0.782959
1499876462488991,-0.455017,-0.10498,-0.41095,0.782959
1499876462505010,-0.455078,-0.10498,-0.41095,0.782959
1499876462526027,-0.455017,-0.10498,-0.41095,0.782959
1499876462548996,-0.455078,-0.10498,-0.41095,0.782959
1499876462565013,-0.455078,-0.10498,-0.41095,0.782959
1499876462586057,-0.455078,-0.10498,-0.41095,0.782959
1499876462609032,-0.454834,-0.105225,-0.411011,0.78302
1499876462625017,-0.454834,-0.105225,-0.411011,0.78302
1499876462646060,-0.454834,-0.105225,-0.411011,0.78302
1499876462669038,-0.454834,-0.105225,-0.411011,0.78302
1499876462685022,-0.454895,-0.105225,-0.411011,0.78302
1499876462706055,-0.454895,-0.105225,-0.41095,0.78302
1499876462729067,-0.454651,-0.105469,-0.411011,0.783081
1499876462745023,-0.454468,-0.105652,-0.411133,0.783142
1499876462766062,-0.454468,-0.105652,-0.411133,0.783142
1499876462789046,-0.454468,-0.105591,-0.411133,0.783142
1499876462805004,-0.454468,-0.105591,-0.411133,0.783142
1499876462826067,-0.454529,-0.105652,-0.411072,0.783142
1499876462849053,-0.454285,-0.105713,-0.411072,0.783264
1499876462865024,-0.454285,-0.105713,-0.411072,0.783264
1499876462886068,-0.454285,-0.105713,-0.411072,0.783264
1499876462909049,-0.454285,-0.105713,-0.411072,0.783264
1499876462925026,-0.454285,-0.105713,-0.411072,0.783264
1499876462946056,-0.454163,-0.105774,-0.41095,0.783386
1499876462969061,-0.453979,-0.106018,-0.410828,0.783508
1499876462987055,-0.453979,-0.106018,-0.410828,0.783508
1499876463006084,-0.454041,-0.105957,-0.41095,0.783447
1499876463029066,-0.454041,-0.105957,-0.41095,0.783447
1499876463047056,-0.454041,-0.105957,-0.41095,0.783447
1499876463066038,-0.454102,-0.105957,-0.41095,0.783447
1499876463089039,-0.453857,-0.105957,-0.410889,0.783569
1499876463107059,-0.454041,-0.105835,-0.411011,0.783386
1499876463126030,-0.454224,-0.105652,-0.411072,0.783264
1499876463149088,-0.454163,-0.105835,-0.411255,0.783203
1499876463167063,-0.454407,-0.105896,-0.411316,0.78302
1499876463186087,-0.454407,-0.105896,-0.411316,0.78302
1499876463209032,-0.454468,-0.105896,-0.411316,0.78302
1499876463227033,-0.454407,-0.105896,-0.411316,0.78302
1499876463246071,-0.454529,-0.105774,-0.411438,0.782898
1499876463269078,-0.454529,-0.105774,-0.411438,0.782898
