timestamp,roll,pitch,yaw
1499894410792122,-1.39724,-0.17759,2.21572
1499894410815123,-1.396,-0.175564,2.21646
1499894410836149,-1.39518,-0.174417,2.21706
1499894410852132,-1.39445,-0.173251,2.21697
1499894410875129,-1.39323,-0.171494,2.21679
1499894410897130,-1.39222,-0.169984,2.21632
1499894410912130,-1.39356,-0.168003,2.21605
1499894410935145,-1.39425,-0.166468,2.21547
1499894410958132,-1.39428,-0.165596,2.21486
1499894410972132,-1.39363,-0.165269,2.21505
1499894410996134,-1.39217,-0.164921,2.21494
1499894411017135,-1.39148,-0.164411,2.21484
1499894411031136,-1.39141,-0.164655,2.21538
1499894411055143,-1.39084,-0.164918,2.21609
1499894411077138,-1.3907,-0.164994,2.21692
1499894411091155,-1.39029,-0.165305,2.21774
1499894411115146,-1.38905,-0.165209,2.21826
1499894411137143,-1.38867,-0.16533,2.21869
1499894411152155,-1.38867,-0.16533,2.21869
1499894411175146,-1.38974,-0.165291,2.21881
1499894411197145,-1.38968,-0.165372,2.21885
1499894411212147,-1.38992,-0.165402,2.2192
1499894411235152,-1.38992,-0.165402,2.2192
1499894411258153,-1.3896,-0.165544,2.21943
1499894411272151,-1.3899,-0.166099,2.22001
1499894411302151,-1.39026,-0.166777,2.22024
1499894411317153,-1.39026,-0.166777,2.22024
1499894411331153,-1.39026,-0.166777,2.22024
1499894411361170,-1.39011,-0.166701,2.22024
1499894411377160,-1.39011,-0.166701,2.22024
1499894411398172,-1.39062,-0.166671,2.2204
1499894411415161,-1.39068,-0.166589,2.22035
1499894411437163,-1.39013,-0.166333,2.22006
1499894411458162,-1.38999,-0.166257,2.22006
1499894411475162,-1.39092,-0.166392,2.21992
1499894411497164,-1.39154,-0.166226,2.21989
1499894411518193,-1.3917,-0.166199,2.22004
1499894411535170,-1.39118,-0.166156,2.21993
1499894411557169,-1.39118,-0.166156,2.21993
1499894411578168,-1.39125,-0.166074,2.21989
1499894411595169,-1.39124,-0.165999,2.21994
1499894411617171,-1.39124,-0.165999,2.21994
1499894411638171,-1.39124,-0.165999,2.21994
1499894411655173,-1.39179,-0.166255,2.22023
1499894411677174,-1.39177,-0.166283,2.22013
1499894411698234,-1.39177,-0.166283,2.22013
1499894411715180,-1.39177,-0.166283,2.22013
1499894411737176,-1.39179,-0.166329,2.22018
1499894411758234,-1.3925,-0.166321,2.22019
1499894411775183,-1.39244,-0.166403,2.22024
1499894411797183,-1.39244,-0.166403,2.22024
1499894411820201,-1.39244,-0.166403,2.22024
1499894411835204,-1.39244,-0.166403,2.22024
1499894411857187,-1.39244,-0.166403,2.22024
1499894411880185,-1.39244,-0.166403,2.22024
1499894411894186,-1.39244,-0.166403,2.22024
1499894411917189,-1.39266,-0.166295,2.22034
1499894411940191,-1.39266,-0.166295,2.22034
1499894411954189,-1.3932,-0.166402,2.22074
1499894411977190,-1.39412,-0.166285,2.22086
1499894412000192,-1.39485,-0.166323,2.22092
1499894412014193,-1.39548,-0.166157,2.22088
1499894412037194,-1.39554,-0.166075,2.22084
1499894412060197,-1.39563,-0.166233,2.22088
1499894412074197,-1.39527,-0.16606,2.22108
1499894412097201,-1.39527,-0.16606,2.22108
1499894412120199,-1.39527,-0.16606,2.22108
1499894412134224,-1.39521,-0.166142,2.22112
1499894412157201,-1.39521,-0.166142,2.22112
1499894412163201,-1.39494,-0.166378,2.22111
1499894412185202,-1.39494,-0.166378,2.22111
1499894412202203,-1.39488,-0.16646,2.22116
1499894412222205,-1.39494,-0.166378,2.22111
1499894412245262,-1.39494,-0.166378,2.22111
1499894412261244,-1.3945,-0.166076,2.22116
1499894412283212,-1.3945,-0.166076,2.22116
1499894412305235,-1.3945,-0.166076,2.22116
1499894412321211,-1.3945,-0.166076,2.22116
1499894412342254,-1.3945,-0.166076,2.22116
1499894412365218,-1.3945,-0.166076,2.22116
1499894412381234,-1.3945,-0.166076,2.22116
1499894412404216,-1.3945,-0.166076,2.22116
1499894412425234,-1.39491,-0.166092,2.22097
1499894412441220,-1.39507,-0.16614,2.22107
1499894412463219,-1.39507,-0.16614,2.22107
1499894412485238,-1.39507,-0.16614,2.22107
1499894412501257,-1.39507,-0.16614,2.22107
1499894412523221,-1.39507,-0.16614,2.22107
1499894412545282,-1.3949,-0.166018,2.22102
1499894412563225,-1.39506,-0.166066,2.22112
1499894412582225,-1.3949,-0.166018,2.22102
1499894412605264,-1.39537,-0.166115,2.22127
1499894412623228,-1.39624,-0.165977,2.22159
1499894412643237,-1.39624,-0.165977,2.22159
1499894412665252,-1.39623,-0.166065,2.22213
1499894412683232,-1.39553,-0.165987,2.2225
1499894412703237,-1.39566,-0.166151,2.22304
1499894412725234,-1.39569,-0.166288,2.22329
1499894412743236,-1.39579,-0.166418,2.22343
1499894412762237,-1.39563,-0.16637,2.22333
1499894412785260,-1.39579,-0.166418,2.22343
1499894412807304,-1.39543,-0.166348,2.22348
1499894412822261,-1.39543,-0.166348,2.22348
1499894412845299,-1.3958,-0.166492,2.22338
1499894412868252,-1.39579,-0.166418,2.22343
1499894412883266,-1.39578,-0.166446,2.22333
1499894412905271,-1.39594,-0.166493,2.22343
1499894412927261,-1.39594,-0.166493,2.22343
1499894412943250,-1.39594,-0.166493,2.22343
1499894412965248,-1.396,-0.166337,2.22344
1499894412989249,-1.396,-0.166337,2.22344
1499894413003252,-1.39615,-0.166413,2.22344
1499894413025255,-1.39615,-0.166413,2.22344
1499894413048261,-1.39631,-0.166461,2.22354
1499894413062273,-1.39631,-0.166461,2.22354
1499894413085279,-1.39629,-0.166489,2.22344
1499894413108269,-1.39624,-0.166645,2.22343
1499894413122277,-1.39669,-0.16677,2.22359
1499894413145294,-1.39728,-0.166896,2.22379
1499894413168274,-1.39728,-0.166896,2.22379
1499894413184267,-1.39728,-0.166896,2.22379
1499894413205282,-1.39751,-0.166862,2.22385
1499894413227267,-1.3975,-0.16689,2.22374
1499894413242268,-1.3975,-0.16689,2.22374
1499894413265294,-1.39749,-0.166816,2.22379
1499894413288267,-1.3975,-0.16689,2.22374
1499894413302270,-1.3975,-0.16689,2.22374
1499894413325287,-1.3975,-0.16689,2.22374
1499894413347311,-1.39785,-0.166811,2.2238
1499894413364273,-1.39801,-0.166859,2.2239
1499894413385291,-1.39801,-0.166859,2.2239
1499894413407318,-1.39801,-0.166859,2.2239
1499894413424280,-1.39801,-0.166859,2.2239
1499894413445296,-1.39801,-0.166859,2.2239
1499894413468286,-1.39801,-0.166859,2.2239
1499894413484279,-1.39753,-0.166924,2.22414
1499894413505292,-1.39753,-0.166924,2.22414
1499894413527283,-1.39772,-0.167034,2.22453
1499894413544287,-1.39772,-0.167034,2.22453
1499894413565320,-1.39772,-0.167034,2.22453
1499894413588290,-1.39772,-0.167034,2.22453
1499894413604285,-1.39772,-0.167034,2.22453
1499894413625290,-1.39772,-0.167034,2.22453
1499894413647287,-1.39766,-0.16719,2.22453
1499894413664312,-1.39766,-0.16719,2.22453
1499894413688305,-1.39731,-0.167715,2.22426
1499894413707340,-1.39731,-0.167715,2.22426
1499894413725292,-1.39731,-0.167715,2.22426
1499894413745347,-1.39731,-0.167715,2.22426
1499894413768310,-1.39748,-0.167762,2.22436
1499894413785296,-1.39695,-0.167822,2.2241
1499894413805343,-1.39695,-0.167822,2.2241
1499894413827298,-1.39695,-0.167822,2.2241
1499894413845303,-1.39695,-0.167822,2.2241
1499894413865331,-1.39641,-0.167969,2.22439
1499894413887302,-1.39595,-0.16811,2.22457
1499894413905306,-1.39588,-0.168192,2.22462
1499894413925303,-1.39588,-0.168192,2.22462
1499894413947349,-1.39588,-0.168192,2.22462
1499894413965309,-1.39589,-0.168266,2.22457
1499894413985329,-1.39589,-0.168266,2.22457
1499894414007353,-1.39581,-0.168376,2.22451
1499894414025309,-1.39597,-0.168424,2.22461
1499894414045375,-1.39582,-0.168451,2.22446
1499894414068311,-1.39531,-0.168305,2.2245
1499894414085320,-1.39532,-0.168277,2.22461
1499894414105328,-1.39607,-0.168554,2.22476
1499894414127336,-1.39652,-0.168604,2.22496
1499894414145316,-1.39652,-0.168604,2.22496
1499894414165337,-1.39609,-0.168616,2.22505
1499894414187321,-1.39609,-0.168616,2.22505
1499894414205319,-1.39697,-0.168476,2.22536
1499894414226320,-1.39762,-0.168178,2.22558
1499894414247394,-1.39762,-0.168178,2.22558
1499894414265323,-1.39781,-0.1682,2.22544
1499894414285342,-1.39781,-0.1682,2.22544
1499894414307367,-1.39782,-0.168275,2.22539
1499894414325326,-1.39776,-0.168356,2.22543
1499894414346334,-1.39782,-0.168275,2.22539
1499894414368343,-1.39823,-0.168216,2.22525
1499894414385330,-1.39823,-0.168216,2.22525
1499894414406340,-1.39839,-0.168264,2.22535
1499894414427348,-1.39839,-0.168264,2.22535
1499894414445333,-1.39839,-0.168264,2.22535
1499894414468344,-1.39869,-0.16806,2.22575
1499894414487366,-1.39869,-0.16806,2.22575
1499894414505338,-1.39859,-0.16799,2.22624
1499894414526338,-1.39841,-0.168058,2.22658
1499894414547398,-1.39834,-0.16814,2.22663
1499894414565344,-1.39835,-0.168215,2.22658
1499894414586348,-1.39835,-0.168215,2.22658
1499894414607385,-1.39812,-0.168411,2.22701
1499894414625344,-1.39812,-0.168411,2.22701
1499894414648384,-1.39806,-0.168568,2.227
1499894414668357,-1.39806,-0.168568,2.227
1499894414685352,-1.39806,-0.168568,2.227
1499894414708361,-1.39806,-0.168568,2.227
1499894414735389,-1.39806,-0.168568,2.227
1499894414745352,-1.39806,-0.168568,2.227
1499894414768365,-1.39806,-0.168568,2.227
1499894414787354,-1.39806,-0.168568,2.227
1499894414805356,-1.39806,-0.168568,2.227
1499894414828356,-1.39806,-0.168568,2.227
1499894414847399,-1.39806,-0.168568,2.227
1499894414865357,-1.39806,-0.168568,2.227
1499894414888364,-1.39806,-0.168568,2.227
1499894414907423,-1.39806,-0.168568,2.227
1499894414925363,-1.39806,-0.168568,2.227
1499894414948399,-1.398,-0.168724,2.227
1499894414967365,-1.39757,-0.168662,2.22714
1499894414985365,-1.39757,-0.168662,2.22714
1499894415008402,-1.39757,-0.168662,2.22714
1499894415027386,-1.39758,-0.168737,2.22709
1499894415045368,-1.39757,-0.168662,2.22714
1499894415068386,-1.39757,-0.168662,2.22714
1499894415087371,-1.39758,-0.168737,2.22709
1499894415105372,-1.39758,-0.168737,2.22709
1499894415128375,-1.39758,-0.168737,2.22709
1499894415147415,-1.39758,-0.168737,2.22709
1499894415165375,-1.39758,-0.168737,2.22709
1499894415192414,-1.39758,-0.168737,2.22709
1499894415207419,-1.39751,-0.168818,2.22713
1499894415225379,-1.39751,-0.168818,2.22713
1499894415248416,-1.39751,-0.168818,2.22713
1499894415269387,-1.39751,-0.168818,2.22713
1499894415285384,-1.39751,-0.168818,2.22713
1499894415308420,-1.39751,-0.168818,2.22713
1499894415329389,-1.39751,-0.168818,2.22713
1499894415345386,-1.39767,-0.168866,2.22724
1499894415368388,-1.39767,-0.168866,2.22724
1499894415389389,-1.39766,-0.168894,2.22714
1499894415412390,-1.39735,-0.169008,2.22747
1499894415428391,-1.39686,-0.169102,2.22761
1499894415449412,-1.39688,-0.169075,2.22771
1499894415465393,-1.39736,-0.169335,2.2281
1499894415488396,-1.39735,-0.169363,2.228
1499894415509397,-1.39735,-0.169363,2.228
1499894415525396,-1.39735,-0.169438,2.22795
1499894415548432,-1.39735,-0.169438,2.22795
1499894415569403,-1.39729,-0.16952,2.228
1499894415585400,-1.39729,-0.16952,2.228
1499894415608434,-1.39729,-0.16952,2.228
1499894415630402,-1.39671,-0.169634,2.22789
1499894415650405,-1.39672,-0.169709,2.22784
1499894415668413,-1.39722,-0.169779,2.22784
1499894415690408,-1.39722,-0.169779,2.22784
1499894415710445,-1.39738,-0.169827,2.22795
1499894415741412,-1.39739,-0.169901,2.2279
1499894415749440,-1.39739,-0.169901,2.2279
1499894415770410,-1.39722,-0.169779,2.22784
1499894415788415,-1.39723,-0.169854,2.22779
1499894415811414,-1.39723,-0.169854,2.22779
1499894415830414,-1.39733,-0.169983,2.22794
1499894415847415,-1.39731,-0.170011,2.22784
1499894415869416,-1.39731,-0.170011,2.22784
1499894415890440,-1.39731,-0.170011,2.22784
1499894415907419,-1.39731,-0.170011,2.22784
1499894415935421,-1.39732,-0.170086,2.22779
1499894415951431,-1.39732,-0.170086,2.22779
1499894415967423,-1.39731,-0.170011,2.22784
1499894415989422,-1.39717,-0.17001,2.22779
1499894416010446,-1.39725,-0.170168,2.22784
1499894416027445,-1.39767,-0.170006,2.22785
1499894416049427,-1.3976,-0.170087,2.22789
1499894416070429,-1.3976,-0.170087,2.22789
1499894416087429,-1.39762,-0.170134,2.22794
1499894416109447,-1.39762,-0.170134,2.22794
1499894416130433,-1.39809,-0.169993,2.22776
1499894416147432,-1.39809,-0.169918,2.22781
1499894416169433,-1.39779,-0.169842,2.22776
1499894416190440,-1.39779,-0.169842,2.22776
1499894416207435,-1.39779,-0.169842,2.22776
1499894416229457,-1.39779,-0.169842,2.22776
1499894416250439,-1.39779,-0.169842,2.22776
1499894416267441,-1.39779,-0.169842,2.22776
1499894416295507,-1.39799,-0.169849,2.2283
1499894416311455,-1.39769,-0.17023,2.22863
1499894416327463,-1.39769,-0.17023,2.22863
1499894416349447,-1.39769,-0.17023,2.22863
1499894416370444,-1.39769,-0.17023,2.22863
1499894416387451,-1.39769,-0.17023,2.22863
1499894416409455,-1.39769,-0.170305,2.22858
1499894416430447,-1.39784,-0.17038,2.22858
1499894416447454,-1.39721,-0.170399,2.22872
1499894416469450,-1.39667,-0.170725,2.2288
1499894416490455,-1.39595,-0.170839,2.22863
1499894416507453,-1.39595,-0.170839,2.22863
1499894416529454,-1.39595,-0.170839,2.22863
1499894416552456,-1.39661,-0.170957,2.22874
1499894416567458,-1.39661,-0.170957,2.22874
1499894416589460,-1.39592,-0.171133,2.22887
1499894416613468,-1.39592,-0.171133,2.22887
