timestamp,roll,pitch,yaw
1499894135071440,-1.52852,-0.074797,2.55231
1499894135087439,-1.52911,-0.0742613,2.55122
1499894135111447,-1.5247,-0.0736099,2.54966
1499894135131442,-1.51904,-0.0718729,2.54856
1499894135147442,-1.51315,-0.0694536,2.54846
1499894135170444,-1.50957,-0.0665596,2.54822
1499894135191459,-1.50978,-0.0643505,2.54846
1499894135207448,-1.50803,-0.0624762,2.54832
1499894135230447,-1.50343,-0.0602181,2.54671
1499894135252447,-1.50308,-0.0569086,2.54628
1499894135267457,-1.50544,-0.0544221,2.54732
1499894135290451,-1.50668,-0.0532638,2.54791
1499894135312452,-1.50483,-0.0522704,2.54791
1499894135327461,-1.49864,-0.0513792,2.5476
1499894135350455,-1.49412,-0.0502836,2.54871
1499894135374456,-1.4922,-0.0495692,2.5501
1499894135387457,-1.49351,-0.0499919,2.55065
1499894135411464,-1.49098,-0.049656,2.55072
1499894135432458,-1.48682,-0.0493129,2.55093
1499894135447464,-1.48494,-0.0488374,2.55135
1499894135470464,-1.48494,-0.0488374,2.55135
1499894135492463,-1.4873,-0.0490422,2.55135
1499894135507469,-1.48971,-0.0492257,2.55205
1499894135530464,-1.48784,-0.0493182,2.55238
1499894135552469,-1.4856,-0.0489815,2.55197
1499894135567487,-1.48763,-0.048518,2.55206
1499894135590474,-1.49081,-0.0486662,2.55248
1499894135612470,-1.49202,-0.0496003,2.55281
1499894135627470,-1.49043,-0.0503796,2.55271
1499894135650476,-1.48919,-0.050338,2.55215
1499894135672473,-1.48942,-0.0499331,2.55175
1499894135693492,-1.49124,-0.049607,2.55176
1499894135711475,-1.49305,-0.0497879,2.55204
1499894135732476,-1.49259,-0.0501037,2.5521
1499894135753516,-1.49126,-0.0502327,2.55168
1499894135770497,-1.49126,-0.0502327,2.55168
1499894135792480,-1.49138,-0.050368,2.55174
1499894135813482,-1.49142,-0.0502028,2.55175
1499894135830483,-1.49142,-0.0502028,2.55175
1499894135852483,-1.49207,-0.050541,2.55167
1499894135875488,-1.49203,-0.0506262,2.55174
1499894135890487,-1.49186,-0.0505981,2.55167
1499894135912486,-1.49222,-0.0507949,2.55139
1499894135933487,-1.49222,-0.0507949,2.55139
1499894135950494,-1.49266,-0.0510302,2.55145
1499894135980491,-1.49342,-0.0511616,2.5518
1499894135994495,-1.4931,-0.0509015,2.55194
1499894136011493,-1.49214,-0.0508634,2.55166
1499894136032493,-1.49255,-0.050793,2.55153
1499894136053494,-1.49291,-0.0508079,2.55146
1499894136070495,-1.49291,-0.0508298,2.55139
1499894136092498,-1.49266,-0.0507463,2.55181
1499894136113499,-1.49266,-0.0507463,2.55181
1499894136130519,-1.49195,-0.0506096,2.55132
1499894136152500,-1.49208,-0.0503758,2.55105
1499894136175506,-1.49293,-0.050439,2.55113
1499894136190508,-1.49361,-0.0503939,2.5512
1499894136212504,-1.49362,-0.050372,2.55127
1499894136235505,-1.49345,-0.0503439,2.5512
1499894136250512,-1.49345,-0.0503439,2.5512
1499894136272510,-1.49345,-0.0503439,2.5512
1499894136295510,-1.49345,-0.0503439,2.5512
1499894136310510,-1.49346,-0.0504239,2.55113
1499894136332512,-1.49391,-0.0501885,2.551
1499894136355518,-1.49391,-0.0501885,2.551
1499894136369513,-1.49391,-0.0501885,2.551
1499894136392515,-1.49391,-0.0501885,2.551
1499894136415541,-1.49375,-0.0501604,2.55093
1499894136429516,-1.49428,-0.0502035,2.55093
1499894136452518,-1.49471,-0.0503589,2.55107
1499894136475518,-1.49492,-0.0503018,2.55107
1499894136489525,-1.49442,-0.0504621,2.55141
1499894136512521,-1.49442,-0.0504621,2.55141
1499894136535531,-1.49442,-0.0505422,2.55134
1499894136550540,-1.49442,-0.0505422,2.55134
1499894136572525,-1.49442,-0.0505422,2.55134
1499894136594526,-1.49442,-0.0505422,2.55134
1499894136616543,-1.49442,-0.0505422,2.55134
1499894136632528,-1.49348,-0.0508096,2.55126
1499894136655535,-1.49348,-0.0508897,2.55118
1499894136676540,-1.49348,-0.0508897,2.55118
1499894136692532,-1.49348,-0.0508897,2.55118
1499894136715539,-1.49348,-0.0508897,2.55118
1499894136736567,-1.49348,-0.0508897,2.55118
1499894136752562,-1.49349,-0.0508677,2.55126
1499894136775554,-1.49389,-0.0509216,2.55091
1499894136796539,-1.49467,-0.0506042,2.55099
1499894136818540,-1.49467,-0.0506042,2.55099
1499894136835543,-1.49462,-0.0506893,2.55106
1499894136856606,-1.49446,-0.0506613,2.55099
1499894136872542,-1.4945,-0.0505761,2.55092
1499894136895544,-1.49451,-0.0505541,2.55099
1499894136916550,-1.49451,-0.0505541,2.55099
1499894136932546,-1.49478,-0.0507394,2.55106
1499894136955567,-1.49478,-0.0507394,2.55106
1499894136976602,-1.49478,-0.0507394,2.55106
1499894136992550,-1.4943,-0.0506693,2.55099
1499894137015561,-1.4935,-0.050681,2.55071
1499894137036586,-1.4935,-0.050681,2.55071
1499894137052554,-1.49398,-0.0508534,2.55063
1499894137075576,-1.49398,-0.0509334,2.55056
1499894137097556,-1.49398,-0.0508534,2.55063
1499894137112556,-1.49398,-0.0508534,2.55063
1499894137135561,-1.49411,-0.0508602,2.55015
1499894137157559,-1.49489,-0.0509076,2.54981
1499894137172562,-1.49525,-0.0509229,2.54974
1499894137195562,-1.49525,-0.0509229,2.54974
1499894137217562,-1.49447,-0.0510796,2.5498
1499894137238579,-1.49448,-0.0510576,2.54987
1499894137255584,-1.49468,-0.0511248,2.54966
1499894137277565,-1.49472,-0.0510397,2.54959
1499894137291613,-1.49468,-0.0511248,2.54966
1499894137315581,-1.49468,-0.0511248,2.54966
1499894137337578,-1.49469,-0.0511829,2.54966
1499894137351616,-1.49516,-0.0514356,2.54952
1499894137375577,-1.495,-0.0513854,2.54952
1499894137397594,-1.495,-0.0513854,2.54952
1499894137411576,-1.495,-0.0513854,2.54952
1499894137435575,-1.495,-0.0513854,2.54952
1499894137457576,-1.495,-0.0513854,2.54952
1499894137471597,-1.495,-0.0513854,2.54952
1499894137495581,-1.49503,-0.0515888,2.54986
1499894137517582,-1.49474,-0.051852,2.55006
1499894137531582,-1.494,-0.0519237,2.55005
1499894137555581,-1.494,-0.0519237,2.55005
1499894137577582,-1.494,-0.0519237,2.55005
1499894137600584,-1.494,-0.0520038,2.54998
1499894137615617,-1.49384,-0.0519536,2.54998
1499894137637587,-1.49384,-0.0519536,2.54998
1499894137658644,-1.4938,-0.0520388,2.55005
1499894137675592,-1.4938,-0.0520388,2.55005
1499894137697592,-1.49412,-0.0521972,2.55005
1499894137718592,-1.49412,-0.0522192,2.54998
1499894137735592,-1.49396,-0.052169,2.54998
1499894137757593,-1.49428,-0.0523495,2.54991
1499894137778594,-1.49424,-0.0525147,2.5499
1499894137795596,-1.49428,-0.0523495,2.54991
1499894137817597,-1.49428,-0.0523495,2.54991
1499894137838614,-1.49411,-0.0523213,2.54984
1499894137855622,-1.49412,-0.0523794,2.54984
1499894137885601,-1.49428,-0.0524516,2.54976
1499894137898673,-1.49508,-0.0526805,2.54983
1499894137922603,-1.49508,-0.0527025,2.54976
1499894137937611,-1.49455,-0.0527973,2.54969
1499894137958652,-1.49455,-0.0527973,2.54969
1499894137975607,-1.49439,-0.0527471,2.54969
1499894137997623,-1.49439,-0.0527471,2.54969
1499894138027608,-1.49439,-0.0527471,2.54969
1499894138035631,-1.49439,-0.0527471,2.54969
1499894138057610,-1.49439,-0.0527471,2.54969
1499894138080612,-1.49439,-0.0527471,2.54969
1499894138095613,-1.49423,-0.0526969,2.54969
1499894138117614,-1.49423,-0.0526969,2.54969
1499894138140617,-1.49444,-0.052662,2.54962
1499894138155622,-1.49496,-0.0526474,2.54963
1499894138177618,-1.49496,-0.0526474,2.54963
1499894138200620,-1.49453,-0.0524116,2.54956
1499894138214621,-1.49453,-0.0524116,2.54956
1499894138238621,-1.49436,-0.0523834,2.54949
1499894138266622,-1.49471,-0.0528475,2.54969
1499894138281627,-1.49471,-0.0528475,2.54969
1499894138303666,-1.4943,-0.0529975,2.54975
1499894138320645,-1.4943,-0.0529975,2.54975
1499894138334630,-1.49414,-0.0529473,2.54975
1499894138357633,-1.49414,-0.0530274,2.54968
1499894138380629,-1.49414,-0.0530274,2.54968
1499894138394630,-1.49463,-0.0529957,2.54989
1499894138417634,-1.49463,-0.0529957,2.54989
1499894138440637,-1.49389,-0.0532275,2.54974
1499894138455646,-1.49373,-0.0531993,2.54967
1499894138477636,-1.49433,-0.0534632,2.54981
1499894138500636,-1.49465,-0.0533814,2.55002
1499894138521658,-1.49461,-0.0534665,2.55009
1499894138537644,-1.49461,-0.0535466,2.55002
1499894138560640,-1.49461,-0.0535466,2.55002
1499894138581642,-1.4953,-0.0535601,2.55009
1499894138597652,-1.49529,-0.053582,2.55002
1499894138619647,-1.49481,-0.0535117,2.54995
1499894138641689,-1.49421,-0.05343,2.5496
1499894138657651,-1.49422,-0.0534081,2.54967
1499894138680647,-1.4949,-0.0533634,2.54975
1499894138702652,-1.4949,-0.0533634,2.54975
1499894138717650,-1.49486,-0.0534266,2.54988
1499894138740650,-1.49433,-0.0533612,2.54995
1499894138762651,-1.49417,-0.053311,2.54995
1499894138777652,-1.49417,-0.053311,2.54995
1499894138800659,-1.4949,-0.0529989,2.55017
1499894138821675,-1.49511,-0.0527235,2.55032
1499894138837662,-1.49499,-0.0525883,2.55025
1499894138860674,-1.49499,-0.0525883,2.55025
1499894138880662,-1.495,-0.0525664,2.55032
1499894138897659,-1.49483,-0.0525382,2.55025
1499894138920681,-1.49519,-0.0528198,2.55066
1499894138941727,-1.49502,-0.0528718,2.55052
1499894138957668,-1.49454,-0.0527214,2.55052
1499894138979665,-1.49438,-0.0526713,2.55052
1499894139002666,-1.49438,-0.0526713,2.55052
1499894139017669,-1.49438,-0.0526713,2.55052
1499894139039708,-1.49438,-0.0526713,2.55052
1499894139062669,-1.49438,-0.0526713,2.55052
1499894139077688,-1.49438,-0.0526713,2.55052
1499894139099711,-1.49434,-0.0528365,2.55052
1499894139122674,-1.49433,-0.0527564,2.55059
1499894139136747,-1.49421,-0.0526431,2.55045
1499894139160674,-1.49466,-0.0529368,2.55052
1499894139182678,-1.49466,-0.0529368,2.55052
1499894139196680,-1.49461,-0.0530219,2.55058
1499894139219681,-1.49466,-0.0529368,2.55052
1499894139242680,-1.49502,-0.0528718,2.55052
1499894139256727,-1.49554,-0.0527768,2.5506
1499894139279682,-1.49554,-0.0527768,2.5506
1499894139302683,-1.49486,-0.0528217,2.55052
1499894139316706,-1.49486,-0.0528217,2.55052
1499894139339725,-1.49514,-0.0529049,2.55073
1499894139362687,-1.49557,-0.0529799,2.55094
1499894139376708,-1.49557,-0.0529799,2.55094
1499894139399729,-1.49557,-0.0529799,2.55094
1499894139422690,-1.49558,-0.0530382,2.55094
1499894139436706,-1.49558,-0.0530382,2.55094
1499894139459733,-1.49541,-0.05301,2.55087
1499894139482693,-1.49537,-0.0530951,2.55093
1499894139503731,-1.49537,-0.0530951,2.55093
1499894139520717,-1.49537,-0.0531753,2.55086
1499894139542698,-1.49537,-0.0531534,2.55093
1499894139563700,-1.49537,-0.0531534,2.55093
1499894139580700,-1.49537,-0.0531534,2.55093
1499894139602703,-1.49537,-0.0531534,2.55093
1499894139623722,-1.49484,-0.0532704,2.55079
1499894139639742,-1.49484,-0.0532704,2.55079
1499894139662704,-1.49468,-0.0532203,2.55079
1499894139683763,-1.49521,-0.0531252,2.55086
1499894139700732,-1.49521,-0.0531252,2.55086
1499894139722708,-1.49489,-0.053025,2.55086
1499894139743734,-1.49489,-0.053025,2.55086
1499894139759710,-1.49509,-0.0529098,2.55087
1499894139782710,-1.49509,-0.0529098,2.55087
1499894139803755,-1.49505,-0.0529949,2.55093
1499894139820731,-1.49505,-0.0530751,2.55086
1499894139842716,-1.49505,-0.0530751,2.55086
1499894139863716,-1.49534,-0.0527096,2.5508
1499894139879718,-1.49534,-0.0527096,2.5508
1499894139902717,-1.49518,-0.0526595,2.5508
1499894139924720,-1.49518,-0.0527396,2.55073
1499894139939719,-1.49518,-0.0527396,2.55073
1499894139962721,-1.49482,-0.0528047,2.55073
1499894139984749,-1.49482,-0.0528047,2.55073
1499894139999761,-1.49482,-0.0528047,2.55073
1499894140022724,-1.49434,-0.0526543,2.55073
1499894140044727,-1.49365,-0.0526411,2.55066
1499894140073729,-1.49296,-0.0526058,2.55065
1499894140082728,-1.4928,-0.0525776,2.55058
1499894140105735,-1.4928,-0.0525557,2.55066
1499894140119731,-1.4928,-0.0525557,2.55066
1499894140142732,-1.4928,-0.0525557,2.55066
1499894140165737,-1.4928,-0.0525557,2.55066
1499894140179734,-1.4928,-0.0525557,2.55066
1499894140202735,-1.49264,-0.0525056,2.55066
1499894140225736,-1.49264,-0.0525056,2.55066
1499894140239737,-1.49264,-0.0525056,2.55066
1499894140262738,-1.49283,-0.0527594,2.551
1499894140290808,-1.49297,-0.0530183,2.55147
1499894140299743,-1.49297,-0.0530984,2.5514
1499894140322742,-1.49229,-0.0530634,2.5514
1499894140344745,-1.49213,-0.0530134,2.5514
1499894140359745,-1.49289,-0.0534071,2.55147
1499894140382745,-1.49316,-0.0535923,2.55153
1499894140404785,-1.49247,-0.0535793,2.55146
1499894140426803,-1.49183,-0.0536411,2.55118
1499894140442749,-1.49144,-0.0536041,2.55069
1499894140464754,-1.49217,-0.0536341,2.55055
1499894140485758,-1.49322,-0.0536626,2.55056
1499894140502756,-1.49317,-0.0537696,2.55056
1499894140524771,-1.49233,-0.0537643,2.55048
1499894140546757,-1.49184,-0.0537158,2.55034
1499894140562755,-1.49217,-0.0537942,2.55041
1499894140585756,-1.49265,-0.0537845,2.55055
1499894140606767,-1.49265,-0.0538646,2.55048
1499894140622758,-1.49228,-0.0537694,2.55062
1499894140644761,-1.49229,-0.0538276,2.55062
1499894140665761,-1.49208,-0.0538846,2.55062
1499894140682771,-1.49208,-0.0538846,2.55062
1499894140704833,-1.49208,-0.0538846,2.55062
1499894140726786,-1.49208,-0.0539647,2.55055
1499894140742767,-1.49203,-0.0540499,2.55061
1499894140764795,-1.49203,-0.0540499,2.55061
1499894140786772,-1.49203,-0.0540499,2.55061
1499894140803777,-1.49192,-0.0539145,2.55055
1499894140824798,-1.49192,-0.0539145,2.55055
1499894140847788,-1.49192,-0.0538345,2.55062
1499894140862773,-1.49192,-0.0539145,2.55055
1499894140884807,-1.49192,-0.0539145,2.55055
1499894140907784,-1.49187,-0.0539997,2.55061
1499894140922776,-1.49187,-0.0539997,2.55061
1499894140944796,-1.49187,-0.0539997,2.55061
1499894140967779,-1.49171,-0.0539496,2.55061
1499894140982791,-1.49171,-0.0539496,2.55061
1499894141004840,-1.49171,-0.0539496,2.55061
1499894141027782,-1.49171,-0.0539496,2.55061
1499894141041783,-1.49172,-0.0540297,2.55054
1499894141065791,-1.49156,-0.0539795,2.55054
1499894141087786,-1.49156,-0.0539795,2.55054
1499894141101793,-1.49156,-0.0539795,2.55054
1499894141124787,-1.49151,-0.0540648,2.55061
1499894141147789,-1.49151,-0.0540648,2.55061
1499894141161791,-1.49151,-0.0540648,2.55061
1499894141184794,-1.49135,-0.0541165,2.55047
1499894141207793,-1.49183,-0.054245,2.55054
1499894141221794,-1.49195,-0.0543804,2.5506
1499894141244796,-1.49178,-0.0543521,2.55053
1499894141267796,-1.49178,-0.0544321,2.55046
1499894141281797,-1.49179,-0.0544103,2.55053
1499894141304860,-1.49174,-0.0544955,2.5506
1499894141327799,-1.49174,-0.0544955,2.5506
1499894141341801,-1.49174,-0.0545756,2.55053
1499894141364808,-1.49158,-0.0545473,2.55046
1499894141387806,-1.49158,-0.0545254,2.55053
1499894141408868,-1.49154,-0.0546107,2.5506
1499894141424808,-1.49154,-0.0546107,2.5506
