timestamp,roll,pitch,yaw
1499876520935510,-1.08882,-0.429968,-0.351119
1499876520958509,-1.0869,-0.428308,-0.349849
1499876520973510,-1.08536,-0.428698,-0.348932
1499876520997510,-1.08429,-0.42905,-0.34885
1499876521018515,-1.08133,-0.428514,-0.349638
1499876521033529,-1.0833,-0.42634,-0.349142
1499876521056514,-1.08563,-0.424728,-0.348
1499876521111532,-1.0837,-0.423568,-0.346588
1499876521111532,-1.07846,-0.422723,-0.345437
1499876521121563,-1.0753,-0.422963,-0.343833
1499876521138568,-1.07481,-0.422914,-0.341667
1499876521154542,-1.07519,-0.422436,-0.339777
1499876521185522,-1.07475,-0.422207,-0.338449
1499876521220566,-1.07379,-0.422172,-0.337684
1499876521230568,-1.07199,-0.422471,-0.336215
1499876521237530,-1.0697,-0.422336,-0.3352
1499876521258588,-1.0664,-0.422164,-0.335056
1499876521274529,-1.06305,-0.422477,-0.335266
1499876521305565,-1.06218,-0.422628,-0.334985
1499876521319534,-1.06436,-0.421958,-0.334502
1499876521342547,-1.06766,-0.420945,-0.333645
1499876521365572,-1.0663,-0.420905,-0.334005
1499876521379535,-1.06096,-0.421963,-0.334502
1499876521402547,-1.05937,-0.423189,-0.334406
1499876521425559,-1.06111,-0.423195,-0.333588
1499876521439537,-1.06111,-0.423265,-0.333713
1499876521462539,-1.05784,-0.423404,-0.334793
1499876521485578,-1.05438,-0.423784,-0.335868
1499876521506560,-1.0549,-0.424633,-0.336061
1499876521522541,-1.05661,-0.424739,-0.335671
1499876521545548,-1.05563,-0.424707,-0.336575
1499876521559545,-1.05302,-0.424782,-0.33817
1499876521582549,-1.05228,-0.425133,-0.339094
1499876521605585,-1.05352,-0.425127,-0.338984
1499876521626586,-1.05305,-0.424657,-0.339128
1499876521642550,-1.05026,-0.423974,-0.340291
1499876521665583,-1.04953,-0.423899,-0.341472
1499876521686597,-1.05183,-0.424102,-0.340939
1499876521702552,-1.05336,-0.424137,-0.339567
1499876521725591,-1.05087,-0.423644,-0.339229
1499876521746600,-1.0471,-0.4235,-0.340802
1499876521762560,-1.04967,-0.423386,-0.34174
1499876521785596,-1.05551,-0.42286,-0.340928
1499876521806602,-1.05628,-0.421809,-0.339765
1499876521822563,-1.05086,-0.421607,-0.339874
1499876521845598,-1.04726,-0.422315,-0.341131
1499876521866631,-1.04844,-0.422501,-0.342543
1499876521882563,-1.05468,-0.421642,-0.341647
1499876521905602,-1.0549,-0.420155,-0.34052
1499876521926606,-1.05072,-0.419483,-0.340955
1499876521942566,-1.04926,-0.4204,-0.341511
1499876521965605,-1.05241,-0.420412,-0.341444
1499876521986616,-1.05531,-0.419891,-0.341079
1499876522002578,-1.05445,-0.419371,-0.340863
1499876522025571,-1.05177,-0.419227,-0.340973
1499876522047572,-1.05122,-0.419472,-0.341633
1499876522068574,-1.05484,-0.419955,-0.341426
1499876522085594,-1.05675,-0.419821,-0.340531
1499876522107577,-1.05427,-0.419584,-0.341068
1499876522122580,-1.05042,-0.420261,-0.343092
1499876522145596,-1.0523,-0.42091,-0.344427
1499876522167579,-1.0575,-0.421135,-0.34374
1499876522182587,-1.05805,-0.420533,-0.342945
1499876522211601,-1.05413,-0.42021,-0.343611
1499876522233644,-1.05157,-0.420153,-0.344981
1499876522250623,-1.05369,-0.420399,-0.345768
1499876522271641,-1.05542,-0.42031,-0.346704
1499876522287588,-1.05451,-0.419804,-0.346762
1499876522310595,-1.0534,-0.420142,-0.347143
1499876522331654,-1.05343,-0.420157,-0.348352
1499876522347610,-1.05481,-0.420469,-0.349393
1499876522370630,-1.05646,-0.420276,-0.349453
1499876522391644,-1.05687,-0.419832,-0.348768
1499876522407613,-1.05527,-0.419544,-0.348351
1499876522430598,-1.05389,-0.419236,-0.348486
1499876522451658,-1.05449,-0.418979,-0.348728
1499876522467596,-1.05516,-0.418675,-0.348389
1499876522490636,-1.05472,-0.418748,-0.348248
1499876522512613,-1.05329,-0.419031,-0.348683
1499876522527600,-1.05329,-0.419031,-0.348683
1499876522550630,-1.05342,-0.419012,-0.348821
1499876522572615,-1.05342,-0.419012,-0.348821
1499876522587608,-1.05342,-0.419012,-0.348821
1499876522610645,-1.0526,-0.419254,-0.349386
1499876522632609,-1.05189,-0.419218,-0.350383
1499876522647607,-1.05202,-0.419377,-0.350591
1499876522670648,-1.05314,-0.418973,-0.350084
1499876522692609,-1.05225,-0.418683,-0.350028
1499876522706651,-1.0501,-0.418423,-0.350903
1499876522730651,-1.04922,-0.418462,-0.351856
1499876522752635,-1.05069,-0.418591,-0.352066
1499876522766630,-1.05162,-0.41836,-0.351946
1499876522790633,-1.05069,-0.418522,-0.351941
1499876522812620,-1.04991,-0.41842,-0.352399
1499876522826646,-1.04949,-0.418535,-0.353254
1499876522850648,-1.05056,-0.418721,-0.353049
1499876522872620,-1.05056,-0.418721,-0.353049
1499876522886647,-1.05009,-0.418456,-0.353565
1499876522910629,-1.04944,-0.418334,-0.354162
1499876522932633,-1.05045,-0.418388,-0.354469
1499876522953675,-1.05166,-0.418202,-0.354264
1499876522970631,-1.05167,-0.417778,-0.35452
1499876522992631,-1.05028,-0.417713,-0.354848
1499876523013697,-1.05011,-0.41768,-0.354859
1499876523030636,-1.05134,-0.417821,-0.355006
1499876523052634,-1.05211,-0.417775,-0.354786
1499876523073674,-1.05211,-0.417775,-0.354786
1499876523090673,-1.05214,-0.417649,-0.354047
1499876523112648,-1.05142,-0.417638,-0.354173
1499876523133707,-1.05142,-0.417638,-0.354173
1499876523150640,-1.05142,-0.417638,-0.354173
1499876523172650,-1.05142,-0.417638,-0.354173
1499876523193640,-1.05154,-0.417333,-0.354299
1499876523210643,-1.05154,-0.417333,-0.354299
1499876523232656,-1.05155,-0.417442,-0.354243
1499876523253705,-1.05176,-0.417132,-0.354125
1499876523270648,-1.05118,-0.416897,-0.354014
1499876523292647,-1.05118,-0.416897,-0.354014
1499876523313657,-1.05176,-0.416777,-0.353987
1499876523330652,-1.05243,-0.416544,-0.353772
1499876523352684,-1.05243,-0.416544,-0.353772
1499876523373719,-1.05118,-0.416542,-0.353875
1499876523390655,-1.05122,-0.416553,-0.353907
1499876523412658,-1.05242,-0.416504,-0.353954
1499876523433684,-1.05241,-0.416396,-0.35401
1499876523457661,-1.0518,-0.416543,-0.353824
1499876523472664,-1.05086,-0.416733,-0.354124
1499876523495659,-1.05084,-0.416435,-0.354599
1499876523510663,-1.05112,-0.415906,-0.355007
1499876523532661,-1.05112,-0.415906,-0.355007
1499876523555663,-1.05053,-0.415739,-0.355021
1499876523570663,-1.0499,-0.415589,-0.355309
1499876523592672,-1.04971,-0.415583,-0.355627
1499876523615671,-1.0503,-0.415179,-0.356107
1499876523629667,-1.05104,-0.414836,-0.356363
1499876523652679,-1.05235,-0.41444,-0.355541
1499876523658691,-1.05263,-0.413839,-0.354648
1499876523680669,-1.05155,-0.41279,-0.354155
1499876523696685,-1.0507,-0.411871,-0.353977
1499876523718694,-1.05031,-0.410961,-0.354097
1499876523740738,-1.05031,-0.410961,-0.354097
1499876523756684,-1.05051,-0.410829,-0.35353
1499876523778675,-1.05074,-0.410668,-0.353175
1499876523800715,-1.05091,-0.410524,-0.353096
1499876523816691,-1.05074,-0.410491,-0.353107
1499876523838699,-1.05073,-0.41056,-0.353232
1499876523860713,-1.05176,-0.410694,-0.353181
1499876523876691,-1.05176,-0.410694,-0.353181
1499876523898715,-1.05099,-0.410523,-0.35351
1499876523920750,-1.05099,-0.410523,-0.35351
1499876523936695,-1.05162,-0.41017,-0.353323
1499876523958712,-1.05162,-0.41017,-0.353323
1499876523980755,-1.05103,-0.41018,-0.353404
1499876523996699,-1.05009,-0.410153,-0.353812
1499876524018708,-1.05052,-0.410149,-0.354079
1499876524040740,-1.05109,-0.410275,-0.354248
1499876524056705,-1.05126,-0.410309,-0.354237
1499876524078694,-1.05046,-0.410234,-0.354479
1499876524100738,-1.04938,-0.410007,-0.354861
1499876524117695,-1.05013,-0.410384,-0.354907
1499876524137746,-1.05013,-0.410276,-0.354963
1499876524160699,-1.0497,-0.410279,-0.354696
1499876524176709,-1.04987,-0.410136,-0.354616
1499876524198724,-1.04936,-0.410035,-0.355167
1499876524220744,-1.04898,-0.409985,-0.355982
1499876524245703,-1.04942,-0.409913,-0.356124
1499876524257715,-1.04942,-0.409736,-0.356055
1499876524280779,-1.04885,-0.409609,-0.355886
1499876524297705,-1.04885,-0.409609,-0.355886
1499876524317739,-1.04884,-0.4095,-0.355942
1499876524340772,-1.04884,-0.4095,-0.355942
1499876524356720,-1.04767,-0.409303,-0.356215
1499876524377712,-1.04705,-0.409301,-0.356265
1499876524400776,-1.04793,-0.409306,-0.356312
1499876524418714,-1.04807,-0.409328,-0.35627
1499876524438753,-1.04753,-0.408996,-0.356244
1499876524460716,-1.04689,-0.408736,-0.356587
1499876524478716,-1.04676,-0.408823,-0.356573
1499876524497775,-1.04783,-0.408725,-0.35636
1499876524523745,-1.04779,-0.408713,-0.356328
1499876524538720,-1.0465,-0.408398,-0.356212
1499876524557731,-1.04601,-0.408555,-0.35647
1499876524580788,-1.04676,-0.408823,-0.356573
1499876524598724,-1.04735,-0.409139,-0.356324
1499876524618752,-1.04706,-0.409451,-0.356028
1499876524640767,-1.04587,-0.409432,-0.355853
1499876524658726,-1.04525,-0.409607,-0.355972
1499876524677760,-1.04569,-0.409643,-0.356058
1499876524700770,-1.04613,-0.409965,-0.356157
1499876524718735,-1.04551,-0.409923,-0.356388
1499876524737758,-1.0455,-0.409815,-0.356444
1499876524760733,-1.0455,-0.409815,-0.356444
1499876524778741,-1.04551,-0.409746,-0.356319
1499876524797800,-1.045,-0.409645,-0.35687
1499876524820765,-1.04515,-0.409489,-0.357277
1499876524838746,-1.04515,-0.409489,-0.357277
1499876524857801,-1.0452,-0.408901,-0.356975
1499876524880782,-1.0452,-0.409078,-0.357044
1499876524902780,-1.0452,-0.40901,-0.356919
1499876524917805,-1.04491,-0.408246,-0.357213
1499876524940810,-1.04525,-0.407633,-0.35722
1499876524962767,-1.04525,-0.407633,-0.35722
1499876524977778,-1.04485,-0.407146,-0.357082
1499876525000790,-1.04485,-0.407146,-0.357082
1499876525022786,-1.04485,-0.406969,-0.357013
1499876525039750,-1.04414,-0.406889,-0.35701
1499876525060789,-1.04414,-0.406998,-0.356954
1499876525082790,-1.04411,-0.406987,-0.356923
1499876525099764,-1.04411,-0.406987,-0.356923
1499876525120796,-1.04411,-0.406987,-0.356923
1499876525143767,-1.04387,-0.406492,-0.356955
1499876525159755,-1.04328,-0.406176,-0.357202
1499876525180824,-1.04328,-0.406285,-0.357146
1499876525205759,-1.04311,-0.406252,-0.357157
1499876525219759,-1.0431,-0.406143,-0.357213
1499876525240787,-1.0431,-0.406143,-0.357213
1499876525262803,-1.04243,-0.406293,-0.357787
1499876525279771,-1.04243,-0.406225,-0.357662
1499876525300828,-1.04247,-0.406237,-0.357693
1499876525322811,-1.04152,-0.406099,-0.358156
1499876525339767,-1.04089,-0.405906,-0.358622
1499876525360768,-1.04087,-0.405431,-0.359025
1499876525382770,-1.04087,-0.405431,-0.359025
1499876525400771,-1.04045,-0.404862,-0.359247
1499876525420813,-1.03894,-0.404421,-0.359469
1499876525442807,-1.03831,-0.40427,-0.359754
1499876525460773,-1.03831,-0.40427,-0.359754
1499876525480834,-1.03831,-0.40427,-0.359754
1499876525510777,-1.03802,-0.403858,-0.360183
1499876525520811,-1.03747,-0.403376,-0.360391
1499876525540819,-1.03744,-0.403365,-0.360359
1499876525562818,-1.03744,-0.403298,-0.360234
1499876525580781,-1.03744,-0.403298,-0.360234
1499876525600823,-1.03744,-0.403189,-0.36029
1499876525622803,-1.03669,-0.403491,-0.360214
1499876525640785,-1.0359,-0.403877,-0.360538
1499876525660786,-1.03572,-0.403843,-0.360549
1499876525682825,-1.03634,-0.40413,-0.360515
1499876525700787,-1.03635,-0.404213,-0.360153
1499876525720804,-1.03597,-0.404379,-0.359682
1499876525742828,-1.03555,-0.404603,-0.359304
1499876525761807,-1.0353,-0.404331,-0.358706
1499876525780854,-1.03523,-0.403983,-0.358153
1499876525802833,-1.03536,-0.403462,-0.35773
1499876525820794,-1.03499,-0.403034,-0.356924
1499876525840838,-1.03506,-0.402926,-0.356219
1499876525862835,-1.03499,-0.402729,-0.355431
1499876525880797,-1.03493,-0.402708,-0.354713
1499876525900862,-1.03606,-0.402785,-0.353811
1499876525922836,-1.03613,-0.403138,-0.35319
1499876525940803,-1.03554,-0.403481,-0.352588
1499876525960802,-1.0354,-0.404538,-0.352045
1499876525982842,-1.03601,-0.405615,-0.351411
1499876526000813,-1.0365,-0.406319,-0.350679
1499876526021824,-1.03694,-0.407186,-0.349985
