timestamp,x,y,z,w
1499894460506999,-0.202454,-0.61554,0.667175,0.367432
1499894460525010,-0.202576,-0.615234,0.667358,0.367432
1499894460548001,-0.202576,-0.614868,0.667725,0.367493
1499894460567003,-0.202637,-0.614441,0.66803,0.367554
1499894460585003,-0.202759,-0.614258,0.668213,0.367432
1499894460608012,-0.202515,-0.613831,0.668945,0.367126
1499894460627005,-0.202148,-0.612732,0.670227,0.36676
1499894460645006,-0.202209,-0.610535,0.672485,0.366211
1499894460668008,-0.203064,-0.610168,0.673157,0.365112
1499894460687049,-0.20343,-0.609741,0.674255,0.363525
1499894460705009,-0.203369,-0.609497,0.67572,0.361267
1499894460728011,-0.203674,-0.607971,0.67804,0.359375
1499894460749013,-0.203918,-0.603821,0.681824,0.359131
1499894460770014,-0.204407,-0.601563,0.684021,0.358337
1499894460788016,-0.205322,-0.601563,0.684387,0.357239
1499894460809017,-0.206116,-0.600769,0.685181,0.356506
1499894460825016,-0.20636,-0.599976,0.686035,0.356079
1499894460848019,-0.206238,-0.599121,0.68689,0.356018
1499894460869023,-0.206421,-0.598511,0.687134,0.356445
1499894460899022,-0.20636,-0.599304,0.686401,0.356567
1499894460908061,-0.205933,-0.600525,0.685486,0.356506
1499894460928043,-0.205322,-0.600952,0.685242,0.356506
1499894460944023,-0.204712,-0.600891,0.685303,0.356812
1499894460967029,-0.204651,-0.600708,0.685303,0.3573
1499894460995065,-0.205017,-0.601196,0.684692,0.357422
1499894461004027,-0.205688,-0.60199,0.683899,0.357117
1499894461027049,-0.206299,-0.602356,0.683594,0.356812
1499894461049030,-0.206726,-0.602173,0.683716,0.356689
1499894461064051,-0.207092,-0.601929,0.683777,0.356628
1499894461087033,-0.207458,-0.602234,0.683472,0.356567
1499894461109033,-0.207642,-0.6026,0.683167,0.356323
1499894461124055,-0.20752,-0.603027,0.683044,0.356079
1499894461147039,-0.20697,-0.602722,0.68335,0.356201
1499894461169050,-0.206421,-0.602478,0.683594,0.356506
1499894461184038,-0.206116,-0.6026,0.683472,0.35675
1499894461207039,-0.205994,-0.602844,0.683228,0.356812
1499894461229040,-0.205994,-0.602844,0.683228,0.356812
1499894461244046,-0.205994,-0.602844,0.683228,0.356812
1499894461267043,-0.206116,-0.602722,0.683228,0.356934
1499894461289049,-0.206299,-0.602539,0.683228,0.357178
1499894461304044,-0.206665,-0.602905,0.682739,0.357239
1499894461327050,-0.206909,-0.603149,0.682495,0.357117
1499894461349047,-0.20697,-0.603149,0.682495,0.357117
1499894461364051,-0.20697,-0.603149,0.682495,0.357117
1499894461387052,-0.20697,-0.603271,0.682373,0.357239
1499894461409050,-0.20697,-0.603516,0.682129,0.357178
1499894461424055,-0.20697,-0.603516,0.682129,0.357178
1499894461447070,-0.20697,-0.603516,0.682129,0.357178
1499894461469061,-0.206848,-0.603394,0.682251,0.357178
1499894461484059,-0.206848,-0.603394,0.682251,0.357239
1499894461507056,-0.20697,-0.603699,0.682068,0.357056
1499894461529059,-0.207031,-0.603699,0.682068,0.356934
1499894461550099,-0.207031,-0.603699,0.682129,0.356934
1499894461567079,-0.20697,-0.603699,0.682129,0.356934
1499894461589067,-0.207092,-0.60376,0.682007,0.356995
1499894461610102,-0.207153,-0.603882,0.681824,0.357056
1499894461627079,-0.207214,-0.604065,0.681702,0.357056
1499894461657071,-0.207214,-0.604065,0.681702,0.357056
1499894461670130,-0.207214,-0.604004,0.681702,0.357056
1499894461687069,-0.207336,-0.604187,0.681519,0.357117
1499894461709073,-0.207458,-0.604187,0.681396,0.357117
1499894461730090,-0.207581,-0.604248,0.681335,0.357178
1499894461747075,-0.207581,-0.604248,0.681335,0.357178
1499894461769072,-0.207581,-0.604248,0.681335,0.357178
1499894461790086,-0.207764,-0.604126,0.681335,0.357239
1499894461807073,-0.208008,-0.604309,0.681091,0.357239
1499894461829077,-0.20813,-0.604553,0.680847,0.357239
1499894461850075,-0.208191,-0.604614,0.680847,0.357239
1499894461867097,-0.20813,-0.604553,0.680847,0.357239
1499894461889079,-0.20813,-0.604553,0.680847,0.357239
1499894461911080,-0.208191,-0.604736,0.680664,0.3573
1499894461927096,-0.208252,-0.60498,0.680481,0.357178
1499894461949085,-0.20813,-0.60498,0.680542,0.357056
1499894461970089,-0.208008,-0.604858,0.680786,0.356995
1499894461987084,-0.207947,-0.604797,0.680786,0.356995
1499894462009086,-0.208008,-0.60498,0.680542,0.357117
1499894462032086,-0.20813,-0.605225,0.680359,0.357056
1499894462047091,-0.20813,-0.605469,0.680176,0.356995
1499894462069090,-0.20813,-0.605469,0.680176,0.356995
1499894462092093,-0.20813,-0.605469,0.680176,0.356995
1499894462107092,-0.20813,-0.605469,0.680176,0.357056
1499894462129093,-0.208069,-0.60553,0.680054,0.357117
1499894462152095,-0.208069,-0.605591,0.680054,0.357117
1499894462166094,-0.208008,-0.605591,0.680054,0.357117
1499894462189097,-0.208008,-0.605591,0.680054,0.357117
1499894462213097,-0.20813,-0.605591,0.679871,0.3573
1499894462226099,-0.208191,-0.605774,0.679688,0.3573
1499894462249098,-0.208191,-0.605774,0.679688,0.3573
1499894462272120,-0.208191,-0.605774,0.679749,0.3573
1499894462287114,-0.208252,-0.605469,0.679932,0.357483
1499894462309102,-0.208252,-0.605408,0.679932,0.357483
1499894462332104,-0.208374,-0.605713,0.679626,0.357422
1499894462346109,-0.208435,-0.605896,0.679565,0.3573
1499894462369114,-0.208435,-0.605774,0.679626,0.3573
1499894462392109,-0.208435,-0.605774,0.679626,0.357361
1499894462406117,-0.208374,-0.605774,0.679626,0.357361
1499894462429110,-0.208374,-0.605774,0.679626,0.357361
1499894462451119,-0.208374,-0.605896,0.679504,0.3573
1499894462466111,-0.208374,-0.605896,0.679504,0.3573
1499894462489113,-0.208374,-0.605896,0.679504,0.3573
1499894462512120,-0.208374,-0.605896,0.679504,0.357361
1499894462533136,-0.208374,-0.605896,0.679565,0.357361
1499894462549116,-0.208496,-0.606079,0.679443,0.357178
1499894462572121,-0.208557,-0.606079,0.679443,0.357178
1499894462593141,-0.208557,-0.606079,0.679443,0.357178
1499894462609125,-0.208496,-0.606079,0.679443,0.357178
1499894462632127,-0.208496,-0.606018,0.679443,0.357178
1499894462653132,-0.208496,-0.606018,0.679443,0.357178
1499894462669132,-0.208496,-0.606018,0.679443,0.357178
1499894462692129,-0.208496,-0.606018,0.679443,0.357178
1499894462713127,-0.208496,-0.606018,0.679443,0.357178
1499894462737131,-0.208496,-0.606018,0.679443,0.357178
1499894462752130,-0.208557,-0.60614,0.679321,0.357178
1499894462773132,-0.208557,-0.606201,0.679321,0.357178
1499894462795198,-0.208557,-0.60614,0.679321,0.357178
1499894462813133,-0.208557,-0.60614,0.679321,0.357178
1499894462833134,-0.208557,-0.60614,0.679321,0.357178
1499894462849133,-0.208557,-0.60614,0.679321,0.357239
1499894462872138,-0.208557,-0.60614,0.679321,0.357239
1499894462893138,-0.208557,-0.60614,0.679321,0.357239
1499894462909148,-0.208557,-0.60614,0.679321,0.357239
1499894462939138,-0.208557,-0.606079,0.679382,0.357239
1499894462954147,-0.208435,-0.606262,0.67926,0.357239
1499894462968204,-0.208435,-0.606262,0.67926,0.357239
1499894462992143,-0.208374,-0.606262,0.67926,0.357239
1499894463014143,-0.208435,-0.606323,0.679138,0.3573
1499894463028145,-0.208557,-0.606506,0.678955,0.357361
1499894463052146,-0.208557,-0.606445,0.678955,0.357361
1499894463074146,-0.208557,-0.606445,0.678955,0.357361
1499894463089148,-0.208557,-0.606445,0.678955,0.357361
1499894463112149,-0.208496,-0.606445,0.678955,0.357361
1499894463134150,-0.208496,-0.606445,0.678955,0.357422
1499894463148166,-0.208496,-0.606445,0.678955,0.357422
1499894463172156,-0.208496,-0.606445,0.678955,0.357422
1499894463194171,-0.208496,-0.606445,0.678955,0.357422
1499894463208215,-0.208435,-0.606384,0.679016,0.357422
1499894463232156,-0.208618,-0.606506,0.678894,0.357483
1499894463254158,-0.208618,-0.606506,0.678894,0.357483
1499894463268198,-0.208618,-0.606445,0.678894,0.357483
1499894463299182,-0.208557,-0.606445,0.678894,0.357483
1499894463314161,-0.208557,-0.606445,0.678894,0.357544
1499894463328166,-0.208618,-0.606628,0.678772,0.357483
1499894463352169,-0.208618,-0.606628,0.678772,0.357483
1499894463374165,-0.208618,-0.606628,0.678772,0.357483
1499894463388164,-0.208618,-0.606628,0.678772,0.357483
1499894463413189,-0.208557,-0.606567,0.678772,0.357544
1499894463434190,-0.208557,-0.606567,0.678772,0.357544
1499894463455170,-0.208679,-0.606689,0.67865,0.357422
1499894463472190,-0.20874,-0.606689,0.67865,0.357422
1499894463494172,-0.20874,-0.60675,0.67865,0.357422
1499894463515177,-0.208679,-0.606689,0.67865,0.357422
1499894463532177,-0.20874,-0.606506,0.678772,0.357483
1499894463554177,-0.208862,-0.606567,0.678711,0.357483
1499894463575196,-0.208984,-0.60675,0.678589,0.357361
1499894463592197,-0.208984,-0.606689,0.678589,0.357361
1499894463614178,-0.208923,-0.60675,0.678589,0.357361
1499894463635201,-0.208923,-0.606689,0.678589,0.357422
1499894463652181,-0.208923,-0.606689,0.67865,0.357422
1499894463682202,-0.208923,-0.606689,0.67865,0.357422
1499894463695235,-0.208923,-0.606689,0.67865,0.357422
1499894463712204,-0.208923,-0.606689,0.67865,0.357422
1499894463734188,-0.208923,-0.606689,0.67865,0.357422
1499894463755186,-0.208923,-0.606628,0.67865,0.357422
1499894463772208,-0.208801,-0.606506,0.678772,0.357483
1499894463794189,-0.208801,-0.606506,0.678772,0.357483
1499894463815224,-0.208801,-0.606506,0.678772,0.357483
1499894463832191,-0.208496,-0.606384,0.679016,0.357422
1499894463854194,-0.208496,-0.606384,0.679016,0.357422
1499894463875193,-0.208435,-0.606323,0.679077,0.357422
1499894463892214,-0.208435,-0.606323,0.679077,0.357483
1499894463914195,-0.208435,-0.606323,0.679077,0.357483
1499894463937200,-0.208252,-0.606384,0.679138,0.357361
1499894463952220,-0.208069,-0.606445,0.679199,0.357239
1499894463974199,-0.208008,-0.606445,0.679199,0.357239
1499894463997201,-0.208008,-0.606201,0.679321,0.357483
1499894464012221,-0.208069,-0.606079,0.679199,0.357788
1499894464034203,-0.208191,-0.606201,0.679077,0.357849
1499894464057204,-0.208252,-0.606323,0.678955,0.357849
1499894464071224,-0.208191,-0.606323,0.678955,0.357849
1499894464094209,-0.208191,-0.60614,0.679077,0.35791
1499894464116225,-0.208191,-0.60614,0.679077,0.35791
1499894464131228,-0.208191,-0.606323,0.678894,0.35791
1499894464154210,-0.208191,-0.606323,0.678894,0.35791
1499894464177230,-0.208191,-0.606323,0.678894,0.35791
1499894464191212,-0.208191,-0.606323,0.678894,0.357971
1499894464214213,-0.208191,-0.606262,0.678955,0.357971
1499894464237215,-0.208191,-0.606323,0.678833,0.358032
1499894464258217,-0.208191,-0.606323,0.678833,0.358032
1499894464274216,-0.20813,-0.606323,0.678833,0.358093
1499894464297218,-0.20813,-0.606323,0.678833,0.358093
1499894464312218,-0.20813,-0.606323,0.678833,0.358093
1499894464334219,-0.20813,-0.606262,0.678833,0.358154
1499894464357226,-0.208069,-0.606262,0.678833,0.358154
1499894464371223,-0.208069,-0.606262,0.678894,0.358154
1499894464394229,-0.208069,-0.606262,0.678894,0.358154
1499894464416224,-0.208069,-0.606201,0.678894,0.358154
1499894464438265,-0.208069,-0.606201,0.678894,0.358154
1499894464454228,-0.208069,-0.606201,0.678894,0.358154
1499894464477229,-0.208191,-0.606262,0.678833,0.358093
1499894464498252,-0.208191,-0.606262,0.678894,0.358093
1499894464514230,-0.208191,-0.606201,0.678894,0.358093
1499894464537232,-0.208191,-0.606201,0.678894,0.358093
1499894464558232,-0.208313,-0.606262,0.678772,0.358215
1499894464574233,-0.208313,-0.606262,0.678772,0.358215
1499894464597238,-0.208313,-0.606262,0.678772,0.358215
1499894464618247,-0.208313,-0.606262,0.678772,0.358215
1499894464634239,-0.208252,-0.606262,0.678772,0.358215
1499894464657239,-0.208374,-0.606018,0.678894,0.358398
1499894464679239,-0.208374,-0.606018,0.678894,0.358398
1499894464694247,-0.208374,-0.606018,0.678894,0.358398
1499894464717245,-0.208313,-0.606018,0.678833,0.358398
1499894464738246,-0.208313,-0.606018,0.678833,0.358398
1499894464754243,-0.208252,-0.605713,0.679138,0.358459
1499894464777249,-0.208313,-0.605347,0.679382,0.358582
1499894464798251,-0.208557,-0.605408,0.67926,0.358582
1499894464814247,-0.20874,-0.605469,0.679199,0.358459
1499894464836269,-0.208862,-0.605347,0.67926,0.358398
1499894464859250,-0.208984,-0.605042,0.679504,0.358521
1499894464874251,-0.209106,-0.604675,0.679749,0.358643
1499894464896257,-0.209229,-0.604492,0.67981,0.358765
1499894464919254,-0.209351,-0.604553,0.679688,0.358765
1499894464934254,-0.209351,-0.604553,0.679688,0.358765
1499894464956263,-0.209473,-0.604248,0.679932,0.358765
1499894464979277,-0.209534,-0.60376,0.680237,0.358948
1499894464994258,-0.209717,-0.603516,0.680359,0.359009
1499894465016263,-0.210083,-0.603516,0.680237,0.358948
1499894465039260,-0.210327,-0.603394,0.680298,0.358948
1499894465053261,-0.210632,-0.603088,0.68042,0.359009
1499894465076262,-0.210876,-0.602966,0.680481,0.359009
1499894465100284,-0.21106,-0.602905,0.680481,0.359131
1499894465113266,-0.211304,-0.602661,0.680481,0.359253
1499894465136274,-0.211548,-0.602539,0.680481,0.359375
1499894465159267,-0.211792,-0.602661,0.680298,0.359375
1499894465173268,-0.211914,-0.602844,0.679993,0.359558
1499894465196336,-0.211975,-0.602844,0.679871,0.359741
1499894465219271,-0.211853,-0.602722,0.67981,0.360046
1499894465233272,-0.211853,-0.602722,0.67981,0.360107
1499894465256286,-0.211792,-0.602966,0.679626,0.360107
1499894465279276,-0.211792,-0.602966,0.679626,0.360107
1499894465293278,-0.211792,-0.602722,0.679871,0.360046
1499894465316276,-0.211853,-0.602417,0.680115,0.359985
1499894465339279,-0.211853,-0.602417,0.680115,0.359985
1499894465360345,-0.212097,-0.602478,0.680115,0.359863
1499894465376280,-0.212097,-0.602478,0.680115,0.359863
1499894465399285,-0.212097,-0.602478,0.680115,0.359802
1499894465420282,-0.212097,-0.602478,0.680115,0.359802
1499894465436328,-0.212097,-0.602417,0.680115,0.359863
1499894465459288,-0.212097,-0.602417,0.680176,0.359863
1499894465480285,-0.212036,-0.602051,0.68042,0.359985
1499894465496308,-0.212036,-0.602051,0.68042,0.359985
1499894465519295,-0.212219,-0.602173,0.680237,0.359924
1499894465540290,-0.212219,-0.602234,0.680237,0.359924
1499894465556319,-0.212219,-0.602173,0.680298,0.359924
1499894465579299,-0.212158,-0.602173,0.680298,0.359924
1499894465600330,-0.212158,-0.602173,0.680298,0.359924
1499894465616299,-0.212341,-0.602234,0.680176,0.359924
