timestamp,x,y,z,w
1499894531593698,-0.265259,-0.609924,0.645142,0.376038
1499894531607704,-0.265564,-0.608887,0.645996,0.376099
1499894531630699,-0.265137,-0.606873,0.647766,0.376587
1499894531653701,-0.26532,-0.606384,0.648376,0.376221
1499894531674701,-0.265137,-0.605347,0.649353,0.376282
1499894531690703,-0.265137,-0.604797,0.650085,0.375854
1499894531713704,-0.265198,-0.605347,0.649963,0.375244
1499894531734705,-0.265076,-0.605469,0.650269,0.374573
1499894531759706,-0.264404,-0.603943,0.651794,0.374756
1499894531773708,-0.263611,-0.602234,0.653564,0.375061
1499894531794709,-0.263062,-0.601013,0.654907,0.375122
1499894531811709,-0.262939,-0.60083,0.655212,0.374878
1499894531833710,-0.263123,-0.601257,0.655151,0.374207
1499894531854742,-0.263184,-0.60144,0.655151,0.373901
1499894531871725,-0.262817,-0.600586,0.655945,0.374146
1499894531893722,-0.262451,-0.59967,0.656616,0.374634
1499894531914717,-0.26239,-0.59967,0.656616,0.374634
1499894531930720,-0.262634,-0.600342,0.656067,0.37439
1499894531953718,-0.262634,-0.600342,0.656067,0.37439
1499894531974723,-0.262451,-0.599976,0.656433,0.374512
1499894531990721,-0.262207,-0.599487,0.65686,0.374695
1499894532013721,-0.262207,-0.599304,0.65686,0.374878
1499894532034726,-0.26239,-0.59967,0.656555,0.374756
1499894532050723,-0.26239,-0.59967,0.656555,0.374756
1499894532073727,-0.262268,-0.599792,0.656616,0.374573
1499894532094771,-0.262146,-0.59967,0.656799,0.374512
1499894532111731,-0.262146,-0.599609,0.656799,0.374573
1499894532133749,-0.262146,-0.599792,0.656677,0.374512
1499894532155730,-0.262085,-0.599792,0.656677,0.374512
1499894532170732,-0.262085,-0.599792,0.656677,0.374512
1499894532193739,-0.262085,-0.599792,0.656677,0.374512
1499894532215732,-0.262085,-0.599792,0.656677,0.374512
1499894532230733,-0.262085,-0.599792,0.656555,0.374756
1499894532253735,-0.262207,-0.600159,0.65625,0.374695
1499894532275736,-0.262207,-0.600159,0.656189,0.374756
1499894532290737,-0.262207,-0.600159,0.656189,0.374756
1499894532313739,-0.262329,-0.600159,0.656189,0.374817
1499894532335745,-0.262451,-0.600159,0.655945,0.375
1499894532350761,-0.262573,-0.600281,0.655762,0.375122
1499894532373744,-0.262695,-0.600281,0.65564,0.375305
1499894532395744,-0.262695,-0.600281,0.65564,0.375244
1499894532410751,-0.262817,-0.600464,0.655457,0.375183
1499894532433750,-0.262817,-0.600464,0.655457,0.375183
1499894532455746,-0.262878,-0.600464,0.655457,0.375183
1499894532470749,-0.262878,-0.600464,0.655457,0.375122
1499894532493751,-0.262878,-0.600464,0.655457,0.375122
1499894532515750,-0.262878,-0.600525,0.655396,0.375061
1499894532536771,-0.262878,-0.600525,0.655457,0.375061
1499894532553753,-0.262817,-0.600525,0.655457,0.375061
1499894532575754,-0.262756,-0.600647,0.655273,0.375183
1499894532590758,-0.262756,-0.600708,0.655273,0.375183
1499894532613761,-0.262756,-0.600708,0.655273,0.375183
1499894532635758,-0.262695,-0.600708,0.655273,0.375183
1499894532656760,-0.262695,-0.600708,0.655273,0.375183
1499894532673778,-0.262695,-0.600708,0.655273,0.375244
1499894532695763,-0.262695,-0.600708,0.655273,0.375244
1499894532716765,-0.262634,-0.600647,0.655273,0.375244
1499894532733767,-0.262695,-0.60083,0.655212,0.375061
1499894532755765,-0.262817,-0.601257,0.654968,0.374756
1499894532776785,-0.262817,-0.601257,0.654968,0.374756
1499894532793767,-0.262756,-0.601013,0.655029,0.374939
1499894532815767,-0.262756,-0.601013,0.65509,0.375
1499894532836770,-0.262756,-0.601318,0.654846,0.374878
1499894532853771,-0.262756,-0.601318,0.654785,0.374878
1499894532875776,-0.262817,-0.601379,0.654785,0.374878
1499894532896837,-0.262695,-0.601196,0.654968,0.374939
1499894532913774,-0.262695,-0.601196,0.654968,0.374939
1499894532935774,-0.262695,-0.601135,0.654968,0.375
1499894532956779,-0.262634,-0.601135,0.654968,0.375
1499894532973795,-0.262634,-0.601135,0.654968,0.375
1499894532995801,-0.262634,-0.601135,0.654968,0.375
1499894533018799,-0.262634,-0.601196,0.654968,0.375
1499894533032783,-0.262573,-0.601135,0.654968,0.375061
1499894533055781,-0.262573,-0.601135,0.654968,0.375061
1499894533078802,-0.262573,-0.601135,0.654968,0.375061
1499894533093784,-0.262573,-0.601135,0.655029,0.375061
1499894533115785,-0.262573,-0.601135,0.655029,0.375061
1499894533138798,-0.262512,-0.601135,0.655029,0.375061
1499894533153789,-0.262512,-0.601074,0.655029,0.375122
1499894533181790,-0.262512,-0.601074,0.655029,0.375122
1499894533198804,-0.262512,-0.601074,0.655029,0.375122
1499894533212790,-0.262512,-0.601074,0.655029,0.375122
1499894533235792,-0.262512,-0.601135,0.655029,0.375122
1499894533258812,-0.262512,-0.601135,0.655029,0.375122
1499894533272796,-0.262512,-0.601135,0.655029,0.375122
1499894533295814,-0.262634,-0.601318,0.654785,0.375122
1499894533318817,-0.262695,-0.601563,0.654602,0.375
1499894533332796,-0.262695,-0.601563,0.654602,0.375
1499894533355803,-0.262573,-0.601379,0.654724,0.375122
1499894533378821,-0.262573,-0.601379,0.654785,0.375122
1499894533392800,-0.262573,-0.601379,0.654785,0.375122
1499894533415805,-0.262573,-0.601379,0.654785,0.375122
1499894533438808,-0.262512,-0.601318,0.654785,0.375122
1499894533452809,-0.262512,-0.601318,0.654785,0.375122
1499894533481805,-0.262512,-0.601318,0.654785,0.375183
1499894533498826,-0.262451,-0.601318,0.654785,0.375183
1499894533512808,-0.262451,-0.601318,0.654785,0.375183
1499894533535809,-0.26239,-0.601563,0.654602,0.375122
1499894533558811,-0.26239,-0.601746,0.65448,0.375061
1499894533579827,-0.26239,-0.601746,0.65448,0.375122
1499894533595851,-0.26239,-0.601685,0.65448,0.375122
1499894533618815,-0.26239,-0.601685,0.654541,0.375122
1499894533639820,-0.26239,-0.601685,0.654541,0.375122
1499894533655817,-0.26239,-0.601685,0.654541,0.375122
1499894533678823,-0.262329,-0.601685,0.654541,0.375122
1499894533699859,-0.262329,-0.601685,0.654541,0.375183
1499894533715821,-0.262329,-0.601685,0.654541,0.375183
1499894533738821,-0.262329,-0.601624,0.654541,0.375183
1499894533759822,-0.262329,-0.601624,0.654541,0.375183
1499894533775823,-0.262329,-0.601807,0.654419,0.375183
1499894533798841,-0.262268,-0.601807,0.654419,0.375183
1499894533819866,-0.262268,-0.601807,0.654419,0.375183
1499894533835826,-0.262268,-0.601746,0.65448,0.375183
1499894533858829,-0.262268,-0.601746,0.65448,0.375244
1499894533879868,-0.262207,-0.601746,0.65448,0.375244
1499894533895830,-0.262207,-0.601746,0.65448,0.375244
1499894533918851,-0.262207,-0.601929,0.654358,0.375183
1499894533939845,-0.262207,-0.601929,0.654358,0.375183
1499894533955834,-0.262085,-0.601807,0.65448,0.375183
1499894533978841,-0.262085,-0.601807,0.65448,0.375183
1499894534000839,-0.262085,-0.601746,0.65448,0.375244
1499894534015840,-0.262085,-0.601807,0.65448,0.375244
1499894534038838,-0.262085,-0.601807,0.65448,0.375244
1499894534060839,-0.262085,-0.601807,0.65448,0.375244
1499894534083842,-0.262024,-0.601746,0.654541,0.375244
1499894534098844,-0.262024,-0.601746,0.654541,0.375244
1499894534120847,-0.262024,-0.601746,0.654541,0.375305
1499894534135844,-0.262024,-0.601746,0.654541,0.375305
1499894534158848,-0.262024,-0.601746,0.654541,0.375305
1499894534180846,-0.262024,-0.601807,0.654419,0.375305
1499894534194847,-0.262024,-0.601807,0.654419,0.375305
1499894534218855,-0.262024,-0.601807,0.654419,0.375305
1499894534240854,-0.262024,-0.601807,0.65448,0.375305
1499894534255852,-0.262024,-0.601807,0.65448,0.375305
1499894534278856,-0.262024,-0.601807,0.65448,0.375305
1499894534300853,-0.262024,-0.601807,0.65448,0.375305
1499894534314858,-0.262024,-0.601807,0.65448,0.375305
1499894534338860,-0.262024,-0.601807,0.65448,0.375305
1499894534360856,-0.262024,-0.601807,0.65448,0.375305
1499894534374858,-0.261963,-0.601807,0.654419,0.375366
1499894534398877,-0.261902,-0.60199,0.654297,0.375366
1499894534420863,-0.261841,-0.60199,0.654297,0.375427
1499894534434862,-0.261841,-0.60199,0.654297,0.375427
1499894534458864,-0.26178,-0.60199,0.654297,0.375427
1499894534480864,-0.26178,-0.60199,0.654297,0.375488
1499894534494864,-0.26178,-0.60199,0.654297,0.375488
1499894534518870,-0.261719,-0.60199,0.654297,0.375488
1499894534540867,-0.261719,-0.60199,0.654297,0.375488
1499894534561926,-0.261719,-0.60199,0.654297,0.375549
1499894534578886,-0.261658,-0.60199,0.654297,0.375549
1499894534600871,-0.261658,-0.60199,0.654297,0.375549
1499894534621877,-0.261658,-0.60199,0.654297,0.37561
1499894534638874,-0.261658,-0.60199,0.654297,0.37561
1499894534660886,-0.261597,-0.601929,0.654297,0.37561
1499894534681880,-0.261597,-0.601929,0.654297,0.37561
1499894534698882,-0.261597,-0.601929,0.654297,0.37561
1499894534720879,-0.261597,-0.601929,0.654297,0.375671
1499894534741879,-0.261536,-0.601929,0.654297,0.375671
1499894534758885,-0.261536,-0.601929,0.654297,0.375671
1499894534780881,-0.261475,-0.601929,0.654297,0.375732
1499894534801941,-0.261475,-0.601929,0.654297,0.375732
1499894534818903,-0.261414,-0.601929,0.654297,0.375732
1499894534840886,-0.261414,-0.601929,0.654297,0.375793
1499894534861921,-0.261414,-0.601929,0.654297,0.375793
1499894534878887,-0.261414,-0.601929,0.654297,0.375793
1499894534900900,-0.261353,-0.601929,0.654297,0.375793
1499894534923906,-0.261353,-0.601929,0.654297,0.375854
1499894534938890,-0.261292,-0.601868,0.654358,0.375854
1499894534960903,-0.261292,-0.601868,0.654358,0.375916
1499894534983902,-0.261414,-0.60199,0.654236,0.375854
1499894534998895,-0.261414,-0.60199,0.654236,0.375854
1499894535020896,-0.261353,-0.60199,0.654236,0.375916
1499894535043897,-0.261353,-0.601929,0.654236,0.375916
1499894535058898,-0.261414,-0.60199,0.654175,0.375916
1499894535080898,-0.261414,-0.60199,0.654175,0.375977
1499894535103900,-0.261414,-0.60199,0.654175,0.375977
1499894535117904,-0.261414,-0.60199,0.654175,0.375977
1499894535140910,-0.261414,-0.60199,0.654175,0.375977
1499894535163903,-0.261414,-0.60199,0.654175,0.375977
1499894535177904,-0.261414,-0.601929,0.654175,0.375977
1499894535200918,-0.26123,-0.601807,0.654358,0.376038
1499894535229923,-0.26123,-0.601807,0.654358,0.376038
1499894535237910,-0.26123,-0.601807,0.654358,0.376099
1499894535260914,-0.26123,-0.601807,0.654358,0.376099
1499894535283910,-0.26123,-0.601807,0.654358,0.376099
1499894535297911,-0.261169,-0.601746,0.654358,0.376099
1499894535320914,-0.261169,-0.601746,0.654358,0.37616
1499894535343936,-0.261108,-0.601746,0.654358,0.37616
1499894535357916,-0.261108,-0.601746,0.654358,0.37616
1499894535380915,-0.261108,-0.601746,0.654358,0.376221
1499894535403919,-0.260925,-0.601501,0.654541,0.376465
1499894535424940,-0.260925,-0.601501,0.654541,0.376465
1499894535440920,-0.260864,-0.601501,0.654541,0.376526
1499894535463941,-0.260864,-0.60144,0.654541,0.376526
1499894535484923,-0.260803,-0.601257,0.654724,0.376648
1499894535500935,-0.260803,-0.601257,0.654724,0.376648
1499894535522943,-0.260742,-0.601257,0.654724,0.376709
1499894535544927,-0.260742,-0.601196,0.654724,0.376709
1499894535560929,-0.260742,-0.601196,0.654724,0.376709
1499894535583949,-0.260742,-0.601196,0.654724,0.376709
1499894535621969,-0.26062,-0.600952,0.654968,0.37677
1499894535623930,-0.26062,-0.600952,0.654968,0.37677
1499894535643931,-0.26062,-0.600952,0.654968,0.37677
1499894535664932,-0.260559,-0.600952,0.654968,0.376831
1499894535680937,-0.260559,-0.600952,0.654968,0.376831
1499894535703001,-0.260498,-0.600952,0.654968,0.376892
1499894535724956,-0.260437,-0.600952,0.654968,0.376892
1499894535740940,-0.260437,-0.600952,0.654968,0.376953
1499894535762958,-0.260498,-0.601074,0.654785,0.376892
1499894535784939,-0.260559,-0.601318,0.654663,0.376709
1499894535800944,-0.260681,-0.601685,0.65448,0.376343
1499894535823955,-0.260803,-0.602234,0.654236,0.375793
1499894535844947,-0.260986,-0.602783,0.653809,0.375549
1499894535860949,-0.260986,-0.603333,0.65332,0.375549
1499894535884945,-0.260986,-0.603821,0.653137,0.375122
1499894535905946,-0.260986,-0.604492,0.652771,0.374695
1499894535920949,-0.261047,-0.605469,0.6521,0.374207
1499894535942948,-0.260742,-0.605896,0.651855,0.374207
1499894535965950,-0.260193,-0.605469,0.6521,0.374817
1499894535980950,-0.259888,-0.604858,0.652466,0.375244
1499894536003953,-0.26001,-0.604614,0.652588,0.375427
1499894536025953,-0.260376,-0.604797,0.652344,0.375366
1499894536040954,-0.260803,-0.60498,0.652039,0.375244
1499894536063018,-0.260925,-0.604736,0.6521,0.375488
1499894536085956,-0.261047,-0.604187,0.652344,0.375793
1499894536100001,-0.260986,-0.604187,0.652405,0.375793
1499894536123964,-0.261108,-0.604431,0.652161,0.375732
1499894536145963,-0.260986,-0.604858,0.651855,0.375732
1499894536159966,-0.260681,-0.604919,0.651917,0.375732
1499894536167967,-0.260132,-0.604797,0.6521,0.375854
1499894536188998,-0.259766,-0.604553,0.652405,0.375977
1499894536211968,-0.259766,-0.604553,0.652405,0.375977
1499894536227965,-0.259705,-0.604553,0.652466,0.376038
1499894536248979,-0.259705,-0.604553,0.652466,0.376038
1499894536270967,-0.259705,-0.604492,0.652466,0.376038
1499894536287972,-0.259644,-0.604492,0.652466,0.376099
1499894536308969,-0.259827,-0.604553,0.652405,0.376099
1499894536330991,-0.26001,-0.604553,0.652344,0.375977
1499894536347972,-0.260132,-0.604858,0.652039,0.375916
1499894536369997,-0.260193,-0.605652,0.651428,0.375671
1499894536392974,-0.260254,-0.606812,0.650513,0.375305
1499894536407976,-0.26001,-0.608032,0.649658,0.375061
1499894536428997,-0.259644,-0.609009,0.649048,0.374817
1499894536451040,-0.259338,-0.609558,0.64856,0.374878
1499894536467979,-0.259094,-0.609436,0.64856,0.375244
1499894536488984,-0.259094,-0.60907,0.648682,0.375671
1499894536512003,-0.25946,-0.608826,0.648621,0.375916
1499894536528014,-0.260132,-0.608826,0.648376,0.375793
1499894536549040,-0.260864,-0.608948,0.648071,0.375671
1499894536570985,-0.261597,-0.608765,0.648071,0.375549
1499894536588986,-0.262085,-0.608398,0.648193,0.375488
1499894536609026,-0.262329,-0.608032,0.648438,0.375488
1499894536630991,-0.262329,-0.607666,0.648743,0.375671
1499894536647989,-0.262268,-0.607666,0.648743,0.375671
1499894536669046,-0.262085,-0.607727,0.648621,0.375793
1499894536690991,-0.262024,-0.607971,0.648438,0.375793
1499894536707993,-0.262024,-0.607971,0.648438,0.375793
1499894536728994,-0.262024,-0.607971,0.648438,0.375854
1499894536751066,-0.262024,-0.607971,0.648438,0.375854
1499894536768996,-0.261963,-0.607971,0.648438,0.375854
1499894536789001,-0.262024,-0.607971,0.648438,0.375854
1499894536812018,-0.262024,-0.607971,0.648438,0.375793
1499894536828999,-0.262268,-0.60791,0.648376,0.375916
1499894536849042,-0.262512,-0.607788,0.648315,0.375977
1499894536871007,-0.262756,-0.607666,0.648315,0.376038
1499894536890005,-0.262756,-0.607666,0.648315,0.376038
1499894536909042,-0.262756,-0.607666,0.648315,0.376038
1499894536931024,-0.262695,-0.607666,0.648315,0.376038
1499894536949011,-0.262695,-0.607666,0.648315,0.376038
1499894536969077,-0.262695,-0.607666,0.648315,0.376099
1499894536991012,-0.262695,-0.607666,0.648315,0.376099
1499894537009019,-0.262695,-0.607666,0.648315,0.376099
1499894537029019,-0.262695,-0.607605,0.648315,0.376099
1499894537051015,-0.262695,-0.607666,0.648315,0.376099
1499894537069014,-0.262634,-0.607605,0.648315,0.376099
1499894537089015,-0.262634,-0.607605,0.648315,0.376099
1499894537112022,-0.262634,-0.607605,0.648315,0.37616
1499894537134038,-0.262634,-0.607605,0.648315,0.37616
1499894537149059,-0.262573,-0.607605,0.648315,0.37616
1499894537172041,-0.262573,-0.607605,0.648315,0.37616
1499894537194021,-0.262573,-0.607605,0.648315,0.376221
1499894537209053,-0.262512,-0.607605,0.648315,0.376221
1499894537231023,-0.262512,-0.607605,0.648315,0.376221
1499894537254025,-0.262512,-0.607605,0.648315,0.376282
1499894537269081,-0.262451,-0.607605,0.648315,0.376282
1499894537291027,-0.262451,-0.607605,0.648315,0.376282
1499894537314028,-0.262451,-0.607605,0.648315,0.376282
1499894537329031,-0.262451,-0.607544,0.648376,0.376343
1499894537351089,-0.26239,-0.607544,0.648376,0.376343
1499894537383062,-0.26239,-0.607544,0.648376,0.376343
1499894537389034,-0.26239,-0.607544,0.648376,0.376343
1499894537411098,-0.26239,-0.607544,0.648376,0.376404
1499894537434055,-0.262329,-0.607544,0.648376,0.376404
1499894537450043,-0.262329,-0.607544,0.648376,0.376404
