timestamp,x,y,z
1499875809595422,0.401367,-0.57959,0.668457
1499875809617424,0.408203,-0.586426,0.63916
1499875809639425,0.412598,-0.580078,0.635254
1499875809655441,0.402344,-0.557617,0.666016
1499875809677430,0.396973,-0.572754,0.687988
1499875809700430,0.393066,-0.544922,0.706055
1499875809714431,0.410645,-0.543945,0.687988
1499875809738432,0.383789,-0.606934,0.64502
1499875809760433,0.388672,-0.616699,0.650391
1499875809774447,0.390137,-0.5625,0.668945
1499875809797434,0.397461,-0.533203,0.682129
1499875809821435,0.390137,-0.561523,0.698242
1499875809834437,0.384277,-0.574219,0.666992
1499875809857448,0.372559,-0.64209,0.641113
1499875809880440,0.372559,-0.611816,0.651855
1499875809901441,0.368164,-0.570801,0.680176
1499875809917441,0.377441,-0.530273,0.68457
1499875809947444,0.362793,-0.509766,0.680664
1499875809961446,0.378418,-0.556152,0.709473
1499875809977445,0.378418,-0.507813,0.713867
1499875810000446,0.368652,-0.505371,0.705566
1499875810014447,0.359863,-0.526855,0.672363
1499875810037453,0.356934,-0.539551,0.683594
1499875810060450,0.359375,-0.538574,0.666992
1499875810081462,0.353027,-0.541992,0.662598
1499875810097453,0.347168,-0.551758,0.67041
1499875810120456,0.353516,-0.560547,0.685547
1499875810140468,0.343262,-0.569824,0.659668
1499875810157467,0.343262,-0.583008,0.662109
1499875810186457,0.34082,-0.57666,0.651367
1499875810201459,0.349121,-0.559082,0.670898
1499875810217458,0.340332,-0.553223,0.688477
1499875810240481,0.34082,-0.577148,0.670898
1499875810261463,0.339844,-0.571289,0.676758
1499875810277462,0.341797,-0.553711,0.679199
1499875810300463,0.346191,-0.553711,0.682129
1499875810321466,0.34375,-0.55957,0.687988
1499875810337475,0.345703,-0.566895,0.712402
1499875810360468,0.342285,-0.549805,0.686035
1499875810381470,0.344238,-0.552734,0.695313
1499875810397469,0.348145,-0.558105,0.692871
1499875810420470,0.343262,-0.57666,0.695313
1499875810441472,0.348633,-0.571289,0.68457
1499875810463474,0.344727,-0.560547,0.686035
1499875810480473,0.345703,-0.553711,0.687988
1499875810503475,0.34082,-0.5625,0.697266
1499875810518476,0.349121,-0.561035,0.69043
1499875810540481,0.338867,-0.546387,0.683105
1499875810562478,0.342285,-0.564453,0.682617
1499875810577480,0.344238,-0.567871,0.6875
1499875810600480,0.343262,-0.550293,0.692383
1499875810623483,0.34375,-0.554199,0.686523
1499875810636482,0.341309,-0.548828,0.682129
1499875810660506,0.341309,-0.548828,0.687988
1499875810682502,0.345215,-0.551758,0.696777
1499875810696487,0.339355,-0.548828,0.692383
1499875810720489,0.349609,-0.546875,0.687012
1499875810742489,0.34668,-0.562012,0.688965
1499875810756490,0.342773,-0.562012,0.695801
1499875810780492,0.339844,-0.552246,0.695801
1499875810802494,0.34375,-0.550781,0.701172
1499875810816494,0.34082,-0.553223,0.694824
1499875810840495,0.351074,-0.541992,0.694336
1499875810862497,0.338379,-0.554199,0.691406
1499875810877498,0.345703,-0.560059,0.69873
1499875810900499,0.346191,-0.562988,0.687988
1499875810922500,0.349121,-0.54834,0.689941
1499875810936506,0.345215,-0.547363,0.686035
1499875810960501,0.34082,-0.542969,0.682617
1499875810982514,0.341309,-0.552246,0.689941
1499875811003504,0.34082,-0.549805,0.695313
1499875811020504,0.346191,-0.554688,0.693359
1499875811042507,0.345215,-0.541992,0.689453
1499875811063510,0.347656,-0.549805,0.693359
1499875811080509,0.341797,-0.557129,0.695801
1499875811102510,0.348633,-0.555664,0.706055
1499875811123512,0.345703,-0.544922,0.685059
1499875811140518,0.347656,-0.561523,0.697754
1499875811162514,0.348145,-0.551758,0.692383
1499875811183517,0.34668,-0.554199,0.695801
1499875811206520,0.347656,-0.549805,0.687012
1499875811222516,0.347168,-0.55127,0.693848
1499875811245519,0.345215,-0.554199,0.69873
1499875811260520,0.347168,-0.559082,0.692871
1499875811282521,0.351563,-0.557617,0.702637
1499875811303521,0.350586,-0.550781,0.685547
1499875811320522,0.352539,-0.559082,0.69873
1499875811342524,0.345703,-0.547852,0.697754
1499875811363526,0.351563,-0.553223,0.695313
1499875811380530,0.355469,-0.55127,0.699707
1499875811402528,0.347656,-0.561523,0.688965
1499875811423529,0.350586,-0.55127,0.687012
1499875811440530,0.350098,-0.544922,0.682617
1499875811462531,0.356445,-0.545898,0.683594
1499875811485534,0.347168,-0.54834,0.693359
1499875811500535,0.34375,-0.556152,0.693359
1499875811522535,0.344238,-0.540527,0.693848
1499875811545536,0.343262,-0.545898,0.692383
1499875811560537,0.347656,-0.541992,0.688965
1499875811582538,0.353516,-0.549805,0.694824
1499875811605540,0.349609,-0.556152,0.698242
1499875811619540,0.349121,-0.545898,0.693848
1499875811642541,0.348633,-0.546875,0.6875
1499875811665542,0.351563,-0.549316,0.691895
1499875811679547,0.341309,-0.546387,0.688477
1499875811710545,0.346191,-0.554688,0.702637
1499875811725552,0.349121,-0.541016,0.69873
1499875811739547,0.341797,-0.55127,0.691406
1499875811762549,0.351074,-0.540039,0.697754
1499875811785550,0.34668,-0.547363,0.697754
1499875811799551,0.346191,-0.545898,0.696777
1499875811822552,0.34375,-0.546387,0.691406
1499875811844553,0.351074,-0.549805,0.696777
1499875811859553,0.353027,-0.547363,0.694336
1499875811882556,0.347168,-0.55127,0.693359
1499875811905564,0.347656,-0.544434,0.690918
1499875811919558,0.352051,-0.541992,0.692871
1499875811942559,0.357422,-0.55127,0.695801
1499875811964560,0.354004,-0.541016,0.685547
1499875811986561,0.35498,-0.536621,0.690918
1499875812003562,0.352051,-0.541016,0.693848
1499875812024573,0.352539,-0.548828,0.686523
1499875812046564,0.34668,-0.54541,0.691406
1499875812062567,0.36084,-0.538574,0.689941
1499875812084567,0.349609,-0.540527,0.703613
1499875812106568,0.356934,-0.543457,0.694336
1499875812122570,0.355957,-0.543457,0.697266
1499875812144572,0.35791,-0.549805,0.700195
1499875812165571,0.355957,-0.538574,0.694824
1499875812182573,0.353516,-0.541992,0.693359
1499875812205574,0.351074,-0.541992,0.699219
1499875812225577,0.350098,-0.547363,0.696777
1499875812242576,0.356445,-0.543945,0.700684
1499875812264579,0.36377,-0.541016,0.691406
1499875812286579,0.356445,-0.557617,0.703613
1499875812302580,0.358887,-0.541504,0.706055
1499875812325600,0.355957,-0.543945,0.709473
1499875812346588,0.357422,-0.556152,0.70752
1499875812362582,0.350586,-0.541504,0.700684
1499875812384586,0.353027,-0.54248,0.688965
1499875812407586,0.354492,-0.549316,0.692383
1499875812422586,0.353516,-0.545898,0.699219
1499875812444589,0.359863,-0.542969,0.689453
1499875812467588,0.349609,-0.544922,0.690918
1499875812482590,0.348633,-0.539063,0.684082
1499875812504594,0.352539,-0.548828,0.6875
1499875812527594,0.34668,-0.554199,0.70166
1499875812541593,0.349121,-0.537598,0.687988
1499875812564594,0.352051,-0.54541,0.690918
1499875812587599,0.356934,-0.536133,0.689453
1499875812609596,0.351074,-0.55127,0.696777
1499875812624600,0.351563,-0.544434,0.692871
1499875812647599,0.349609,-0.54834,0.692871
1499875812661601,0.354492,-0.544434,0.689941
1499875812684604,0.353516,-0.553711,0.700684
1499875812713603,0.350586,-0.547852,0.692871
1499875812721604,0.350586,-0.547363,0.692383
1499875812744604,0.341797,-0.544434,0.698242
1499875812767610,0.363281,-0.544922,0.700684
1499875812782612,0.351074,-0.54541,0.700195
1499875812804610,0.358887,-0.54834,0.693359
1499875812828610,0.356934,-0.550781,0.697754
1499875812841611,0.353027,-0.539551,0.689453
1499875812864612,0.357422,-0.54541,0.694336
1499875812887613,0.357422,-0.547363,0.704102
1499875812892615,0.352051,-0.533691,0.696777
1499875812910614,0.35498,-0.529297,0.69043
1499875812930615,0.356934,-0.547363,0.699707
1499875812952618,0.354004,-0.54248,0.693359
1499875812970618,0.358887,-0.54248,0.692871
1499875812990634,0.356934,-0.532227,0.695313
1499875813012622,0.353027,-0.53418,0.69873
1499875813031622,0.35498,-0.542969,0.685059
1499875813050625,0.358398,-0.541504,0.692383
1499875813072624,0.350098,-0.533691,0.694336
1499875813095625,0.352539,-0.536133,0.70166
1499875813110626,0.355469,-0.543945,0.692383
1499875813132628,0.35498,-0.545898,0.701172
1499875813155634,0.348633,-0.540527,0.703613
1499875813170629,0.35791,-0.537598,0.702148
1499875813195631,0.35498,-0.541016,0.706543
1499875813215633,0.350586,-0.543945,0.696777
1499875813230637,0.355957,-0.543457,0.694336
1499875813252636,0.359863,-0.541016,0.700195
1499875813275638,0.352051,-0.538086,0.705566
1499875813290645,0.356934,-0.541016,0.702148
1499875813312640,0.356445,-0.534668,0.695801
1499875813335641,0.36084,-0.549316,0.69873
1499875813350641,0.358887,-0.543457,0.699707
1499875813372641,0.352539,-0.526855,0.691895
1499875813395642,0.354492,-0.541992,0.700684
1499875813410647,0.361328,-0.547852,0.694824
1499875813432654,0.351563,-0.535156,0.694824
1499875813455647,0.36084,-0.533691,0.692871
1499875813470648,0.348633,-0.535156,0.696289
1499875813492649,0.362305,-0.54541,0.697266
1499875813515653,0.360352,-0.540039,0.700684
1499875813530651,0.35791,-0.524902,0.70166
1499875813552652,0.355469,-0.538574,0.699707
1499875813575656,0.355469,-0.539551,0.695313
1499875813590669,0.353027,-0.541016,0.699707
1499875813612687,0.35791,-0.535645,0.709961
1499875813636656,0.355469,-0.533691,0.702148
1499875813650658,0.355469,-0.540527,0.695313
1499875813672661,0.359375,-0.540527,0.698242
1499875813695668,0.357422,-0.532227,0.691895
1499875813710661,0.359863,-0.537109,0.706543
1499875813732663,0.355469,-0.541016,0.702148
1499875813755664,0.356934,-0.538086,0.695801
1499875813770665,0.353516,-0.542969,0.69873
1499875813792668,0.355957,-0.539551,0.700195
1499875813824680,0.355957,-0.541504,0.706055
1499875813830670,0.352539,-0.539551,0.704102
1499875813852670,0.353516,-0.541016,0.697754
1499875813875670,0.354492,-0.536621,0.709961
1499875813891671,0.357422,-0.540527,0.705566
1499875813912674,0.353516,-0.540039,0.697266
1499875813935673,0.359863,-0.54248,0.702148
1499875813951676,0.358887,-0.536621,0.695313
1499875813972677,0.351074,-0.541504,0.693359
1499875813995679,0.358887,-0.536621,0.691895
1499875814011679,0.35791,-0.536133,0.697754
1499875814032679,0.357422,-0.533203,0.690918
1499875814055681,0.360352,-0.543457,0.701172
1499875814071683,0.355957,-0.535645,0.697266
1499875814092683,0.358398,-0.538574,0.693848
1499875814118686,0.35791,-0.535156,0.700684
1499875814131687,0.355957,-0.527344,0.696777
1499875814152688,0.367188,-0.544434,0.693848
1499875814175688,0.354004,-0.540527,0.703125
1499875814191688,0.365723,-0.532227,0.705566
