timestamp,emg1,emg2,emg3,emg4,emg5,emg6,emg7,emg8
1499893733334425,-5,-4,-1,19,3,-2,0,-1
1499893733334425,28,110,58,12,2,4,4,0
1499893733335428,-29,-82,-61,-38,-3,-4,0,22
1499893733335428,-23,12,-6,-2,2,-10,-16,-29
1499893733338490,-10,-83,-11,40,-8,1,-2,-8
1499893733338490,-19,4,-1,-95,-24,-8,1,-4
1499893733339445,22,28,27,94,25,2,-9,-22
1499893733339445,3,35,5,-70,-1,8,10,40
1499893733345446,21,-26,-12,43,7,-4,-11,10
1499893733345446,-6,-73,2,99,-6,-3,-1,13
1499893733353445,14,18,5,-128,-19,-2,9,64
1499893733353445,-9,20,-9,108,-7,3,18,46
1499893733360480,32,77,15,-12,8,4,-5,25
1499893733360480,41,27,0,5,0,2,7,79
1499893733375479,-42,5,12,66,4,2,-7,-46
1499893733375479,-35,-101,-11,-27,12,9,-4,-83
1499893733383438,15,122,15,28,-18,-5,23,3
1499893733383438,35,-112,-6,-83,6,-3,-9,14
1499893733405497,-20,14,-8,0,1,-6,-8,3
1499893733405497,56,42,29,52,20,7,3,28
1499893733406451,-54,-61,-25,-24,-29,-13,-17,-44
1499893733406451,-37,0,12,26,11,0,-15,-2
1499893733454432,-15,-10,-14,16,2,-1,-1,0
1499893733454432,-9,-38,16,102,-2,2,10,63
1499893733455446,-28,-32,-4,-69,-7,-13,-13,-51
1499893733455446,37,109,15,1,-16,-2,-11,-30
1499893733458453,39,-13,0,-40,-16,-3,16,7
1499893733458453,-40,60,28,74,74,28,6,18
1499893733458453,-11,-40,-25,-45,-9,-2,-1,23
1499893733458453,-4,-96,15,92,5,3,17,39
1499893733465497,-44,-14,-6,-91,-16,-6,1,-39
1499893733465497,64,84,-9,-40,-22,-12,-7,-14
1499893733472476,0,1,40,70,24,9,10,30
1499893733472476,8,14,-23,2,-5,1,-5,2
1499893733480443,45,-66,23,93,9,-7,-2,61
1499893733480443,-88,-106,-39,-103,-5,2,5,-40
1499893733494498,62,127,22,-3,-19,-14,-4,49
1499893733494498,-34,-31,-19,-58,13,-9,-26,-87
1499893733502444,30,-66,-19,2,3,15,3,51
1499893733502444,26,18,24,69,-16,-17,-14,-6
1499893733526481,14,5,15,43,-10,9,7,61
1499893733526481,31,-62,15,-75,-16,-3,26,61
1499893733527442,-80,89,2,17,-8,-4,-25,-78
1499893733527442,14,-50,-37,-51,25,-9,-5,19
1499893733540508,-7,16,17,45,-11,13,15,29
1499893733540508,95,100,13,-2,10,6,8,-8
1499893733541450,3,62,-10,53,-25,-12,-29,-83
1499893733541450,-52,-116,-43,-96,-15,-3,10,49
1499893733563453,-19,24,-6,45,7,-12,-18,-106
1499893733563453,19,49,37,40,9,7,6,34
1499893733563453,-34,14,-10,-39,22,7,13,40
1499893733563453,-46,30,13,33,-62,-9,-7,-54
1499893733586484,62,-51,-45,-61,48,5,3,20
1499893733586484,-49,46,31,15,23,13,-2,5
1499893733587445,-17,-56,-18,26,-14,0,7,6
1499893733587445,104,73,12,-16,-54,-12,-5,-1
1499893733600511,-72,-5,-8,33,69,9,12,38
1499893733600511,-25,-47,-33,34,-60,-25,-42,-103
1499893733601456,19,16,33,-11,70,19,32,108
1499893733601456,-16,-76,-20,-19,-18,5,-4,-80
1499893733623454,11,60,13,49,-57,-19,-25,-44
1499893733623454,-23,-85,-11,-44,-9,-8,0,69
1499893733623454,23,120,20,39,71,10,7,-67
1499893733623454,3,-25,-36,25,35,-1,-7,-13
1499893733646456,-80,-62,8,42,-22,5,1,-44
1499893733646456,-27,-16,-8,16,-21,-5,12,53
1499893733647446,68,24,15,-31,-26,-17,-36,-11
1499893733647446,21,-9,26,22,-3,4,18,31
1499893733660517,28,-43,-36,-3,23,7,-8,-30
1499893733660517,-64,-114,-12,-3,-16,-10,15,64
1499893733661459,49,75,8,-25,51,15,7,-69
1499893733661459,-33,-21,19,30,-15,-3,-35,-71
1499893733684461,0,47,-5,-62,2,2,17,47
1499893733684461,82,105,34,10,-12,-5,-1,-61
1499893733685452,-63,-128,-56,7,-30,-16,-24,-17
1499893733685452,14,49,-19,-35,11,2,9,87
1499893733706450,-11,-7,11,12,-6,-2,4,-17
1499893733706450,47,75,4,-9,14,14,10,2
1499893733707449,-61,93,53,23,-33,-5,4,-18
1499893733707449,-14,2,-4,11,-43,0,17,52
1499893733720449,39,-75,-35,-66,64,2,-27,-21
1499893733720449,-37,1,-30,84,-12,3,-7,38
1499893733721452,12,-49,-8,-90,14,-8,-12,41
1499893733721452,-48,44,44,41,-5,-4,5,-7
1499893733743451,-18,-15,-20,-69,-43,-3,11,0
1499893733743451,1,35,-19,18,9,-4,-16,-17
1499893733744452,-26,-29,2,25,-21,-2,4,4
1499893733744452,65,43,-20,-21,29,10,6,53
1499893733766481,-5,-36,15,-35,-41,-11,4,28
1499893733766481,-42,-1,-1,-2,44,3,-9,-65
1499893733767453,33,34,-17,-46,-3,2,7,50
1499893733767453,-37,-17,18,39,22,0,1,-34
1499893733780510,-2,-40,-28,-4,-17,-2,-4,12
1499893733780510,1,-5,-8,-45,-2,8,0,3
1499893733781453,13,-24,11,30,-27,-2,8,16
1499893733781453,-2,10,-1,1,-4,-8,-16,-85
1499893733803465,59,127,18,32,5,6,7,32
1499893733803465,-45,-87,7,-45,8,-1,-5,-6
1499893733803465,7,12,4,67,3,1,0,-25
1499893733803465,-20,15,-19,-93,-61,-13,-7,12
1499893733825499,23,-116,1,52,47,2,1,19
1499893733825499,-16,99,20,-30,-7,-6,-6,-48
1499893733826468,1,-33,-4,12,-9,-2,-11,7
1499893733826468,11,-23,-9,0,0,3,0,-10
1499893733840456,4,23,-3,34,2,5,15,24
1499893733840456,22,-40,-13,-28,-6,-3,-5,-26
1499893733841458,-49,-107,-4,44,-7,2,0,26
1499893733841458,39,29,0,-2,21,1,-4,-6
1499893733863468,-5,28,10,-37,0,1,4,7
1499893733863468,-5,-36,-27,34,-39,0,-3,-10
1499893733863468,1,101,11,5,57,-3,-4,-13
1499893733863468,9,11,14,30,25,13,7,23
1499893733886501,-7,10,-2,-16,-41,-10,5,-8
1499893733886501,1,-51,7,24,-6,-6,12,55
1499893733887460,-11,-31,8,-30,-41,-5,-1,-14
1499893733887460,13,43,12,-65,77,16,7,36
1499893733900503,-5,-43,1,-11,-44,-6,-9,-32
1499893733900503,-16,-2,-21,18,13,-4,3,9
1499893733901461,-1,10,-21,-55,-25,4,9,51
1499893733901461,32,79,30,56,47,-4,-6,-38
1499893733923479,-28,-42,-55,-60,-28,-4,-9,-9
1499893733923479,35,107,23,-7,1,2,19,0
1499893733923479,-16,-113,-22,32,3,-1,-2,-14
1499893733923479,-25,29,-6,-34,-25,-1,-7,-9
1499893733946506,0,38,13,37,15,-5,-7,-17
1499893733946506,-5,-16,-17,-10,7,2,-1,3
1499893733947464,22,74,31,-59,-20,-5,6,-8
1499893733947464,2,-46,-39,9,-1,-5,-18,4
1499893733960535,-5,12,3,9,4,-4,-3,28
1499893733960535,-16,-5,-1,-19,39,-3,-10,-43
1499893733961477,20,36,36,-22,-43,2,9,-1
1499893733961477,-15,-4,-13,5,31,2,8,6
1499893733983475,-1,2,9,24,-9,-5,-5,-1
1499893733983475,-2,28,9,-39,22,13,18,59
1499893733983475,11,45,1,59,-7,-1,-15,-17
1499893733983475,-11,33,-8,-54,-4,3,3,-26
1499893734006509,4,29,-5,44,17,-5,-5,-3
1499893734006509,20,17,8,4,-12,-5,-5,44
1499893734007484,-15,-32,-31,-55,-8,-8,0,-8
1499893734007484,-17,-53,43,58,14,1,7,18
1499893734020493,-8,7,-27,-77,-26,1,-13,-42
1499893734020493,4,-16,-13,11,7,0,3,-5
1499893734028482,0,25,13,32,12,0,2,26
1499893734028482,19,-29,-11,30,-19,0,5,46
1499893734043487,1,-45,10,22,35,10,5,-8
1499893734043487,16,37,26,-3,-7,-6,-11,-19
1499893734043487,-37,-32,-14,15,-35,-5,2,-5
1499893734043487,21,-26,-25,-61,-12,-6,-3,-29
1499893734065519,-4,39,42,17,8,3,0,-1
1499893734065519,-5,-69,-41,-6,-8,9,10,41
1499893734066483,13,54,-4,34,30,-5,-20,-71
1499893734066483,8,-10,19,35,-11,4,-3,25
1499893734080497,-13,17,-19,16,-7,-8,0,6
1499893734080497,19,-26,-4,-7,-6,4,5,-16
1499893734088487,-3,-34,14,-7,-12,-2,1,25
1499893734088487,7,45,-18,15,5,-3,-3,-8
1499893734103482,-7,-61,6,-49,-22,0,-3,-22
1499893734103482,-8,13,-7,23,6,-1,1,8
1499893734103482,-14,-38,-10,-38,17,-1,10,36
1499893734103482,-12,-4,15,3,-43,-8,-22,-62
1499893734125517,4,61,9,30,51,3,6,26
1499893734125517,8,58,-9,-16,-28,-6,-2,-9
1499893734126486,7,-77,-18,9,0,5,1,6
1499893734126486,-22,29,-19,1,17,-9,0,5
1499893734140496,24,69,24,2,-13,-1,16,52
1499893734140496,-45,-48,-23,-28,10,-10,-41,-112
1499893734148494,9,60,6,69,-17,5,-4,34
1499893734148494,-4,-22,-28,-101,23,3,6,27
1499893734163512,-3,-89,9,47,-3,1,1,3
1499893734163512,-3,46,9,-24,-23,-8,3,4
1499893734163512,19,36,27,24,17,6,-3,-10
1499893734163512,-3,-92,-14,40,-21,-4,-4,6
1499893734185475,-2,30,-11,-27,6,-1,6,43
1499893734185475,-6,-24,12,1,22,11,-11,-30
1499893734186480,-7,6,-24,9,-9,-7,0,-20
1499893734186480,4,47,23,-4,-7,1,9,1
1499893734200501,3,-6,1,4,-15,-4,4,-2
1499893734200501,9,-11,-7,0,6,-2,-6,12
1499893734208493,14,23,-10,-13,-4,0,5,12
1499893734208493,-7,-58,6,6,13,-2,-8,-20
1499893734223489,-13,-52,-9,24,-26,-1,0,-18
1499893734223489,5,30,20,28,7,0,6,25
1499893734223489,1,13,12,-47,-32,0,-3,-23
1499893734223489,-10,-25,-20,3,18,1,7,36
1499893734245520,-5,10,18,2,15,3,-2,-20
1499893734245520,5,-41,-13,-32,-13,-8,-6,7
1499893734246493,12,25,-2,29,13,5,18,25
1499893734246493,-20,-18,0,-50,-33,-12,-33,-57
1499893734260502,4,26,22,-13,13,8,0,-18
1499893734260502,4,2,-14,11,18,3,1,-6
1499893734268521,-7,-18,-12,3,3,-1,-1,4
1499893734268521,-2,-5,0,18,-19,0,12,27
1499893734283499,-10,-28,-21,19,26,-2,-16,-29
1499893734283499,18,59,18,-25,-5,-1,3,15
1499893734283499,-14,-71,-30,-40,-2,2,4,-15
1499893734283499,17,73,12,42,15,3,13,4
1499893734305523,12,115,4,-53,-7,-2,-17,-28
1499893734305523,-7,-55,-6,70,-4,-4,4,21
1499893734306494,-6,8,3,-40,3,-2,-8,-12
1499893734306494,14,48,8,10,-3,4,13,10
1499893734320509,-28,-38,6,5,-34,-10,-5,-15
1499893734320509,-10,-8,6,13,37,4,-4,12
1499893734328528,16,10,-10,-9,-3,-2,-1,-11
1499893734328528,-15,-33,32,48,2,0,-1,10
1499893734343497,8,-1,-27,-79,-22,-5,-3,-8
1499893734343497,-11,-43,-11,8,-3,-4,6,-5
1499893734343497,0,67,16,13,-1,-2,-25,-22
1499893734343497,-7,-18,-10,-16,-15,-3,-4,7
1499893734365555,14,8,28,55,21,3,1,1
1499893734365555,0,38,-38,-61,-23,-5,-6,20
1499893734366489,5,24,-4,21,6,1,11,39
1499893734366489,3,23,4,-20,53,3,-17,-40
1499893734380488,-4,-38,-1,-3,-26,2,4,-13
1499893734380488,-3,5,15,17,12,1,3,24
1499893734388507,17,-5,8,-6,7,-1,-1,3
1499893734388507,5,29,-14,-11,-28,0,15,22
1499893734403500,-15,2,5,7,10,-4,-9,-25
1499893734403500,-4,25,1,-8,-29,-3,-9,3
1499893734403500,7,2,6,-2,24,4,-2,-9
1499893734403500,13,9,-15,-23,11,0,9,43
1499893734424558,-14,-8,-2,5,-21,-7,-6,0
1499893734424558,3,6,4,28,-27,3,6,-7
1499893734433502,-4,51,18,5,32,0,-8,-40
1499893734433502,10,-7,0,24,30,7,8,18
1499893734448560,7,-3,-4,-15,-14,-4,4,16
1499893734448560,-2,-20,-18,32,-9,-4,-6,-11
1499893734450492,-19,-40,-2,-69,-9,-6,5,5
1499893734450492,-14,-15,5,28,-20,-2,-13,-30
1499893734471544,1,-7,0,37,18,1,7,35
1499893734471544,19,3,22,-25,-3,-1,-5,-39
1499893734472502,-1,57,6,9,31,-1,2,19
1499893734472502,-18,-60,-25,-31,-66,-13,-11,-45
1499893734485536,0,-28,-8,7,60,10,3,-3
1499893734485536,-6,30,23,2,-15,3,6,-5
1499893734493535,-2,-33,-11,26,5,-3,8,21
1499893734493535,12,52,15,-19,-17,-4,-4,-14
1499893734508537,9,15,-9,10,-12,4,-9,-11
1499893734508537,4,0,10,-1,13,-3,3,16
1499893734510495,-28,-73,-34,-14,-18,-5,5,1
1499893734510495,3,-8,12,11,29,1,-11,24
1499893734531547,16,53,-1,-1,-9,1,0,-12
1499893734531547,-18,-68,-4,-3,5,-4,-4,-14
1499893734532499,7,-3,0,-4,-16,1,1,11
1499893734532499,3,37,0,14,-10,-3,11,15
1499893734544559,-10,2,-24,-12,-3,-6,-4,-18
1499893734544559,8,16,7,-11,37,5,5,25
1499893734553539,1,2,-4,28,-11,-4,-8,-36
1499893734553539,-13,3,4,-32,-24,0,2,-15
1499893734568562,22,3,12,-13,-22,-1,1,19
1499893734568562,-30,25,-3,17,23,0,-2,-1
1499893734570509,14,-18,-14,-19,19,6,0,-10
1499893734570509,-8,22,21,1,-5,-4,0,9
1499893734591548,11,-13,-17,6,-21,0,10,-5
1499893734591548,16,20,9,9,4,3,-2,43
1499893734592526,-6,15,-11,-19,-6,-2,-4,-41
1499893734592526,-21,-51,1,27,-25,-4,-3,-10
1499893734605525,-1,28,-5,-33,33,2,2,-10
1499893734605525,-11,-27,-16,9,7,-2,-10,-25
1499893734613541,-8,-22,-6,-23,-25,-9,-5,-2
1499893734613541,29,-7,5,21,4,2,0,12
1499893734628545,-18,-50,6,-20,-11,-3,2,-20
1499893734628545,-8,-13,1,12,7,1,-10,-24
1499893734630503,16,68,2,20,-11,-1,6,37
1499893734630503,-17,-88,-3,-22,23,-3,-16,-23
1499893734651547,0,21,8,11,-18,3,7,35
1499893734651547,30,78,-9,-24,6,5,5,7
1499893734652503,-28,-76,12,17,-6,-3,4,15
1499893734652503,6,73,10,14,10,-1,-4,-9
1499893734665530,-12,-33,11,22,29,1,-4,-16
1499893734665530,2,-1,-16,-43,-40,-6,1,18
1499893734673515,-2,-9,13,31,-16,2,-4,-2
1499893734673515,29,31,-12,-39,1,1,24,23
1499893734688516,-26,37,1,12,25,-8,-37,-49
1499893734688516,0,-18,-5,-18,-3,2,-1,9
1499893734690506,24,52,17,-9,9,2,6,29
1499893734690506,-48,-106,-22,-9,-9,-7,-8,-11
1499893734711517,-13,8,-24,-13,-13,-9,8,36
1499893734711517,-11,-26,7,10,1,4,1,-74
1499893734713508,-2,-6,-6,6,-16,-3,-4,21
1499893734713508,17,40,29,29,23,5,2,-3
1499893734724515,-10,-18,-7,-31,-41,-9,-1,9
1499893734724515,-2,-37,0,9,2,-1,2,36
1499893734733516,2,17,-2,1,-1,1,-7,-58
1499893734733516,2,-40,-17,-25,-2,0,2,5
1499893734748564,-2,-26,-16,28,5,-7,2,6
1499893734748564,32,55,8,-13,29,6,1,42
1499893734750523,-39,-90,-21,-28,4,-7,-15,-34
1499893734750523,8,34,13,11,-13,-3,4,4
1499893734771551,4,35,8,-3,-13,3,-1,-4
1499893734771551,17,45,8,30,-5,-1,9,16
1499893734772512,0,2,-4,5,-4,-2,4,24
1499893734772512,-20,-45,-2,-3,-11,-6,-17,-38
1499893734784578,11,12,14,35,15,6,8,11
1499893734784578,-9,-71,-9,-73,6,-5,1,-6
1499893734793554,-3,-36,4,15,13,3,1,-3
1499893734793554,4,17,-7,2,-13,-4,0,4
1499893734808515,15,-2,15,-5,12,6,2,7
1499893734808515,-12,32,8,26,-9,-1,-4,-13
1499893734810523,4,6,-33,-29,3,-2,-8,12
1499893734810523,1,47,13,3,-2,4,4,-41
1499893734831558,-1,-47,-29,-8,0,-3,-1,6
1499893734831558,0,5,15,-1,-13,-2,-4,-16
1499893734832516,2,-12,2,-8,-8,-5,6,15
1499893734832516,7,51,-28,-13,11,10,2,29
1499893734844584,-5,-7,5,4,-15,-4,-8,-18
1499893734844584,-15,6,1,27,-11,-3,2,-11
1499893734853559,13,23,27,7,-24,1,3,38
1499893734853559,9,37,-9,17,31,1,6,-35
1499893734868557,-28,-85,-31,-28,-13,-10,-28,-24
1499893734868557,-1,42,9,-4,-10,3,11,4
1499893734870519,-4,29,-12,1,9,-2,-9,-13
1499893734870519,-4,-10,5,28,-7,-4,-1,28
1499893734891565,-2,12,-16,-23,33,1,3,-12
1499893734891565,2,-2,5,6,-25,-2,1,6
1499893734892518,-6,-56,3,7,27,3,-3,-19
1499893734892518,11,20,-12,-25,-17,-5,3,27
1499893734913532,2,15,12,11,-17,4,8,12
1499893734913532,-12,20,-3,-5,-13,-6,-6,-27
1499893734915521,12,16,-22,-20,10,2,-3,-3
1499893734915521,-12,-75,-2,-3,-1,-3,-2,0
1499893734928592,9,3,7,-12,-4,3,8,25
1499893734928592,1,-18,-3,6,-1,-5,1,-7
1499893734930531,12,31,13,-3,-26,-1,6,1
1499893734930531,-20,-15,-5,22,73,-2,-9,4
1499893734951567,3,44,14,-13,-12,2,0,19
1499893734951567,2,-42,-25,-4,1,-2,-1,-13
1499893734952524,2,30,2,-1,0,1,3,5
1499893734952524,-8,-36,-1,-1,-43,-5,-6,0
1499893734973562,16,63,17,14,28,5,7,-19
1499893734973562,-14,-69,9,12,12,-2,-4,32
1499893734975532,4,50,-1,-20,-12,-3,-8,-26
1499893734975532,16,-25,-19,-11,-22,-1,2,12
1499893734988590,-10,3,-4,-6,21,-2,1,6
1499893734988590,11,0,-2,11,-3,1,-3,-14
1499893734990534,-15,-21,4,18,34,0,6,4
1499893734990534,16,54,25,10,-11,1,-7,42
1499893735011574,0,-33,-2,-17,-25,-10,-3,-40
1499893735011574,-7,12,-10,9,-2,4,4,15
1499893735012540,-2,-24,1,-45,-5,-1,6,-16
1499893735012540,-4,22,0,25,24,6,-3,-9
1499893735033569,-9,-46,-1,-15,-21,-4,-6,0
1499893735033569,-8,23,-19,2,-12,-7,-1,11
1499893735035527,3,3,2,-2,-21,-2,-6,-4
1499893735035527,-5,-25,3,2,16,4,2,-7
1499893735048600,-5,-14,-7,5,14,-5,-2,-16
1499893735048600,8,52,10,0,12,4,5,16
1499893735050527,-12,-71,-9,40,-9,-3,-5,-25
1499893735050527,13,4,-13,-61,-6,5,2,3
1499893735071572,-2,31,-1,11,13,3,-1,-3
1499893735071572,-7,-41,-6,-22,-20,-3,3,10
1499893735072529,-5,1,-18,10,1,-5,-12,-3
1499893735072529,-10,12,7,11,-1,-4,-5,-17
1499893735093569,14,13,0,-8,-21,-3,4,19
1499893735093569,5,2,3,-5,1,-3,-5,-15
1499893735095530,-10,-3,-4,19,33,-3,3,14
1499893735095530,-11,-22,-13,-21,-19,-1,-6,-23
1499893735108549,1,32,10,37,-2,0,-1,17
1499893735108549,15,-18,4,3,-10,-2,-1,-14
1499893735114571,-15,1,-11,-57,7,4,-4,-27
1499893735114571,10,12,9,-10,-19,-4,7,44
1499893735131544,-3,16,-7,-7,-7,1,-2,-49
1499893735131544,-4,28,7,5,4,-2,-9,-12
1499893735132531,1,48,24,27,-20,-4,10,22
1499893735132531,-4,-66,-34,-5,5,-2,-9,-24
1499893735153573,-2,-12,-5,-16,19,7,7,32
1499893735153573,3,1,4,11,-9,4,0,11
1499893735155540,8,5,11,9,18,4,-3,-4
1499893735155540,-10,-18,4,2,-5,-1,6,-3
1499893735168544,-6,-56,-18,-1,-3,-3,3,25
1499893735168544,7,-23,0,23,5,-3,-13,-24
1499893735174596,8,5,1,-24,0,5,-2,22
1499893735174596,2,28,20,34,2,-5,-1,-3
1499893735191583,4,1,10,-32,-6,2,0,8
1499893735191583,-2,-35,-7,-10,-8,-8,-1,-5
1499893735192536,-3,-22,2,17,2,-1,-5,-24
1499893735192536,2,23,-2,-22,-23,2,5,1
1499893735213576,-17,-12,9,11,11,-4,-12,-3
1499893735213576,-1,22,-25,-13,0,-1,-5,-32
1499893735215538,3,10,12,5,-33,-8,5,-6
1499893735215538,-8,-28,-8,23,33,6,-2,-4
1499893735228549,8,57,-2,-3,-7,1,4,9
1499893735228549,-16,-11,5,-2,2,-4,-8,-6
1499893735234596,16,37,-14,22,-21,0,4,30
1499893735234596,-2,-5,7,-24,12,-2,-1,-6
1499893735251582,16,13,11,15,-28,-3,4,36
1499893735251582,-7,24,5,-11,33,-2,9,18
1499893735252550,1,-51,-8,10,-1,1,-5,5
1499893735252550,-8,-16,0,3,10,1,-13,-38
1499893735273579,-6,-8,1,7,-2,-4,-9,-26
1499893735273579,11,28,5,-26,-21,4,8,22
1499893735275573,-7,38,-9,-15,-2,-4,-3,2
1499893735275573,1,-29,-17,-5,-12,-5,-1,-8
1499893735288541,-5,-24,14,1,7,4,2,-3
1499893735288541,5,-36,-15,6,3,-2,-4,-7
1499893735294605,7,11,5,-21,5,1,1,11
1499893735294605,4,49,19,8,0,3,10,11
1499893735310612,-6,-18,-15,34,-34,-3,-1,-8
1499893735310612,1,21,4,-19,23,4,5,26
1499893735318573,-3,13,-17,14,36,-1,-6,-24
1499893735318573,0,-14,-7,-31,-8,-1,1,2
1499893735333583,12,10,0,-1,-13,-3,1,-6
1499893735333583,-5,14,-8,-6,-5,-4,-4,41
1499893735335553,-8,-42,9,12,1,4,-10,-24
1499893735335553,-6,6,9,-31,-37,-4,4,10
1499893735348556,0,-8,-8,-3,43,-2,1,-22
1499893735348556,3,-6,3,-14,3,2,-1,14
1499893735354547,5,30,-21,-1,-5,-5,3,20
1499893735354547,-15,-17,5,6,-5,-4,0,14
1499893735371609,3,-9,2,9,16,3,-9,-35
1499893735371609,-14,-29,-4,-31,-5,-4,-9,-38
1499893735372558,-9,-41,9,18,-24,-6,0,28
1499893735372558,10,14,-1,24,28,3,-11,-28
1499893735393613,-5,-33,-7,-46,3,1,6,-8
1499893735393613,-11,-46,3,7,-28,-2,3,-21
1499893735395548,-5,-10,6,19,13,0,0,-19
1499893735395548,15,57,-2,-7,-41,-4,4,36
1499893735407610,-3,-60,-20,-7,19,-2,-1,12
1499893735407610,17,66,10,13,-15,0,1,27
1499893735416561,-20,-27,-7,0,33,7,-2,-37
1499893735416561,4,11,5,7,-6,-2,4,15
1499893735431586,-3,45,8,30,7,-2,-8,-10
1499893735431586,-2,-11,-9,-20,-19,-8,-1,-11
1499893735432549,-3,-40,-11,-37,-22,-1,2,13
1499893735432549,4,50,13,33,21,1,-1,-5
1499893735453590,-6,8,-4,-4,7,-3,-5,8
1499893735453590,-4,-45,5,11,-18,-1,-3,-18
1499893735455550,4,49,-5,-16,8,-3,2,23
1499893735455550,-11,-42,-7,10,15,-1,-1,-11
1499893735467551,-6,35,0,31,-44,-9,2,-7
1499893735467551,12,33,22,-14,32,6,-8,29
1499893735476551,-30,-111,-25,-14,-7,1,-1,-40
1499893735476551,10,40,10,-2,-4,-2,8,-3
1499893735491567,-6,-9,-2,0,1,-3,-18,-16
1499893735491567,-1,8,-12,0,-12,-2,4,8
1499893735492558,9,56,17,10,13,1,0,-7
1499893735492558,-8,-36,-11,-11,-11,-5,-2,2
1499893735513599,1,-37,9,3,13,2,5,22
1499893735513599,-4,30,-6,15,6,-4,-10,-25
1499893735515566,4,9,14,0,-9,-4,0,14
1499893735515566,-11,-30,-10,-6,1,1,2,-10
1499893735527599,14,-30,10,-22,13,8,11,16
1499893735527599,-9,-52,-15,19,-23,2,-1,-9
1499893735536566,1,36,15,-49,18,3,4,-16
1499893735536566,14,-1,-14,3,-8,-1,-8,1
1499893735551596,-14,12,-1,-11,-7,-1,7,4
1499893735551596,-3,10,2,8,-2,-4,-7,9
1499893735552556,-1,8,3,24,-6,0,-1,2
1499893735552556,-5,-29,-5,2,9,1,-2,-9
1499893735573600,13,38,4,2,-23,-5,-1,17
1499893735573600,-8,1,8,-11,13,4,3,-27
1499893735575559,2,10,-9,9,-10,-4,-2,25
1499893735575559,-15,-47,-13,-11,-8,-5,-4,-3
1499893735587599,7,16,-6,13,10,-3,-2,-19
1499893735587599,-7,-12,-21,-26,-5,2,3,-4
1499893735596572,12,14,18,-1,-10,-1,0,-11
1499893735596572,-1,66,18,18,-2,-4,-2,11
1499893735611580,-11,-45,-12,-12,-9,-2,-1,6
1499893735611580,3,-2,4,25,17,-3,0,-15
1499893735612561,2,33,9,-10,-29,2,9,25
1499893735612561,-4,41,-13,29,26,-2,-10,-27
1499893735633599,-1,11,1,-27,-7,4,3,19
1499893735633599,-2,2,-7,-12,0,-6,-7,-35
1499893735635574,12,53,1,23,-2,1,-4,23
1499893735635574,-14,-86,-6,-15,-15,-3,-4,-23
1499893735647600,-9,-15,-14,1,8,-1,-4,-12
1499893735647600,2,-5,5,12,4,2,8,34
1499893735656575,-2,5,0,-1,-11,-5,-3,-17
1499893735656575,4,10,8,17,6,-4,-2,-10
1499893735671580,10,32,12,-12,-4,5,2,18
1499893735671580,-13,-24,-13,-4,3,0,-4,1
1499893735672565,2,-7,-4,9,14,1,-6,-11
1499893735672565,13,26,7,-6,12,6,15,44
1499893735693582,-9,22,-6,-2,-21,-9,-20,-52
1499893735693582,-1,0,8,12,-1,0,3,-2
1499893735695569,0,-5,0,-2,-13,-5,-5,-15
1499893735695569,-4,-18,6,-11,-5,6,9,38
1499893735707598,28,49,3,19,13,-1,-1,-7
1499893735707598,-11,-60,-14,-3,17,4,2,3
1499893735716568,-6,-15,10,-42,1,0,9,9
1499893735716568,-4,7,-23,-1,-7,-1,-13,-28
1499893735731572,-8,13,10,-9,11,0,2,10
1499893735731572,11,20,-1,18,4,-3,-2,-1
1499893735732568,-4,-22,-19,13,-17,-6,0,5
1499893735732568,-1,-1,10,-15,34,1,0,-1
1499893735753575,-2,7,-1,6,-20,1,-5,-24
1499893735753575,-5,26,-2,2,-15,-4,9,7
1499893735755570,-7,-25,-2,18,39,4,-7,-10
1499893735755570,7,25,-13,-53,-26,-3,-9,-15
1499893735767568,-11,-10,4,7,3,-4,0,28
1499893735767568,-16,-57,-5,2,10,-4,-1,-38
1499893735776571,0,19,-3,-3,-15,0,2,17
1499893735776571,-8,-17,3,25,2,-5,-4,-16
1499893735791580,8,-10,-3,-18,-10,0,7,23
1499893735791580,0,-3,10,2,3,1,-3,-21
1499893735797571,-1,-22,-10,-19,11,-2,0,7
1499893735797571,6,36,17,25,-8,-2,-11,0
1499893735813611,-5,-4,-5,-22,-15,-3,1,-13
1499893735813611,9,41,-4,-21,6,5,4,12
1499893735815583,2,-32,-6,1,-5,-2,-5,-16
1499893735815583,-3,-23,-5,0,-9,-5,3,25
1499893735827614,2,7,6,14,-12,-1,11,20
1499893735827614,-3,21,5,3,-23,-3,-16,-12
1499893735836571,12,22,5,11,48,2,-3,9
1499893735836571,-13,-91,-23,-50,-17,-5,-12,5
1499893735851582,-9,-11,-6,-21,-30,-3,-3,-42
1499893735851582,7,2,1,13,24,2,4,14
1499893735852600,2,66,4,-2,-13,3,8,13
1499893735852600,-8,-39,1,33,-3,-1,-5,-18
1499893735873616,0,2,-4,-24,4,2,-3,30
1499893735873616,5,17,6,2,0,-6,1,3
1499893735875596,3,-3,6,31,-11,-3,7,15
1499893735875596,-11,-29,-15,-51,8,3,-8,-24
1499893735896580,3,-18,-8,22,-4,-2,-4,-3
1499893735896580,-11,15,14,-8,0,4,0,4
1499893735897580,-3,-32,-17,-16,-15,-5,0,-1
1499893735897580,2,32,7,9,-5,2,4,-7
1499893735910646,1,-41,3,12,1,-5,-4,36
1499893735910646,8,27,7,9,-4,-2,-9,-3
1499893735917649,-6,-34,-13,-7,-1,-3,-4,-12
1499893735917649,-11,59,9,14,-12,-4,2,4
1499893735933623,7,21,-8,-6,4,2,2,10
1499893735933623,-9,3,-7,5,2,0,0,6
1499893735935582,-5,1,7,8,-15,-3,-4,-16
1499893735935582,10,35,9,7,9,3,0,26
1499893735956622,0,-52,-8,5,-4,-6,-7,-34
1499893735956622,10,65,-2,-13,2,3,2,3
1499893735957577,-17,-6,-3,11,10,5,-1,-8
1499893735957577,6,3,1,-1,-2,5,9,0
1499893735978628,-3,25,2,11,11,-1,-6,-11
1499893735978628,4,-24,-5,3,-34,-3,-7,-7
1499893735980585,9,-6,-6,-27,23,-8,-1,22
1499893735980585,0,-5,10,19,3,5,2,-20
1499893735993624,5,39,4,20,16,3,5,3
1499893735993624,-14,-25,-1,-12,7,-3,2,15
1499893735995588,13,39,3,7,-17,1,-6,15
1499893735995588,-10,15,-16,-24,8,-4,5,-2
1499893736016593,1,-23,-10,-9,-6,-5,-7,0
1499893736016593,4,3,5,15,3,5,3,5
1499893736017580,15,68,18,26,36,0,10,16
1499893736017580,-25,-56,-14,-13,-11,-5,-19,-36
1499893736030657,-1,20,-16,-7,-16,0,-3,3
1499893736030657,-4,-38,-1,-15,14,-1,0,-4
1499893736037629,-12,-21,2,10,-24,-4,-7,-21
1499893736037629,12,2,6,-4,-3,-1,9,28
1499893736053628,-4,57,-5,-2,27,3,4,-22
1499893736053628,-1,-60,-11,-9,-21,-4,-16,-22
1499893736055589,-1,-11,-3,-1,11,1,-2,-15
1499893736055589,16,27,12,13,1,-6,2,28
1499893736076611,-5,-10,1,17,15,5,5,4
1499893736076611,15,10,-7,-14,-30,-2,8,29
1499893736077586,-8,-17,1,-1,-3,-1,-9,-38
1499893736077586,-3,-8,-1,-3,-19,-2,-7,-10
1499893736090644,-8,20,8,4,9,4,-3,9
1499893736090644,9,-6,-4,9,12,-2,2,9
1499893736097627,-17,-41,-4,-26,-14,-2,-3,-11
1499893736097627,0,1,-5,10,-5,-2,1,17
1499893736113631,12,7,9,-30,-37,-1,-3,-36
1499893736113631,-25,1,3,34,55,5,1,3
1499893736115593,11,32,9,-26,-16,1,3,18
1499893736115593,-2,-27,-19,18,8,-4,-2,-16
1499893736136660,-5,-23,3,-9,-17,0,6,15
1499893736136660,12,70,6,-9,27,2,4,-2
1499893736137617,-8,-47,-7,18,-9,-4,-8,-9
1499893736137617,8,15,0,8,16,2,-1,-5
1499893736150656,-3,-15,-4,-28,-5,-2,4,7
1499893736150656,3,52,-11,-6,-23,-3,-2,4
1499893736157632,-3,-11,-3,3,8,2,5,4
1499893736157632,3,7,2,-11,-11,-3,-8,-10
1499893736173635,0,1,11,33,17,-4,-2,12
1499893736173635,-21,-48,-7,-39,-15,-6,-8,-26
1499893736175596,7,3,-13,-2,-2,-1,1,23
1499893736175596,1,34,5,-4,-6,0,0,-6
1499893736196613,6,-18,0,14,3,-2,8,-2
1499893736196613,1,-8,5,16,-14,-1,-4,-2
1499893736197591,-2,-32,6,-4,9,1,10,34
1499893736197591,0,48,8,-25,-2,0,-17,-74
1499893736209633,-13,-73,-17,1,19,-2,-9,-1
1499893736209633,2,3,-1,-10,-10,-1,2,15
1499893736218604,-4,-1,1,3,0,-4,-8,-19
1499893736218604,5,9,3,11,-1,-3,9,30
1499893736233639,9,67,14,14,-5,3,0,-2
1499893736233639,-15,-54,-26,-9,5,3,-3,-22
1499893736235600,-5,43,5,-2,-8,-3,-4,-9
1499893736235600,3,10,5,9,-3,-1,6,27
1499893736256604,0,22,-3,7,-7,0,-3,-16
1499893736256604,3,-17,13,10,9,-2,1,45
1499893736257602,0,16,-7,2,17,9,8,-47
1499893736257602,5,7,-9,7,-8,-5,-14,-34
1499893736270606,-9,-27,-11,-20,2,-1,-3,4
1499893736270606,-9,-29,-9,1,-14,-3,6,-7
1499893736277640,12,74,13,30,5,-2,0,10
1499893736277640,-13,-97,-27,-35,38,4,-2,7
1499893736293640,-6,11,1,-25,-14,-3,3,18
1499893736293640,6,28,14,-23,-9,0,1,4
1499893736295603,4,2,6,13,-17,-2,0,-5
1499893736295603,1,19,-12,-9,-11,1,2,-4
1499893736316602,-9,-31,-9,10,26,-3,1,4
1499893736316602,-6,-14,7,-12,-17,-3,-7,-20
1499893736317598,-1,-4,-6,-21,-1,-1,-9,9
1499893736317598,7,6,9,14,5,3,4,8
1499893736330618,-12,-33,-9,-25,5,-1,3,11
1499893736330618,6,44,12,16,-14,-2,-1,-15
1499893736337646,-2,-19,-2,-4,3,4,2,9
1499893736337646,-8,-18,-2,26,-5,-2,0,5
1499893736353646,8,1,-3,-29,-4,-3,-5,-5
1499893736353646,7,28,6,-5,-12,3,4,7
1499893736355607,1,-16,-8,-4,3,-3,-5,4
1499893736355607,1,-9,1,0,-11,-1,10,5
1499893736376612,4,19,9,33,-14,-3,0,6
1499893736376612,6,27,-8,-6,22,1,-1,-26
1499893736377605,-21,-127,-18,-30,-6,-3,-1,42
1499893736377605,0,51,17,10,-3,-2,-9,-55
1499893736389645,-4,-19,-8,11,-3,3,-5,-9
1499893736389645,11,12,3,-8,6,-1,-2,-1
1499893736398630,-8,24,-14,-23,-8,0,5,3
1499893736398630,-3,-25,-4,9,0,-4,-1,32
1499893736413609,2,19,4,1,24,3,-1,3
1499893736413609,5,13,14,14,-22,-4,-2,2
1499893736415610,-13,-47,0,-37,-5,1,-4,-28
1499893736415610,1,16,-3,-8,-2,4,14,26
1499893736436668,-2,3,12,6,-9,-4,-13,-13
1499893736436668,-1,-9,-25,12,5,-1,-3,-2
1499893736437611,-13,-1,6,11,20,-6,-2,-9
1499893736437611,3,-6,-10,-20,15,4,3,14
1499893736449649,1,16,3,1,-15,0,6,-17
1499893736449649,-6,-18,-5,1,-12,-6,-9,13
1499893736458621,3,29,5,20,7,-3,-9,-3
1499893736458621,11,-20,-7,-10,-14,3,3,-8
1499893736473651,-22,-56,-20,14,10,-6,0,1
1499893736473651,-1,-2,10,-26,-21,3,-6,20
1499893736475614,16,45,13,23,4,-2,-2,-9
1499893736475614,-4,-19,-13,-5,9,0,-1,9
1499893736496620,6,21,4,-12,-28,-4,0,3
1499893736496620,2,-4,-8,21,27,2,11,18
1499893736497614,-11,-56,-2,4,-14,2,-3,-10
1499893736497614,2,45,10,6,-5,-2,4,27
1499893736509652,-1,1,0,-2,27,5,-7,-22
1499893736509652,-10,-7,-11,-2,-7,-5,-4,-17
1499893736518621,8,56,7,5,-9,-1,-2,-12
1499893736518621,1,19,9,10,-1,-4,0,0
1499893736533654,-3,-86,-2,-9,-8,-3,-3,12
1499893736533654,-23,-25,-17,-9,-8,-4,-4,-30
1499893736535618,16,28,10,22,6,4,2,22
1499893736535618,-9,-13,-6,-23,-9,-3,-5,-7
1499893736556624,0,-43,-14,-13,-1,2,1,12
1499893736556624,10,-11,2,11,40,0,7,21
1499893736557617,5,5,-4,-11,-14,-1,3,-33
1499893736557617,-6,1,2,11,-9,-7,-7,7
1499893736569654,7,35,9,-37,4,10,2,-7
1499893736569654,-6,1,3,13,7,2,-4,-3
1499893736578624,-5,-22,-11,-17,1,-4,0,-3
1499893736578624,-4,-17,-15,2,-2,-1,5,0
1499893736593658,-12,-22,6,15,-2,-5,-19,-5
1499893736593658,3,-6,-17,7,-16,-7,3,-1
1499893736595621,-4,13,12,3,11,3,-2,-9
1499893736595621,6,1,5,1,4,1,6,10
1499893736616628,1,44,6,25,-14,-1,6,15
1499893736616628,-7,-67,-3,-34,2,0,-4,-28
1499893736617615,4,5,-9,-1,-6,-1,-3,3
1499893736617615,-16,-22,5,-8,3,0,2,9
1499893736629658,5,45,-11,21,2,-1,1,-14
1499893736629658,1,-8,5,-5,2,-1,-8,-12
1499893736638649,1,39,-6,-13,-3,0,10,7
1499893736638649,-1,-30,-2,9,3,-3,-13,-19
1499893736653668,-10,48,-5,-11,-3,-4,0,-6
1499893736653668,9,41,18,29,-5,-2,11,30
1499893736655624,5,3,-17,-41,-20,-6,-1,7
1499893736655624,-3,13,4,-1,5,1,-2,-19
1499893736676671,6,11,6,16,1,0,6,8
1499893736676671,0,16,5,-8,12,-2,-4,-21
1499893736677629,2,-15,-6,18,2,-2,2,31
1499893736677629,-4,-9,-9,-35,6,2,0,3
1499893736689663,2,15,6,10,-12,0,-10,-31
1499893736689663,-8,-43,-8,13,0,-1,3,-3
1499893736698648,11,-32,12,7,-16,-4,-5,16
1499893736698648,-21,-15,3,-6,0,3,1,-2
1499893736713670,2,-19,-8,-5,8,1,3,-2
1499893736713670,-7,24,-2,-2,-26,-2,-2,1
1499893736715623,6,-7,-16,9,16,-1,2,3
1499893736715623,3,29,1,-11,-14,-2,-5,-27
1499893736736669,0,15,9,4,9,-1,4,18
1499893736736669,0,1,-2,-15,-9,0,-1,-1
1499893736737623,-7,20,-2,21,14,0,-12,-23
1499893736737623,2,-9,-5,-26,-20,-4,-4,20
1499893736749664,0,-8,-5,-8,-19,-5,7,5
1499893736749664,5,20,13,27,27,10,5,34
1499893736758625,-7,-72,-4,-23,-20,-1,1,-8
1499893736758625,1,32,-8,15,6,-2,-6,-10
1499893736773642,0,-2,9,2,-7,-3,-1,-10
1499893736773642,3,4,-6,-19,-13,-4,-1,17
1499893736775633,-17,-21,-11,29,24,3,1,-34
1499893736775633,29,33,-4,-19,-12,-4,-5,16
1499893736796640,-1,-18,-2,-2,24,5,4,13
1499893736796640,-2,14,-3,-9,-12,-5,-7,-13
1499893736797631,-1,14,10,11,-4,1,1,8
1499893736797631,-6,1,21,22,-7,-6,0,-5
1499893736818635,-4,-60,-17,5,14,1,-2,-48
1499893736818635,-3,-19,-7,-30,-20,1,0,36
1499893736820634,0,-10,11,-9,-6,-2,-1,3
1499893736820634,-8,-11,-9,20,12,3,2,7
1499893736833671,0,5,-9,-11,-6,-3,-2,-3
1499893736833671,-1,7,5,21,-5,-1,-1,-13
1499893736835635,-2,18,7,-18,-35,0,4,13
1499893736835635,17,50,-3,-1,62,1,3,-2
1499893736856644,-14,-66,-10,0,-13,1,-8,-35
1499893736856644,-2,-11,-7,-10,-13,-4,-1,-16
1499893736857629,0,35,-2,0,3,-1,-5,0
1499893736857629,-7,-40,5,9,-17,0,10,22
1499893736878663,4,19,-1,-7,-2,-6,-8,-18
1499893736878663,-4,-13,-21,10,22,-2,-1,-5
1499893736880634,5,4,15,-33,-13,1,1,31
1499893736880634,-9,-25,-5,22,-8,-2,0,-13
1499893736893675,7,39,7,-36,0,0,6,31
1499893736893675,1,-4,1,25,16,4,1,-16
1499893736895638,1,2,-2,-34,-27,-3,-2,-9
1499893736895638,2,-4,14,6,32,0,-2,-13
1499893736916679,-15,-2,-19,13,-13,-5,-2,-2
1499893736916679,-2,-16,-14,-24,2,-6,1,11
1499893736917651,-4,-4,-1,24,27,2,-11,-35
1499893736917651,4,2,7,-10,-14,1,6,26
1499893736938675,4,41,21,4,-20,-3,-17,-18
1499893736938675,-2,10,3,9,5,-3,3,-7
1499893736940641,-3,1,-8,-14,2,-6,-1,-2
1499893736940641,-4,-27,-6,23,-17,0,4,5
1499893736952685,-2,20,5,-9,11,6,-2,18
1499893736952685,6,-20,7,-25,14,4,2,22
1499893736959673,-12,-33,-14,-9,6,-4,-2,-35
1499893736959673,-4,43,0,1,-16,-3,1,10
1499893736976649,4,-10,-14,19,7,1,5,19
1499893736976649,-5,-17,18,-2,5,1,0,-6
1499893736977636,5,3,-2,15,-2,-1,-5,-9
1499893736977636,3,29,2,-10,-19,-7,-10,-17
1499893736998708,-10,-27,-17,-30,14,5,10,24
1499893736998708,0,11,2,18,-24,-6,-11,-26
1499893737000651,1,24,1,-28,27,3,9,6
1499893737000651,-10,-33,-7,15,-4,0,-7,-4
1499893737012686,9,21,11,11,1,-3,-3,9
1499893737012686,-3,10,-6,-11,-23,-1,5,0
1499893737019681,3,-25,-9,16,9,-2,3,10
1499893737019681,-5,0,-5,-20,9,3,-3,-17
1499893737036658,7,-11,10,0,15,0,6,15
1499893737036658,2,33,2,5,-32,-5,-4,-9
1499893737037645,-5,-16,-7,-1,-2,-5,7,46
1499893737037645,-3,-24,-11,2,7,3,-10,-33
1499893737058686,5,-5,-1,-6,-12,2,-1,-1
1499893737058686,1,8,9,23,16,-2,-2,-7
1499893737060641,-7,12,-8,-3,-31,0,-2,-9
1499893737060641,8,24,5,-35,9,0,0,10
1499893737072704,-7,-21,3,9,-13,2,1,-2
1499893737072704,3,-5,-5,-3,27,-2,-3,0
1499893737079687,4,29,6,10,-11,-1,-1,20
1499893737079687,0,-11,-2,-5,-22,-4,0,-16
1499893737096663,-3,8,-6,-4,-2,-3,-3,-6
1499893737096663,-5,-3,-3,-21,-6,-2,-3,1
1499893737097649,2,9,-1,20,28,5,-2,-5
1499893737097649,-5,-43,0,-1,-2,1,7,18
1499893737118675,-4,4,-1,-7,-2,-9,-18,-22
1499893737118675,1,3,-10,23,10,5,6,2
1499893737120646,-1,13,11,-7,-16,-5,-4,-8
1499893737120646,-2,-31,-10,-22,10,3,5,6
1499893737132656,8,45,10,6,-6,-1,1,28
1499893737132656,-10,-30,-9,2,-10,-1,-2,-22
1499893737139677,0,0,-2,11,8,-2,-9,-1
1499893737139677,-6,-4,-3,4,0,-5,-6,-32
1499893737156718,1,17,2,0,-11,-5,5,-2
1499893737156718,3,13,1,-3,2,0,-2,7
1499893737157672,0,1,-7,-4,2,9,19,22
1499893737157672,-11,17,15,23,-21,-9,-44,-66
1499893737178698,5,-26,-18,-8,13,0,-2,18
1499893737178698,5,5,1,14,14,-1,2,2
1499893737180648,-5,-2,1,-20,-42,-4,-3,-11
1499893737180648,1,4,4,-13,1,3,18,45
1499893737192666,-1,5,0,0,13,-5,-11,-32
1499893737192666,4,46,11,-7,-1,-6,-3,-4
1499893737199700,-13,-87,-19,15,-7,-1,-1,-24
1499893737199700,12,43,3,-7,9,8,4,10
1499893737216669,-6,-47,1,-4,10,-6,5,29
1499893737216669,0,6,-2,-4,-9,2,0,-11
1499893737217656,9,47,22,8,-13,-2,3,6
1499893737217656,-2,-42,-8,-2,21,0,4,13
1499893737238699,-12,11,-6,13,-1,1,-7,-27
1499893737238699,-1,-4,6,8,-8,0,-1,8
1499893737240660,1,-10,2,-27,-1,0,-7,-10
1499893737240660,-4,2,6,7,-13,-2,4,-25
1499893737252696,3,18,0,-14,3,-1,-4,4
1499893737252696,4,-14,-1,3,9,1,2,24
1499893737259687,2,38,17,12,2,-4,-2,-14
1499893737259687,9,5,-5,11,-19,-3,-2,2
1499893737276661,-16,-47,-16,-24,1,1,4,17
1499893737276661,-3,5,-15,-10,-21,-5,-6,-16
1499893737277661,9,-5,3,9,22,2,2,19
1499893737277661,-14,-4,-1,2,-6,-4,-1,-16
1499893737298655,10,-1,9,19,-1,2,9,10
1499893737298655,-2,-22,-7,-17,-12,-4,-3,9
1499893737300657,-6,-9,2,38,-7,-4,0,-2
1499893737300657,2,3,-6,-39,13,5,7,31
1499893737312655,3,27,6,4,-4,-2,-9,-25
1499893737312655,-12,-55,2,0,-3,1,-5,-42
1499893737321657,4,36,-6,-16,-7,-4,-7,-7
1499893737321657,-10,-43,-2,35,-18,-8,-1,3
1499893737336664,4,7,1,-44,25,15,15,10
1499893737336664,3,27,-7,-7,5,-3,-6,7
1499893737337658,-1,-17,3,3,13,2,-5,-10
1499893737337658,-2,-5,-21,11,-9,-5,-5,26
1499893737358679,-2,29,9,-7,-21,-4,1,-48
1499893737358679,8,35,3,8,6,2,6,-3
1499893737360667,4,-15,0,1,10,3,-5,5
1499893737360667,-3,-40,-1,11,14,0,4,27
1499893737372681,-7,-13,0,13,-14,-2,-6,-18
1499893737372681,-8,-1,-18,-12,6,-3,0,7
1499893737381661,-6,-2,-3,5,-14,0,-4,-11
1499893737381661,4,-14,-1,-14,10,-1,0,-3
1499893737396660,-3,6,0,12,4,0,8,24
1499893737396660,3,4,5,12,7,2,-8,-30
1499893737397663,-6,5,-2,-18,0,-1,0,21
1499893737397663,3,27,7,-3,-32,-6,1,-12
1499893737418661,6,1,-4,34,9,2,3,24
1499893737418661,0,29,15,-5,12,-2,-10,2
1499893737420665,-7,-55,-22,8,21,-2,-5,-2
1499893737420665,5,25,7,2,-13,3,5,1
1499893737432683,-9,-19,3,-12,-20,-2,3,-20
1499893737432683,13,16,-9,-8,-5,-3,3,24
1499893737441665,-9,10,-3,-6,-3,2,-1,7
1499893737441665,2,-29,5,-8,3,0,-7,-18
1499893737456668,2,15,-6,5,7,-5,3,20
1499893737456668,3,-7,13,3,-15,1,9,17
1499893737457665,-10,-22,-7,-29,-8,-5,-15,-29
1499893737457665,-1,20,-11,0,4,3,-1,-2
1499893737478671,8,39,3,12,-9,0,0,-1
1499893737478671,-12,-67,-4,-4,5,0,-1,-25
1499893737480670,4,-6,-12,-1,-19,-1,7,38
1499893737480670,-4,36,5,7,10,-2,-8,-26
1499893737492666,1,-9,-8,-19,-8,-4,2,-1
1499893737492666,-14,-25,-2,-2,-1,-2,-13,4
1499893737501675,11,23,6,10,2,3,4,-8
1499893737501675,-3,-2,-4,6,9,1,-3,0
1499893737516667,-2,-12,0,-6,-3,-4,-2,-9
1499893737516667,-6,-18,3,4,8,1,5,14
1499893737517668,2,7,-7,4,0,-3,-2,-24
1499893737517668,3,26,5,-1,0,-1,1,15
1499893737538689,-7,-13,-7,-3,-2,-2,-6,-8
1499893737538689,0,-10,-11,-3,-11,0,2,-5
1499893737540669,1,28,5,-4,8,-2,-2,0
1499893737540669,-6,-29,-7,-7,-4,-2,0,-4
1499893737552690,4,11,4,5,1,-1,-1,0
1499893737552690,2,12,4,1,5,-1,-2,1
1499893737561674,-6,8,-2,-12,-3,0,2,-2
1499893737561674,-1,-17,-16,2,5,-3,-8,-7
1499893737575692,-2,-4,2,-3,-1,-2,-5,-1
1499893737575692,2,3,1,-1,6,1,3,9
1499893737577672,-2,-9,-3,-2,-4,-1,-1,-7
1499893737577672,-1,18,15,-2,9,2,2,4
1499893737598693,-1,-19,-7,0,-4,-1,-1,4
1499893737598693,-6,13,-11,-7,-8,-5,-5,-8
1499893737600676,-1,16,6,5,2,-1,-4,-1
1499893737600676,3,-7,-5,0,3,-2,-2,-1
1499893737612698,-1,2,3,2,-3,-1,-1,4
1499893737612698,-2,-1,12,0,3,1,8,-2
1499893737621675,-1,-3,-1,0,-1,-3,-4,-15
1499893737621675,-1,13,-7,-5,-5,-1,0,0
1499893737637675,0,-12,2,-7,-12,0,-4,-2
1499893737637675,-6,-10,1,11,16,2,-3,-4
1499893737639675,1,-3,0,-5,-2,-4,-1,1
1499893737639675,1,11,2,-4,-1,0,2,1
1499893737658681,-2,0,-2,0,0,0,0,-2
1499893737658681,3,8,-1,-3,-7,-2,-2,-1
1499893737664682,-5,-17,-4,-1,-1,-3,0,1
1499893737664682,0,-5,-1,4,4,-1,0,0
1499893737672700,1,3,0,0,-6,-3,-2,0
1499893737672700,-1,-2,-6,5,5,0,-2,0
1499893737681678,-1,1,16,1,-1,-3,-3,-3
1499893737681678,-3,7,-11,-7,-6,-3,3,-1
1499893737695677,-2,-4,-21,-4,-1,0,-3,-3
1499893737695677,0,6,-4,-2,-4,1,2,1
1499893737697679,3,-10,1,2,0,0,1,2
1499893737697679,0,6,13,3,1,0,-4,-1
1499893737718679,-2,5,3,-1,4,1,-2,0
1499893737718679,1,13,-8,-5,-4,-1,-1,-3
1499893737720679,-4,-36,-10,-2,-3,-2,-1,-2
1499893737720679,0,-1,2,0,-3,1,1,1
1499893737741689,-1,-2,-1,4,2,-4,0,0
1499893737741689,-2,1,-1,-7,-6,1,-1,-3
1499893737742696,0,5,4,-3,1,2,1,0
1499893737742696,-1,-2,2,0,-1,-4,-2,3
1499893737756703,0,11,-3,-3,-3,-5,-1,-1
1499893737756703,0,-22,-3,-1,-1,1,-1,-1
1499893737757692,0,8,-11,-3,-3,-1,-1,-3
1499893737757692,-1,-2,6,3,1,1,-2,0
1499893737778727,-2,5,2,0,0,0,0,-2
1499893737778727,2,0,2,-4,-5,-5,-1,0
1499893737780683,-1,4,-1,-1,0,-2,-1,1
1499893737780683,-1,9,-3,-1,-1,1,1,-2
1499893737800750,-3,-18,-2,-1,2,0,0,-1
1499893737800750,1,-3,-1,0,-1,0,1,-1
1499893737802699,0,1,0,0,-1,2,-2,-1
1499893737802699,-2,-1,-7,-1,-3,-3,-1,-3
1499893737816689,0,0,9,-2,0,2,-2,-1
1499893737816689,-2,-4,-9,-1,-1,-2,-1,-1
1499893737817704,-1,6,-2,-1,2,1,0,2
1499893737817704,0,5,1,-2,-3,2,2,-1
1499893737838730,0,0,-8,3,0,-1,-1,0
1499893737838730,-3,0,6,0,-4,0,4,13
1499893737840687,-3,-39,-8,-4,-7,-6,-2,-9
1499893737840687,-3,12,-6,-7,-2,-2,-3,-8
1499893737861726,0,-10,4,5,9,2,-1,2
1499893737861726,-1,8,-4,-4,-2,0,-2,-2
1499893737862688,-1,12,1,4,1,0,4,7
1499893737862688,1,-5,3,-8,-1,-2,-2,1
1499893737876712,1,-3,-10,-6,-6,-3,-4,-4
1499893737876712,-5,0,14,9,-1,-2,-2,-3
1499893737877705,-1,5,-5,-2,2,1,0,-2
1499893737877705,-2,-7,2,2,-1,1,0,-3
1499893737898756,2,5,4,-4,4,1,0,2
1499893737898756,0,-3,0,-4,-2,0,-1,-1
1499893737900690,0,6,-5,0,-1,-2,-2,-3
1499893737900690,-1,-2,-1,1,-3,-2,-3,0
1499893737921716,-2,-3,3,1,-1,-1,1,0
1499893737921716,-1,-4,-9,-4,-3,-2,-3,-6
1499893737922701,-1,3,2,-1,0,0,-4,-2
1499893737922701,0,-1,1,0,1,1,1,1
1499893737935736,-2,-4,0,-2,-6,-3,1,0
1499893737935736,-1,2,9,-1,3,2,-1,-1
1499893737942708,1,7,-12,-1,1,0,2,1
1499893737942708,-2,-8,-4,3,-2,-4,-4,-4
1499893737958738,-3,-2,3,-1,-4,-3,-1,-3
1499893737958738,0,1,1,-8,0,1,0,-1
1499893737960718,0,2,3,10,0,0,-1,0
1499893737960718,1,-1,4,5,1,-1,-1,1
1499893737981714,-1,-9,-18,19,-3,0,-2,-4
1499893737981714,-1,0,-5,-40,-3,-3,-2,-2
1499893737982700,-2,1,2,1,-2,0,-1,-1
1499893737982700,-1,-1,2,12,3,-2,0,1
1499893737995739,-1,1,-2,21,-2,-1,-4,1
1499893737995739,1,1,-5,-32,-1,0,0,1
1499893738002766,-1,-1,-3,17,-2,0,-1,-3
1499893738002766,0,-1,-8,-63,1,3,1,-1
1499893738018743,-1,-1,11,24,1,-2,-1,1
1499893738018743,-1,-1,0,20,-4,-4,1,-2
1499893738020698,-1,-2,-12,-7,-2,-2,-3,1
1499893738020698,-3,-3,-2,15,3,1,0,-2
1499893738040770,-1,-2,-5,-22,1,1,1,1
1499893738040770,1,-1,4,6,-2,-1,0,-2
1499893738042705,0,-1,-1,-4,-2,-5,-2,-1
1499893738042705,-2,-4,-6,2,-2,0,-3,-1
1499893738055705,-1,1,5,-12,-3,-3,1,-3
1499893738055705,-2,-2,-1,7,0,0,-2,-2
1499893738062750,-1,0,8,6,3,0,0,1
1499893738062750,-2,0,-9,-3,-1,-1,0,2
1499893738078747,-1,0,2,-10,0,1,1,-1
1499893738078747,-2,0,-3,7,1,-2,-1,-2
1499893738080700,0,0,2,22,-1,0,-2,-2
1499893738080700,-1,-1,13,-53,-5,-5,-4,-1
1499893738100770,0,-1,-11,3,-2,-5,1,-2
1499893738100770,0,1,-3,-6,1,-1,1,1
1499893738102708,-2,-2,-5,14,1,3,0,-1
1499893738102708,-3,-6,0,-39,-8,-5,-1,-4
1499893738115768,-1,1,11,18,-2,-2,-3,-2
1499893738115768,1,0,1,3,3,0,-1,0
1499893738122715,0,-1,-16,3,5,3,2,-1
1499893738122715,0,0,-3,17,1,2,1,0
1499893738138747,-1,-2,-1,-31,-6,-1,-1,1
1499893738138747,-3,-2,-2,27,3,0,-3,-3
1499893738140704,0,1,-3,-38,-7,-4,-3,-1
1499893738140704,-1,-2,5,31,-2,-2,0,-2
1499893738160771,0,-4,-7,-7,-3,-2,0,-1
1499893738160771,-1,2,6,0,0,-1,0,-1
1499893738162712,-3,-5,-7,-5,0,0,0,-2
1499893738162712,0,-1,3,19,-3,-1,-1,0
1499893738175752,0,-1,5,5,0,0,0,0
1499893738175752,0,-1,1,21,-2,-1,-3,0
1499893738182716,-1,1,8,-38,0,0,1,-1
1499893738182716,0,0,-7,-5,2,-3,-3,-1
1499893738198774,-2,0,-8,9,-1,0,-2,-2
1499893738198774,-2,-4,-4,17,-1,-1,0,-2
1499893738200707,1,0,7,-10,-4,-4,-2,-2
1499893738200707,0,0,-1,13,0,1,-1,2
1499893738220779,0,-3,-10,-15,2,0,0,1
1499893738220779,-3,0,3,10,-4,-3,-2,0
1499893738222728,-3,2,12,31,-3,-1,-1,0
1499893738222728,-1,-6,-4,0,-3,-2,0,-2
1499893738234755,0,2,1,26,4,3,0,-2
1499893738234755,-1,-2,-1,-66,-5,-4,-2,-2
1499893738243737,0,-1,-4,-6,-1,-2,-2,-2
1499893738243737,-3,0,4,22,-4,-3,-1,1
1499893738258758,-2,-1,-12,-27,-3,-1,-2,0
1499893738258758,1,-1,-4,9,2,2,1,1
1499893738260711,-1,0,2,-2,-3,-3,-2,0
1499893738260711,-1,0,-4,-5,0,0,-2,-1
1499893738280729,0,-2,0,2,0,-2,-3,-2
1499893738280729,-1,-1,2,5,-5,-2,0,0
1499893738282717,-1,-3,-6,-9,-2,0,0,0
1499893738282717,1,1,1,8,-2,1,0,-1
1499893738294784,-3,0,2,-9,0,1,-1,-1
1499893738294784,-2,-2,-2,18,1,-1,0,-1
1499893738303736,-2,-1,12,-6,2,1,0,-1
1499893738303736,-1,-2,-16,4,1,0,-1,0
1499893738318784,-1,-2,-5,17,-3,-3,-1,-3
1499893738318784,-3,-1,2,-23,-3,-2,-2,-2
1499893738320714,-3,-2,1,-45,-4,-2,-2,0
1499893738320714,0,-2,3,17,-3,0,-1,-2
1499893738340782,0,1,-4,-8,2,-3,-1,0
1499893738340782,0,-1,-4,11,5,0,1,0
1499893738342722,-1,-1,10,39,-4,-2,-1,-2
1499893738342722,-1,1,2,-11,1,-1,-1,0
1499893738354780,2,-1,-2,3,-4,-1,-1,-1
1499893738354780,1,-2,-8,6,0,-1,-2,-1
1499893738363739,0,2,-7,-49,0,-1,-1,1
1499893738363739,-1,-2,1,7,3,1,0,-2
1499893738378779,-1,0,9,14,-2,-2,0,-1
1499893738378779,-2,-1,-5,-6,-5,-1,-1,-3
1499893738380718,0,-1,-6,17,-2,-1,-1,-2
1499893738380718,-1,-1,1,-5,2,1,1,-2
