timestamp,emg1,emg2,emg3,emg4,emg5,emg6,emg7,emg8
1499875745890010,-2,-2,-8,13,-1,0,-2,-4
1499875745890010,0,2,11,2,2,-3,-4,-3
1499875745891024,1,0,-1,-7,-1,1,1,6
1499875745891024,1,1,-1,-4,2,3,2,-1
1499875745920015,0,3,-12,8,-3,4,4,0
1499875745920015,-3,-5,7,-24,-10,-2,-2,-7
1499875745921014,-3,-4,13,17,3,-3,-3,0
1499875745921014,1,0,-1,-8,0,2,-2,2
1499875745927013,2,6,6,15,3,-3,1,-5
1499875745927013,0,-4,-2,-12,-3,-1,-4,-6
1499875745928013,-6,2,6,22,-5,-3,-3,3
1499875745928013,-6,-7,-10,-28,-10,-5,-3,-13
1499875745949014,2,-3,2,37,0,-4,-1,15
1499875745949014,-1,1,-15,-57,-4,-2,-3,-17
1499875745950012,0,0,1,-15,1,-2,0,-9
1499875745950012,-2,1,-7,7,7,4,-3,22
1499875745972021,-4,-3,14,11,0,-5,-1,-3
1499875745972021,-2,2,13,41,-1,-3,-6,5
1499875745973018,2,-3,0,21,-1,0,0,4
1499875745973018,3,0,-8,-44,-6,-2,10,-2
1499875745987022,-10,-2,-2,-16,1,2,-1,-20
1499875745987022,3,-1,-12,-1,2,-1,1,19
1499875745988015,-2,-2,15,18,-1,1,-3,-3
1499875745988015,1,-1,-3,0,-1,1,0,2
1499875746010020,0,-2,-2,27,-4,0,2,3
1499875746010020,0,5,2,-5,2,-3,0,-9
1499875746017024,3,1,-15,-16,-3,1,0,8
1499875746017024,1,-1,11,25,-2,-4,-2,-7
1499875746032021,-5,-13,-11,-24,13,-3,-7,-7
1499875746032021,-8,-4,11,59,2,1,-1,-4
1499875746033018,4,1,-3,7,-1,-4,-3,2
1499875746033018,-4,-29,-34,-84,-2,-3,-3,-3
1499875746047040,-2,3,5,-33,-12,-2,-4,-5
1499875746047040,5,0,9,68,18,4,3,6
1499875746048019,-2,1,-8,66,5,8,0,5
1499875746048019,-6,7,65,23,-14,-16,-13,-10
1499875746069019,4,6,-30,-95,6,6,24,-7
1499875746069019,-1,-2,-3,26,-5,-4,-7,-2
1499875746070019,5,5,-11,-119,-11,-6,-79,-1
1499875746070019,-4,2,-22,77,8,10,92,-2
1499875746092022,-4,-1,-6,0,-7,-7,-25,-10
1499875746092022,-1,-13,-25,-95,-16,-3,22,2
1499875746093020,-17,-5,-20,-33,6,-2,-27,-13
1499875746093020,0,-3,-3,8,0,2,-29,-19
1499875746107041,-1,-4,24,6,-7,-4,-2,26
1499875746107041,-2,1,-12,4,5,7,-11,-10
1499875746108021,-1,-5,-4,24,-2,-2,17,1
1499875746108021,-1,5,15,-1,0,0,-8,-1
1499875746129025,5,13,8,31,5,7,15,-6
1499875746129025,3,7,4,-2,-1,-6,-19,-1
1499875746130023,-6,-15,1,-50,-7,2,32,0
1499875746130023,-6,10,8,32,3,-2,-7,2
1499875746152025,4,-14,-28,-36,2,3,-10,-1
1499875746152025,3,4,14,45,-1,-3,-1,1
1499875746152025,-2,-5,-7,6,-2,-2,18,1
1499875746152025,5,2,6,-27,5,5,-10,8
1499875746167027,5,-1,9,34,-3,-9,-13,4
1499875746167027,-16,-42,-21,-88,-12,-6,-11,-8
1499875746168026,11,18,15,-8,0,1,33,0
1499875746168026,10,52,-6,-17,-6,1,-14,-7
1499875746189063,2,4,23,44,10,0,4,6
1499875746189063,-10,-89,-12,-23,-5,-1,5,1
1499875746190028,-21,-27,3,78,5,-1,-3,-8
1499875746190028,8,0,-2,-50,5,4,-6,32
1499875746212028,3,20,1,-3,-12,-8,2,-22
1499875746212028,-8,42,55,66,11,2,-2,-8
1499875746214029,-3,9,-35,-61,-6,1,-6,-20
1499875746214029,12,54,-26,-12,-3,-7,-11,16
1499875746227049,-13,-89,2,59,14,12,12,-1
1499875746227049,4,-14,-4,-57,1,1,17,4
1499875746228034,19,43,20,44,1,-2,9,83
1499875746228034,-23,1,3,-72,-17,-10,3,-15
1499875746249031,-7,44,-33,-15,-11,-1,-9,-24
1499875746249031,0,12,-1,-62,6,5,10,-4
1499875746250031,2,-21,13,55,-11,-9,-18,-30
1499875746250031,13,-20,12,91,4,2,-4,24
1499875746273032,-11,-6,-12,35,-5,-1,2,22
1499875746273032,16,61,-8,-84,-13,-7,7,40
1499875746274032,12,39,-6,-24,10,14,11,-7
1499875746274032,10,49,24,-6,-5,-6,-6,1
1499875746287032,-17,-54,-12,-13,-8,-6,-18,-58
1499875746287032,-17,-81,-22,59,5,2,-5,25
1499875746287032,8,34,34,29,-2,-1,12,9
1499875746287032,-13,-15,-54,1,-5,-10,-5,-99
1499875746309040,36,127,22,-71,0,-1,10,68
1499875746309040,-28,-3,-16,-55,-9,-10,-48,-54
1499875746310033,15,-55,39,78,-4,-5,10,60
1499875746310033,-26,-5,-15,-39,-15,-5,21,30
1499875746332043,-2,26,-11,-66,-2,9,7,0
1499875746332043,5,60,30,90,9,0,-8,-56
1499875746333035,-1,22,9,5,-10,-6,-9,-20
1499875746333035,27,78,-50,-82,-5,-6,-15,24
1499875746348035,-74,-86,-41,58,-12,-15,-26,-65
1499875746348035,-42,-29,22,87,-2,-2,-9,9
1499875746349035,31,61,-15,-32,27,19,11,-17
1499875746349035,16,104,55,50,-7,-3,-4,66
1499875746378039,57,54,17,-126,-19,-12,-34,3
1499875746378039,-8,-72,-78,32,18,6,46,-39
1499875746379037,-17,83,105,6,-4,4,24,17
1499875746379037,5,-128,-119,-19,-14,-4,-38,-24
1499875746392041,-25,-48,75,127,18,-1,27,49
1499875746392041,2,-11,39,-46,-9,-7,-6,29
1499875746392041,-5,54,-63,-75,-4,-8,-59,-67
1499875746392041,-18,-49,-1,43,11,6,1,-28
1499875746407046,-40,-48,-78,-81,-14,-1,35,40
1499875746407046,98,37,10,78,30,18,29,111
1499875746408045,-51,27,4,-4,8,-2,-15,-27
1499875746408045,-24,-65,10,40,-10,8,27,88
1499875746429042,-9,8,-23,-24,-5,-11,-90,-103
1499875746429042,11,37,-12,-45,-10,6,71,55
1499875746431041,8,-29,64,16,11,-4,-23,-16
1499875746431041,15,44,28,51,-12,-8,0,-31
1499875746452062,-3,-30,-8,-102,-25,2,15,37
1499875746452062,-10,59,-43,76,16,1,-27,-40
1499875746453041,-14,-62,-76,-31,-40,-4,24,35
1499875746453041,39,-8,67,17,44,11,38,37
1499875746467049,-13,91,-6,85,6,-8,-26,-17
1499875746467049,0,23,73,-35,-26,-20,-57,-63
1499875746467049,-23,-99,-98,-61,-12,-6,3,-25
1499875746467049,-6,-22,-13,-4,4,1,7,-51
1499875746489049,44,-25,24,5,2,7,34,21
1499875746489049,-1,26,47,32,3,5,-7,22
1499875746490044,4,12,-39,23,13,-4,0,8
1499875746490044,15,48,16,-39,0,13,15,1
1499875746512064,-10,-33,31,69,10,-3,3,39
1499875746512064,17,78,-25,-61,-6,-2,5,-10
1499875746512064,-1,-78,-33,-25,-16,-3,10,-13
1499875746512064,-12,23,29,19,6,4,-22,-29
1499875746527046,48,106,18,29,12,9,30,66
1499875746527046,-13,-72,-28,-13,22,3,14,21
1499875746528046,-50,-60,8,7,6,-9,-37,-8
1499875746528046,-24,-65,-38,4,-30,-11,-21,-6
1499875746549048,-19,85,13,17,42,10,-6,-35
1499875746549048,24,-47,-11,-8,-22,3,13,22
1499875746550049,-7,6,8,-9,6,-7,-16,-61
1499875746550049,-9,4,39,33,-12,-5,-8,8
1499875746572049,-10,-69,2,24,24,-5,11,4
1499875746572049,3,106,14,20,-6,-1,-11,-19
1499875746573049,40,-43,7,-4,-20,0,10,22
1499875746573049,-30,-44,-41,-128,13,-8,-10,14
1499875746586052,9,94,-15,61,-15,3,5,-19
1499875746586052,13,28,13,-2,-9,1,5,40
1499875746594067,-24,-25,13,20,4,-10,-21,-47
1499875746594067,11,-46,-2,-39,-23,-2,12,-15
1499875746609051,8,-1,17,-11,15,4,5,12
1499875746609051,-29,-63,-27,47,-2,-7,-7,17
1499875746610054,25,72,15,11,0,1,18,50
1499875746610054,-38,8,2,-31,-35,-8,-27,-39
1499875746632055,-1,-57,0,-20,17,4,8,53
1499875746632055,-31,-69,-2,-36,1,-3,-10,-26
1499875746632055,10,15,8,-7,-6,-2,21,12
1499875746632055,-32,-16,35,43,9,6,3,-5
1499875746647056,35,-38,3,-42,13,5,18,12
1499875746647056,-23,-62,-14,-55,-33,-9,-20,-32
1499875746647056,18,-12,-34,23,27,3,6,45
1499875746647056,40,70,13,70,45,4,15,48
1499875746669070,-55,-66,-72,-96,-32,-5,-19,-45
1499875746669070,2,31,18,16,-2,-3,2,54
1499875746670053,-7,93,16,38,-11,10,6,-41
1499875746670053,16,49,-7,66,-7,2,2,38
1499875746692056,41,-26,14,-28,-19,-7,-14,-86
1499875746692056,-13,-35,-49,-6,15,4,1,32
1499875746692056,11,111,59,20,-3,-7,-9,33
1499875746692056,4,-103,-38,-84,19,-6,-3,-27
1499875746706058,0,50,25,70,-19,-1,6,22
1499875746706058,32,127,68,-19,17,6,24,57
1499875746714062,-16,-104,-67,-4,-7,-3,-34,-73
1499875746714062,-13,-9,22,38,5,1,5,-43
1499875746730076,-4,25,-7,-1,-28,-7,-3,54
1499875746730076,3,22,-4,-76,21,0,-1,-60
1499875746730076,35,85,36,20,-15,5,31,90
1499875746730076,-20,31,-5,-14,49,0,-16,-86
1499875746752061,49,-42,-21,8,-33,6,15,80
1499875746752061,-53,-35,34,101,-37,-13,-32,-33
1499875746752061,0,-51,17,-59,6,6,18,29
1499875746752061,2,-14,-51,-4,-11,2,-10,-6
1499875746766079,11,113,41,-19,14,-1,-1,39
1499875746766079,-16,-88,-41,-24,-27,-3,6,-7
1499875746774061,-3,54,28,20,1,8,-6,-9
1499875746774061,-2,-41,-21,10,-29,-7,5,72
1499875746789067,0,39,40,5,12,4,-3,-52
1499875746789067,34,80,-34,5,25,11,4,-3
1499875746790063,0,-27,-31,-10,-2,-10,0,35
1499875746790063,-36,-15,46,11,11,1,-1,-76
1499875746812063,-26,-10,-47,35,0,-5,-1,-35
1499875746812063,-11,-71,27,2,30,-1,17,17
1499875746812063,25,-29,-10,-45,-1,4,-16,-67
1499875746812063,41,96,7,77,-44,-3,0,56
1499875746826063,-59,-108,10,-83,-5,4,-22,-91
1499875746826063,-22,-13,4,87,-19,-15,-29,-47
1499875746834064,-3,18,14,-44,45,9,25,23
1499875746834064,8,-1,-27,-7,6,5,9,25
1499875746849066,62,127,45,-1,24,1,6,43
1499875746849066,31,127,-64,-44,-42,-5,-9,-77
1499875746850064,-61,-44,-13,12,-7,-18,4,53
1499875746850064,-47,115,-8,-65,-9,-2,-30,-65
1499875746872099,36,105,2,37,26,3,0,-11
1499875746872099,-19,-29,0,-25,68,1,-2,12
1499875746872099,12,-42,-37,19,-13,-8,-24,-79
1499875746872099,17,91,14,-21,-21,1,26,30
1499875746886086,13,-10,-18,44,0,6,22,34
1499875746886086,-1,17,31,-25,-6,-3,-40,11
1499875746895068,10,15,11,47,-8,6,16,-1
1499875746895068,-5,-105,-25,51,17,-3,20,62
1499875746909068,-13,-26,41,19,-23,-11,-37,-87
1499875746909068,-25,-19,-58,-63,-1,8,37,28
1499875746910068,19,-39,10,37,-3,-15,-22,-11
1499875746910068,-7,73,-16,-49,12,1,-6,-45
1499875746932074,4,-126,-42,-5,-28,-13,-38,-45
1499875746932074,-11,73,28,72,33,2,-1,-25
1499875746932074,5,110,25,-85,-71,4,9,-28
1499875746932074,-1,-19,-30,10,100,-2,-14,-50
1499875746946072,-8,10,-35,41,6,-9,15,14
1499875746946072,-21,15,-18,-105,-14,-1,25,7
1499875746954076,-6,72,34,23,6,4,-10,44
1499875746954076,52,43,59,67,-29,9,6,7
1499875746969072,-85,-38,-37,-12,32,-5,17,5
1499875746969072,57,60,19,-2,-18,-3,-34,-56
1499875746970071,-27,58,-36,17,9,8,23,-45
1499875746970071,8,19,5,-9,-29,-14,-34,31
1499875746992092,-16,-119,18,-31,11,16,40,66
1499875746992092,-1,-32,20,31,-39,-7,-11,-8
1499875746992092,17,-75,4,45,25,8,28,72
1499875746992092,-8,-48,-49,-44,9,-2,-28,-39
1499875747015074,-6,127,19,22,-33,-2,-21,-21
1499875747015074,66,87,-18,-29,19,7,30,95
1499875747016074,-68,-61,4,-29,-16,-16,-34,-60
1499875747016074,79,78,17,10,-7,18,34,-2
1499875747029075,-64,31,-30,42,33,7,10,16
1499875747029075,-20,38,30,-13,-61,-6,26,13
1499875747030075,38,66,2,29,110,13,-27,-27
1499875747030075,8,88,-20,-12,-6,5,18,45
1499875747052077,13,37,50,-12,-11,-18,-32,-76
1499875747052077,56,67,-6,-55,6,9,23,59
1499875747052077,-43,-104,-22,-9,-14,3,-1,11
1499875747052077,-62,-64,56,43,-5,-13,-10,5
1499875747075082,24,-32,19,-9,-8,1,-13,-75
1499875747075082,-49,-96,-32,26,-5,-1,12,42
1499875747076085,32,111,7,-52,-42,-2,-4,20
1499875747076085,-1,-90,-40,48,15,-4,7,-47
1499875747089087,18,-56,22,-77,-18,-1,2,107
1499875747089087,-7,-128,0,19,-4,-2,-9,-16
1499875747090080,10,110,-11,-57,-33,-5,-8,-12
1499875747090080,93,100,-41,50,-7,16,38,6
1499875747112096,-80,-58,-55,-39,19,-21,-46,20
1499875747112096,4,95,59,7,-20,4,-5,-12
1499875747112096,40,36,-10,30,37,2,23,33
1499875747112096,-53,25,100,-23,-29,-5,-14,-29
1499875747135087,51,27,-74,7,-14,5,31,-7
1499875747135087,51,86,14,24,15,-12,-22,37
1499875747136100,-98,-128,10,-32,-21,-17,-44,-33
1499875747136100,12,91,41,-3,2,-4,0,39
1499875747149095,12,95,-3,20,10,9,39,63
1499875747149095,-23,42,-67,39,-9,-6,-17,-83
1499875747150085,45,127,45,-12,-5,9,27,39
1499875747150085,-77,-128,11,-53,-6,-19,-47,-55
1499875747172101,8,15,-41,24,-5,4,18,57
1499875747172101,-58,35,26,65,5,-6,-48,-105
1499875747173084,47,0,-94,-1,19,2,38,64
1499875747173084,-19,-59,7,-42,-19,-5,-20,29
1499875747195104,1,127,99,22,-19,0,-21,-81
1499875747195104,3,-1,-28,-34,17,0,4,27
1499875747196104,6,-5,-16,-22,-29,-7,13,-8
1499875747196104,-35,-19,15,-14,22,4,0,-34
1499875747209090,61,97,-39,4,-15,0,17,50
1499875747209090,-28,-61,92,17,12,-5,-27,-55
1499875747210086,55,89,-54,-5,-5,19,51,57
1499875747210086,-37,9,25,-27,11,-21,-61,-29
1499875747232087,-2,41,0,-34,12,3,-2,12
1499875747232087,4,20,-17,8,14,13,27,8
1499875747232087,-8,28,-12,102,13,-2,3,-1
1499875747232087,18,-28,64,-43,-12,6,-11,-21
1499875747255090,-30,-38,36,-22,30,-9,-21,54
1499875747255090,9,-30,-17,9,-7,0,-5,-20
1499875747256094,11,29,-42,42,-12,-1,20,88
1499875747256094,7,57,-30,-53,4,-1,-2,15
1499875747269094,-23,-39,22,1,-25,-8,-23,-97
1499875747269094,-7,-39,11,-18,37,6,9,34
1499875747277089,-2,6,34,35,-7,-17,-21,-24
1499875747277089,18,-30,-45,48,11,7,22,1
1499875747292107,22,85,-34,-42,-11,12,14,18
1499875747292107,-13,-66,-50,7,-5,-10,-7,-44
1499875747292107,-43,-34,103,31,-2,-6,-13,-22
1499875747292107,25,69,-2,-54,-12,2,0,52
1499875747315097,-6,-7,27,39,13,4,17,-36
1499875747315097,18,61,-43,89,-4,1,-18,-25
1499875747316092,35,-102,69,-119,-7,-13,-41,-66
1499875747316092,-49,-82,-51,42,-39,2,34,55
1499875747329093,20,-18,-49,-26,-5,3,24,78
1499875747329093,85,97,-9,6,-8,-2,-9,15
1499875747330094,-86,-17,82,-3,8,-9,-30,-70
1499875747330094,22,61,-19,-7,31,3,15,62
1499875747352099,-14,-24,-13,-32,-52,-5,-10,-50
1499875747352099,-15,-18,-12,17,62,2,13,45
1499875747352099,21,50,-46,-28,-40,6,9,-4
1499875747352099,1,-8,-24,-2,-4,2,11,-29
1499875747375098,-17,-15,62,51,-10,-11,-2,23
1499875747375098,-1,18,-7,-42,-29,-6,-6,-24
1499875747376113,-11,-19,8,28,2,0,2,84
1499875747376113,-18,47,47,-26,13,-2,-2,-5
1499875747389097,19,-35,-29,-12,-10,7,0,-1
1499875747389097,-1,22,14,-4,-1,0,7,22
1499875747390097,-24,-89,-31,-17,-22,1,-1,-25
1499875747390097,-19,0,-11,59,28,-8,-13,-31
1499875747412097,-1,-2,72,19,12,-7,-3,20
1499875747412097,3,8,-4,-7,-30,0,5,-8
1499875747412097,1,38,-26,49,59,13,-4,-41
1499875747412097,7,34,-32,-16,-33,-4,11,6
1499875747435099,9,-16,-24,6,17,5,2,-2
1499875747435099,-21,-76,29,-14,-25,-8,-6,-32
1499875747442099,9,-44,-57,-27,45,18,32,70
1499875747442099,30,18,22,8,-17,-2,-16,0
1499875747449117,-14,-24,10,24,1,-1,-5,-23
1499875747449117,-9,105,-25,-23,-13,0,0,-25
1499875747450100,-4,-72,9,7,-37,-2,0,-9
1499875747450100,22,33,-18,3,42,4,11,7
1499875747472118,0,-57,43,-24,34,-4,-11,-27
1499875747472118,-11,-39,1,32,-42,2,18,47
1499875747472118,-1,69,13,-43,17,-4,-29,-36
1499875747472118,7,11,-12,1,-16,3,13,9
1499875747495108,-18,-15,37,31,-6,-5,-28,-36
1499875747495108,4,-51,-19,-30,3,0,4,32
1499875747496106,-3,29,-29,9,2,2,9,19
1499875747496106,20,-9,-28,-1,0,-1,-2,-22
1499875747509103,-2,66,-9,-17,-22,-3,5,62
1499875747509103,-1,-48,-15,46,41,7,33,70
1499875747510103,-11,21,40,-2,-23,-15,-48,-70
1499875747510103,2,22,-5,-62,-16,8,5,-19
1499875747532110,-6,-48,-15,15,2,-7,0,0
1499875747532110,-7,-19,32,14,-3,1,-2,-23
1499875747532110,69,92,-46,15,19,6,23,31
1499875747532110,-55,8,74,-17,-26,-11,-30,-61
1499875747555106,20,124,-53,0,19,3,4,-13
1499875747555106,-22,-117,-11,-1,-17,3,1,14
1499875747556110,-22,41,25,-16,-2,-9,6,-34
1499875747556110,2,49,-4,20,-31,4,-14,-37
1499875747569106,19,-99,-13,-10,5,-1,9,3
1499875747569106,-7,72,55,31,31,2,2,0
1499875747570105,-7,-44,-25,9,-16,-6,-10,-10
1499875747570105,13,41,17,6,10,-12,5,35
1499875747592114,-37,-44,11,-4,-43,-6,-11,-40
1499875747592114,29,44,-37,-32,14,10,3,23
1499875747592114,-14,59,22,1,-12,-8,-16,-34
1499875747592114,5,-42,40,12,-8,4,11,1
1499875747615109,12,33,-31,28,40,10,7,6
1499875747615109,-1,91,5,-24,-50,-16,-30,-72
1499875747615109,-16,-85,20,17,36,1,9,41
1499875747615109,8,45,-61,-61,0,-6,5,-2
1499875747628110,0,-14,-23,31,4,7,7,-17
1499875747628110,-38,-38,69,-20,5,-6,-10,-16
1499875747637110,10,86,-15,-13,-37,0,-9,-12
1499875747637110,-15,-128,-14,28,32,-2,12,68
1499875747652131,-2,33,40,2,-3,2,-1,-33
1499875747652131,22,66,-16,-37,-37,-7,1,32
1499875747652131,-13,33,-8,13,66,2,11,8
1499875747652131,17,-72,-2,57,-24,1,-10,-12
1499875747675112,-13,38,-39,-58,7,-4,1,0
1499875747675112,-18,-25,60,-89,23,-4,-18,5
1499875747676112,35,95,-37,29,-10,12,29,51
1499875747676112,-22,41,48,-1,-4,-3,-1,-42
1499875747688117,4,-36,19,-12,6,-2,-17,-16
1499875747688117,4,-4,-3,1,-18,-1,6,-7
1499875747697113,11,0,-4,5,14,-4,13,67
1499875747697113,-13,-9,18,19,2,1,2,-17
1499875747712116,4,13,-24,53,-35,-5,-17,0
1499875747712116,-4,-43,-10,-62,28,1,4,27
1499875747712116,12,60,2,0,-17,-2,0,37
1499875747712116,-34,-83,13,6,1,-8,-8,20
1499875747735116,-2,-15,73,-7,-8,-2,5,5
1499875747735116,8,47,-9,42,1,3,-6,-25
1499875747736117,-6,-53,15,-5,-7,-5,-7,-26
1499875747736117,19,29,-69,-5,-53,-3,8,28
1499875747748118,4,95,18,-26,44,8,1,7
1499875747748118,-4,-61,-5,65,35,5,15,29
1499875747757117,-20,-55,8,-57,-20,0,-23,-40
1499875747757117,20,77,-39,28,7,9,7,6
1499875747772127,-2,-32,82,-12,14,-1,-5,25
1499875747772127,3,10,-43,0,-27,-6,10,16
1499875747772127,-6,-46,-10,-24,-27,-1,-2,-45
1499875747772127,1,-2,-16,-40,45,2,-4,68
1499875747795121,32,91,-20,-2,-28,1,19,60
1499875747795121,-42,-107,15,4,30,-3,-28,-69
1499875747796120,-8,15,4,33,0,-7,-8,-32
1499875747796120,9,-21,26,-3,-20,5,10,-6
1499875747808124,-4,14,-53,24,-27,-7,-13,-36
1499875747808124,12,52,32,11,13,0,2,14
1499875747817120,14,-41,-30,57,-20,-2,8,29
1499875747817120,-22,-29,44,-49,22,-5,-30,-19
1499875747840128,10,53,-33,5,-3,2,12,42
1499875747840128,-4,-43,10,-20,-27,-3,1,-10
1499875747841142,0,-11,-1,7,8,4,11,34
1499875747841142,-16,-6,8,42,2,-6,-8,-70
1499875747855124,1,-26,-13,-10,-15,-5,-24,-28
1499875747855124,35,119,-22,-30,-5,1,18,28
1499875747856133,-39,-71,81,-33,18,-3,-16,-66
1499875747856133,-2,26,-21,-2,24,0,-10,15
1499875747869123,-11,18,-25,-38,-3,0,5,17
1499875747869123,-10,-54,-49,10,16,-4,-16,-7
1499875747877126,10,19,-13,30,15,1,19,28
1499875747877126,22,84,-33,-17,-32,0,8,-9
1499875747892134,-30,-32,32,-32,6,-2,-12,-27
1499875747892134,19,23,-7,6,-19,-3,10,55
1499875747892134,7,-30,21,-8,1,-3,2,4
1499875747892134,0,-8,22,6,-9,1,-10,-38
1499875747915128,19,-26,-9,27,49,-2,3,38
1499875747915128,0,32,-18,0,-19,-4,-12,-22
1499875747916127,-30,-8,9,-19,-19,-3,-11,-34
1499875747916127,7,10,-1,-28,24,13,28,64
1499875747929129,-5,-83,-3,-26,-7,-7,-16,-54
1499875747929129,10,-1,19,22,-24,-11,-2,13
1499875747937128,-27,-18,61,-7,64,4,-7,-3
1499875747937128,27,30,-59,27,-17,-3,6,-5
1499875747952130,-21,-16,44,-4,-15,1,5,-4
1499875747952130,3,-43,8,19,40,6,0,-5
1499875747952130,-3,-22,-2,-17,-36,3,-2,-3
1499875747952130,2,29,34,17,-9,-4,7,12
1499875747975132,18,-3,-33,-3,17,5,3,-3
1499875747975132,3,106,-1,23,-34,-6,-6,-22
1499875747976152,-5,-45,1,33,19,1,10,-8
1499875747976152,3,-43,7,-72,-32,-4,-7,11
1499875747997133,-14,1,24,6,-21,-12,-11,12
1499875747997133,7,104,26,-50,25,6,-2,16
1499875747998134,23,102,-64,29,-39,-5,-1,-2
1499875747998134,-32,15,55,-14,31,-5,-10,8
1499875748012131,0,23,5,37,-33,-4,2,3
1499875748012131,-10,-18,-25,-27,6,2,7,-4
1499875748012131,20,104,16,13,-1,-1,-10,22
1499875748012131,1,-66,56,-42,-50,-6,-6,-37
1499875748035152,13,79,-29,99,35,6,9,-15
1499875748035152,-26,-55,28,-41,2,-3,-5,-3
1499875748036153,4,50,14,-30,-2,0,1,-7
1499875748036153,-5,-23,-40,53,-18,1,16,-30
1499875748057152,-29,-58,38,-14,31,-2,-18,-17
1499875748057152,9,-36,-31,-15,-9,2,10,5
1499875748058144,-4,-35,-18,-15,-50,-12,-16,16
1499875748058144,14,59,12,64,54,1,2,9
1499875748072141,3,-43,-4,-39,-31,4,7,25
1499875748072141,-25,-44,18,27,19,-2,-10,-31
1499875748073141,16,47,7,-58,-9,0,3,16
1499875748073141,-29,-117,39,48,27,-3,2,34
1499875748095195,24,113,-69,-4,-15,1,10,-5
1499875748095195,-23,-88,-8,1,-10,1,0,-22
1499875748096143,12,15,60,-16,-2,-5,-15,-61
1499875748096143,11,31,-78,29,15,8,4,-5
1499875748117144,-22,45,83,-39,-10,-4,8,51
1499875748117144,11,-73,-29,26,-25,-4,-2,14
1499875748118139,-18,-50,7,19,11,-9,-18,-20
1499875748118139,5,24,-44,18,-16,4,4,29
1499875748132156,12,8,22,-33,1,2,3,-27
1499875748132156,1,45,2,1,-11,-3,-7,-10
1499875748132156,-8,-25,-33,9,8,7,19,21
1499875748132156,1,-41,9,13,-29,-8,-16,15
1499875748155143,4,10,5,29,28,3,-4,-6
1499875748155143,-7,90,27,0,-2,3,-1,5
1499875748157140,6,-92,-21,3,12,0,10,21
1499875748157140,-3,41,7,-15,-22,-6,-17,-4
1499875748177149,2,-20,-10,-11,35,2,4,-5
1499875748177149,11,44,-10,-14,-9,4,3,-11
1499875748178143,-3,-2,-12,22,2,1,0,35
1499875748178143,7,69,-1,-12,-11,-1,4,-13
1499875748192152,8,3,-42,17,-37,-5,-15,-21
1499875748192152,-12,9,61,-3,34,0,-1,26
1499875748192152,-5,62,23,-24,-27,-3,-6,-26
1499875748192152,4,-89,-46,-21,13,-5,0,17
1499875748215146,-16,-2,30,-34,7,-1,5,12
1499875748215146,15,48,-20,31,-12,-3,9,5
1499875748216160,4,17,11,11,5,7,0,-11
1499875748216160,3,44,24,-2,-1,-2,7,12
1499875748238145,-17,-95,12,30,0,-4,-22,-69
1499875748238145,-1,-43,-33,-1,-24,0,5,-2
1499875748239157,-3,-52,-9,-42,23,7,13,43
1499875748239157,-7,48,25,-19,13,0,-4,-25
1499875748252146,15,16,-70,29,-5,-2,11,69
1499875748252146,-7,-11,42,-31,-12,-7,-10,-19
1499875748252146,-9,-60,-22,-3,-22,-3,-3,-1
1499875748252146,9,32,-32,6,14,0,25,41
1499875748275147,7,7,4,-15,3,-2,-19,-47
1499875748275147,-15,5,9,-42,-22,-3,-23,-34
1499875748276151,-8,-18,-14,31,13,-1,-3,-1
1499875748276151,17,64,-1,4,-28,1,6,20
1499875748297153,-19,-51,71,2,55,-7,1,14
1499875748297153,-3,3,-17,-55,-11,0,-8,-13
1499875748298148,0,16,-4,-8,-7,0,-1,6
1499875748298148,4,-35,-39,11,20,3,9,18
1499875748312150,-18,36,-37,-6,-40,-6,-12,-25
1499875748312150,17,30,20,34,14,-1,-2,1
1499875748312150,-5,-68,-15,-41,40,8,-2,-12
1499875748312150,-12,-18,72,-8,-13,-8,-6,-10
1499875748335156,10,44,-48,6,-35,-1,13,53
1499875748335156,-3,-8,-3,9,44,6,-4,-12
1499875748336151,10,0,4,-5,-33,-11,9,5
1499875748336151,-14,12,-7,6,1,-1,-25,-11
1499875748357157,4,-41,5,9,1,4,15,-5
1499875748357157,1,26,1,20,-5,-5,6,23
1499875748358151,9,-7,6,7,6,-1,-11,-9
1499875748358151,-15,-13,38,-8,1,-4,-12,-29
1499875748372187,0,-18,23,46,8,10,8,-2
1499875748372187,7,0,-14,-13,12,5,4,17
1499875748372187,1,106,-9,10,2,-1,5,4
1499875748372187,12,-34,-6,-25,-15,1,17,-1
1499875748395154,-4,15,26,-26,-17,-7,-24,-22
1499875748395154,3,44,-13,22,-11,0,2,-7
1499875748396157,-1,-73,27,-19,22,-1,-3,26
1499875748396157,-35,16,8,47,22,0,-17,-66
1499875748417156,14,7,2,-24,-37,-10,8,17
1499875748417156,-5,-1,-26,-7,7,2,-7,-26
1499875748419156,-1,39,35,30,-41,-2,4,-9
1499875748419156,1,-31,-25,-7,1,1,17,57
1499875748432173,7,57,-18,-6,19,0,-21,-53
1499875748432173,-12,-61,50,-36,-33,-8,-6,23
1499875748432173,10,127,-16,27,-25,-1,-4,-27
1499875748432173,3,-89,48,-5,19,1,-2,17
1499875748455157,-14,6,5,3,4,4,13,7
1499875748455157,15,41,-56,13,-2,-7,15,75
1499875748457171,-23,-67,62,-51,-53,-7,-16,-44
1499875748457171,3,38,-11,4,31,-2,-8,13
1499875748477159,6,-22,-28,9,7,1,9,30
1499875748477159,-2,-34,41,15,3,-1,-8,-37
1499875748478158,-13,8,-3,-9,14,-4,-8,11
1499875748478158,16,73,-17,-43,2,3,3,4
1499875748508169,-17,-120,9,-17,0,-8,-17,-22
1499875748508169,-5,21,-42,45,2,4,4,-14
1499875748508169,4,-26,13,-6,-11,-5,6,14
1499875748508169,-4,48,-17,27,-33,-3,-5,-7
1499875748515160,5,-16,19,-13,42,3,7,33
1499875748515160,-5,25,-5,2,-16,2,0,-45
1499875748516180,4,42,-38,40,-21,5,2,-18
1499875748516180,-17,-110,26,5,34,-2,2,20
1499875748537163,13,101,-9,3,-25,1,2,-9
1499875748537163,7,-110,45,20,2,-6,-10,-19
1499875748538164,-20,-66,1,-46,11,2,4,-14
1499875748538164,24,58,0,9,-17,-2,0,-2
1499875748552167,12,59,-1,-27,-2,2,7,28
1499875748552167,-16,-4,-13,-1,2,4,5,17
1499875748552167,25,35,-29,13,35,0,11,42
1499875748552167,-6,-66,50,6,-3,-6,-32,-67
1499875748575164,-16,8,-5,16,-5,-6,-11,-13
1499875748575164,2,90,14,-9,-7,3,7,15
1499875748576183,-17,9,6,16,31,-4,0,22
1499875748576183,-1,26,-30,5,1,6,13,-7
1499875748597167,4,55,-30,-44,4,2,0,-7
1499875748597167,-5,-7,34,-45,-22,-6,-2,-20
1499875748598167,-13,33,-16,30,2,-1,-8,-38
1499875748598167,7,21,-24,17,-4,0,17,13
1499875748620171,1,-84,18,9,17,7,-10,-24
1499875748620171,3,27,-16,15,-16,-2,17,-5
1499875748621167,6,-57,29,-14,2,-7,-32,-42
1499875748621167,-23,19,-1,5,9,-1,-11,10
1499875748635169,19,-36,-30,2,-24,-2,15,10
1499875748635169,16,16,-19,9,24,1,-6,27
1499875748636172,-16,-85,16,31,-13,-5,-2,-24
1499875748636172,14,28,-24,-76,-11,8,15,20
1499875748657171,-3,4,-43,24,4,1,-4,-36
1499875748657171,-9,15,-3,-6,40,0,-9,24
1499875748658172,18,16,1,-11,3,3,14,46
1499875748658172,-15,-22,-5,41,-13,-2,-3,17
1499875748671188,3,61,31,-7,17,-10,-9,5
1499875748671188,17,27,-9,-18,3,4,-2,6
1499875748679187,-20,-59,0,10,2,-2,-8,-17
1499875748679187,-8,9,-12,49,19,3,13,31
1499875748694172,8,7,13,-52,-46,0,10,21
1499875748694172,-36,-47,7,21,25,-13,-51,-48
1499875748702173,31,127,12,-34,6,5,3,17
1499875748702173,-8,-58,54,12,0,-7,-5,-22
1499875748717189,-7,7,-32,9,5,2,5,19
1499875748717189,7,-83,3,19,1,-1,5,-7
1499875748718174,18,50,-31,24,-28,3,4,10
1499875748718174,3,-28,-10,-44,8,-2,-11,-44
1499875748731175,-13,7,14,19,-20,0,4,-12
1499875748731175,7,-3,4,-3,10,-4,5,-8
1499875748739176,-13,-16,10,-12,-16,-5,-5,-8
1499875748739176,16,119,-18,-16,-21,1,14,14
1499875748755219,-8,-4,50,-7,36,0,0,16
1499875748755219,-17,-45,5,-11,-55,-6,0,-4
1499875748756175,-9,-16,15,16,34,1,-10,-3
1499875748756175,-9,-6,-7,-5,-16,-1,-4,-1
1499875748777195,19,14,-11,13,-29,-5,3,9
1499875748777195,-8,-47,7,-32,6,0,19,28
1499875748778176,-13,-18,11,-12,21,-4,-24,-32
1499875748778176,-1,-12,20,-42,-31,0,-5,-46
1499875748791178,-1,-41,-5,18,14,-4,4,-2
1499875748791178,5,-2,-24,57,23,8,4,34
1499875748799197,-2,-15,23,-41,-45,-2,5,-19
1499875748799197,7,8,-11,17,37,5,7,7
1499875748814179,-35,-53,3,-41,-2,-3,-10,-7
1499875748814179,27,115,-23,-27,20,-5,-16,-6
1499875748815180,-16,-47,29,-12,3,1,14,-3
1499875748815180,21,82,-35,24,-13,-2,-13,-3
1499875748837185,-29,-60,46,-17,10,3,6,-9
1499875748837185,-8,-29,4,7,-20,0,-1,-18
1499875748838187,22,43,-38,2,11,4,13,49
1499875748838187,-6,-8,10,11,9,-6,-8,-10
1499875748851182,-4,-3,5,-23,-27,-4,-11,-4
1499875748851182,3,4,5,32,14,3,10,10
1499875748859185,-3,85,21,-22,15,-3,-9,8
1499875748859185,4,-21,29,-12,-26,-4,5,14
1499875748875182,-2,10,-37,-2,19,-1,-21,-40
1499875748875182,5,10,5,-39,-19,-6,-5,8
1499875748875182,-3,39,-26,48,-6,4,9,7
1499875748875182,-9,-78,37,-66,-1,1,0,17
1499875748898196,14,15,18,19,-31,-2,4,14
1499875748898196,6,20,14,6,21,1,10,10
1499875748899193,-1,-63,-8,2,13,0,1,-25
1499875748899193,-7,27,32,11,-14,-9,-17,-47
1499875748920185,11,29,-47,22,3,6,9,6
1499875748920185,-1,-60,-18,3,-28,-4,3,7
1499875748921185,9,40,16,-34,8,9,15,28
1499875748921185,0,4,-9,14,20,0,-20,-14
1499875748934188,-11,-15,42,5,18,-4,0,24
1499875748934188,5,47,-3,11,-14,1,-5,-13
1499875748942190,3,24,-4,14,13,4,13,28
1499875748942190,-7,-36,39,5,16,-5,-9,-21
1499875748957187,7,7,-33,-5,-34,0,-2,-17
1499875748957187,-9,59,-24,39,30,4,-2,7
1499875748958186,17,-55,6,-41,-49,-6,3,32
1499875748958186,-7,-18,18,45,20,3,2,4
1499875748980189,-4,-13,-23,38,8,-4,-8,-17
1499875748980189,16,-1,39,-19,-32,-3,3,9
1499875748980189,-10,-15,-1,38,21,-3,-8,-7
1499875748980189,11,67,-27,-12,0,6,16,41
1499875748994189,-8,13,60,-26,-3,-2,-6,-18
1499875748994189,-6,-83,-29,-13,-24,-1,8,14
1499875748995189,-19,35,8,69,21,-4,-6,-12
1499875748995189,2,-48,7,-115,-19,-7,-20,-32
1499875749025196,0,34,-15,41,27,5,1,-12
1499875749025196,-4,-2,-12,-18,-28,1,6,-12
1499875749026212,2,20,7,-10,10,-2,-7,26
1499875749026212,7,-31,-12,63,-7,-6,4,35
1499875749040196,-7,-21,-15,-34,0,-3,-5,-12
1499875749040196,-17,57,72,0,10,-8,-17,-44
1499875749040196,-11,-22,-46,7,-19,1,-4,-12
1499875749040196,0,17,-15,25,-8,-1,1,-8
1499875749054193,17,43,-11,51,33,1,6,18
1499875749054193,-7,-77,2,-50,5,5,17,41
1499875749055194,-10,-17,1,11,-20,-5,-19,-66
1499875749055194,3,-9,1,-14,19,2,8,7
1499875749077196,11,56,10,19,-13,1,12,34
1499875749077196,-13,-90,-8,30,18,-3,-16,-65
1499875749078195,1,42,24,-75,-30,-5,-5,-8
1499875749078195,14,9,-28,-19,9,2,8,36
1499875749100195,-10,1,46,-7,20,3,0,-5
1499875749100195,4,30,-31,-5,3,4,7,9
1499875749100195,-3,17,13,35,3,-5,3,2
1499875749100195,18,24,27,-65,-59,-1,5,-7
1499875749114218,-22,-37,17,7,-9,-4,5,-1
1499875749114218,4,30,36,-50,-18,-1,-10,13
1499875749115203,20,80,-29,22,22,0,9,32
1499875749115203,-29,-81,26,28,6,-12,-18,5
1499875749137199,34,42,-12,-7,-9,4,12,28
1499875749137199,-28,-49,-23,14,-43,-9,-14,-14
1499875749138198,-5,7,2,28,48,3,-10,-42
1499875749138198,-10,21,9,-17,16,5,8,1
1499875749160205,2,-19,-4,-6,-13,-2,-5,-20
1499875749160205,13,3,12,32,3,-3,5,43
1499875749161202,7,17,-27,-40,-33,-2,-3,0
1499875749161202,-8,48,5,42,40,5,-2,-15
1499875749175199,-15,-128,16,-43,-46,-4,1,-3
1499875749175199,4,96,-6,6,59,3,6,17
1499875749176199,-13,-128,32,14,1,-2,-6,-16
1499875749176199,10,35,16,2,-24,-2,-2,-1
1499875749197204,7,20,0,-11,-7,1,10,56
1499875749197204,3,20,-2,-31,0,-6,-20,-12
1499875749198200,-6,-63,17,-27,22,2,0,-27
1499875749198200,-22,-22,22,11,-30,-2,-14,-31
1499875749220205,17,64,-33,-1,19,3,13,20
1499875749220205,3,2,-42,11,-25,-6,3,13
1499875749221202,-11,-43,23,18,14,3,4,15
1499875749221202,8,30,12,-2,5,-2,-2,6
1499875749234219,-16,-6,-23,61,17,-2,-10,-24
1499875749234219,1,13,19,-55,-4,3,-5,-39
1499875749235202,12,28,-43,-43,-49,-4,4,9
1499875749235202,-15,39,-4,49,40,4,10,-6
1499875749257204,8,-16,56,-37,-18,-5,-12,-22
1499875749257204,5,-25,-18,16,16,1,3,-4
1499875749258203,18,43,-22,-1,24,0,7,17
1499875749258203,-10,-21,-26,-11,-21,-1,9,1
