timestamp,emg1,emg2,emg3,emg4,emg5,emg6,emg7,emg8
1499875967818480,-2,-7,-10,-6,-4,-3,-5,2
1499875967818480,1,-1,-3,7,0,-2,-1,1
1499875967835480,0,-2,-7,-22,-2,-2,-1,1
1499875967835480,-1,-1,-3,3,-2,1,2,-3
1499875967836480,2,0,0,11,2,-1,-1,9
1499875967836480,-3,0,1,-11,-1,-3,-1,-4
1499875967848481,-2,-1,-1,3,-2,-1,-2,1
1499875967848481,-1,-3,-1,-8,-2,-1,5,1
1499875967857483,0,3,3,15,4,2,-7,-4
1499875967857483,-1,-3,-8,7,1,1,-1,4
1499875967872483,-3,-4,1,-33,-7,-2,1,-16
1499875967872483,1,0,0,-8,-1,-2,3,3
1499875967874484,-3,0,8,10,0,2,0,-3
1499875967874484,-3,-3,-15,14,1,1,10,7
1499875967895487,0,-1,-4,8,-2,-3,-10,-8
1499875967895487,2,-2,-8,-17,-4,-2,-5,-3
1499875967896489,1,-1,-6,8,0,0,-1,0
1499875967896489,-3,-3,9,-32,-5,-3,-5,-5
1499875967909485,-3,0,-1,10,-1,0,2,13
1499875967909485,-1,-3,-10,-16,-1,-1,2,-5
1499875967923487,0,4,-5,14,0,-2,-4,4
1499875967923487,-3,0,15,11,-6,-2,-3,-11
1499875967931488,1,-3,1,-10,-1,-2,-2,4
1499875967931488,1,0,-4,12,-1,1,0,3
1499875967940488,-3,-3,3,-1,1,-1,2,-4
1499875967940488,1,1,-2,-6,1,0,-1,1
1499875967955487,2,0,10,-2,-6,-4,-5,1
1499875967955487,1,2,3,3,0,1,-1,-5
1499875967956488,-2,-1,14,-1,-1,-1,-1,-2
1499875967956488,-2,-5,-30,-6,2,0,-7,2
1499875967969490,-6,1,2,6,-2,-2,-3,-32
1499875967969490,-3,-7,-9,-8,-3,-3,7,19
1499875967976495,0,-1,17,49,2,-2,10,-2
1499875967976495,5,1,3,-60,-3,-1,-10,1
1499875967992492,1,3,-5,-18,1,0,-3,3
1499875967992492,-5,-4,-13,-33,-2,-1,-4,-13
1499875967994491,2,4,-3,-27,-2,-1,-6,11
1499875967994491,1,5,2,47,5,2,4,1
1499875968015491,-8,-10,-5,-8,-2,-2,-2,13
1499875968015491,-5,7,25,-39,-9,-6,-14,-39
1499875968016499,2,-7,-19,-14,-2,1,12,61
1499875968016499,-1,-3,-9,-8,-2,-2,4,-7
1499875968029500,2,4,-7,5,5,1,2,4
1499875968029500,1,4,9,79,4,0,4,16
1499875968036492,-4,-5,16,-96,-14,-6,-24,-36
1499875968036492,2,0,-5,2,1,1,10,2
1499875968052493,4,1,-2,15,-4,-3,-3,11
1499875968052493,-4,-6,-14,8,4,1,-3,28
1499875968054494,-7,-2,-8,8,3,0,-4,-9
1499875968054494,4,0,8,-6,-4,0,12,-3
1499875968075495,1,2,-5,27,0,1,-1,-9
1499875968075495,4,2,21,9,-1,0,-1,-6
1499875968077494,-4,0,-12,-22,-4,-1,4,-5
1499875968077494,-8,-3,19,5,-7,-7,-9,-11
1499875968089497,1,-4,0,6,5,1,12,-2
1499875968089497,1,2,-9,3,-1,-3,-10,-8
1499875968096497,6,8,-23,14,11,5,4,2
1499875968096497,-14,-7,31,17,-8,-2,-2,-5
1499875968112512,4,2,16,2,-4,-2,-7,29
1499875968112512,-3,-9,-36,-7,-2,-1,6,3
1499875968114499,1,5,9,1,1,-3,-5,-1
1499875968114499,5,8,-34,0,6,2,5,-1
1499875968135498,-11,-10,24,-10,0,-4,-21,-34
1499875968135498,-3,5,19,52,0,4,27,-22
1499875968136497,10,8,-22,9,-1,1,1,-10
1499875968136497,13,8,14,-51,1,0,-10,51
1499875968149500,-7,-18,-20,-17,-3,-3,-3,-23
1499875968149500,-12,-4,17,11,-3,-6,-18,-1
1499875968156499,-18,-15,-12,7,-1,-2,11,-3
1499875968156499,-6,7,27,49,-1,0,-7,-4
1499875968172504,12,-5,-33,-14,1,1,-6,15
1499875968172504,9,-7,1,29,-2,-2,0,20
1499875968174501,-6,9,10,-75,-5,-1,2,-38
1499875968174501,-5,-10,-8,33,0,0,4,-7
1499875968195509,-14,1,-13,-61,-2,2,7,1
1499875968195509,-2,14,35,-19,0,-1,-7,-3
1499875968196501,8,7,5,41,-6,-6,-12,2
1499875968196501,2,-5,-8,15,-1,-1,-5,-8
1499875968209502,1,4,-18,-9,-1,2,12,4
1499875968209502,-1,5,-8,-18,0,-1,-5,8
1499875968216504,14,-13,24,31,1,-4,-12,29
1499875968216504,-22,-1,-8,-57,-4,-2,3,-85
1499875968232507,8,-13,13,64,2,-3,13,78
1499875968232507,-17,33,-18,-104,-6,4,-3,-18
1499875968234503,-18,-50,0,23,0,-6,-16,-73
1499875968234503,23,19,-14,-47,0,-2,-11,9
1499875968255511,-29,-19,-33,23,-9,-2,-10,3
1499875968255511,33,-9,5,-2,0,2,25,18
1499875968256507,-28,13,-18,36,4,4,1,3
1499875968256507,16,-26,2,10,8,4,1,22
1499875968268506,-23,-8,33,-43,-5,-5,-8,-32
1499875968268506,-1,13,-28,6,2,-2,-14,0
1499875968277509,11,55,26,-20,-2,4,15,3
1499875968277509,-17,-13,2,53,13,4,10,19
1499875968292512,14,1,5,70,2,3,15,8
1499875968292512,4,-24,-31,-68,-6,2,9,-29
1499875968294508,2,-29,32,40,3,-2,-26,-27
1499875968294508,16,69,5,-37,-12,-8,-1,22
1499875968315510,-29,-22,5,49,0,0,20,11
1499875968315510,13,44,19,-8,9,2,-18,-8
1499875968316509,-6,9,-13,24,3,3,20,52
1499875968316509,-21,-43,-10,27,-12,-3,-1,-1
1499875968330511,-13,-61,12,1,6,-2,-32,-32
1499875968330511,5,-1,9,34,-1,-1,11,23
1499875968337510,40,3,-6,-62,-6,1,4,47
1499875968337510,-19,65,29,23,-14,-7,-13,-11
1499875968360512,15,-48,-11,-68,23,6,-3,-32
1499875968360512,-36,7,-22,41,-13,2,11,4
1499875968361511,20,-18,-19,-65,19,-1,-1,46
1499875968361511,-49,45,21,39,3,3,9,-7
1499875968375513,71,63,34,34,-37,-11,-23,-33
1499875968375513,-71,-32,19,5,1,5,10,33
1499875968377516,31,32,-12,-65,-43,-11,-2,1
1499875968377516,-9,4,-45,16,19,4,0,3
1499875968388519,2,-62,30,25,15,2,7,-22
1499875968388519,-32,9,21,36,3,-12,-29,-9
1499875968397512,2,19,-33,-54,-3,3,18,37
1499875968397512,24,-46,32,-14,-16,-2,13,-27
1499875968412527,-21,30,-3,-23,26,11,-24,-28
1499875968412527,-6,-21,1,26,45,7,25,-27
1499875968414514,-40,-22,-34,35,-20,2,-16,-14
1499875968414514,17,-33,-32,-32,-27,-7,-10,3
1499875968435516,23,74,13,-26,10,-2,15,51
1499875968435516,-10,-124,-4,19,-36,-7,-10,-13
1499875968441517,60,113,12,-22,6,-3,2,-14
1499875968441517,-8,-44,12,29,16,-3,-11,24
1499875968448516,-40,-4,-48,-11,-22,-3,4,-38
1499875968448516,80,25,-21,-41,-22,4,35,67
1499875968457515,-39,57,18,27,31,-1,-6,-76
1499875968457515,18,-104,0,-16,-9,-9,-40,-31
1499875968472518,-8,-42,-50,-43,-13,-5,7,52
1499875968472518,5,75,8,35,3,-4,-21,-70
1499875968474519,1,-26,6,-39,16,4,11,-16
1499875968474519,-22,116,3,-29,-15,6,31,40
1499875968495532,-30,-32,-38,32,24,4,-16,11
1499875968495532,22,-29,44,-10,-79,-1,-7,-18
1499875968496530,3,7,-7,85,17,-15,20,17
1499875968496530,8,127,27,-16,114,12,-34,-68
1499875968509520,88,-46,-12,1,-85,-2,14,78
1499875968509520,-54,38,-58,-36,50,-2,2,-35
1499875968517519,-17,-87,-26,-38,-34,-12,-26,-37
1499875968517519,-37,-77,-43,4,-44,-5,5,41
1499875968532523,43,57,54,29,20,2,4,-62
1499875968532523,32,46,17,21,6,0,-2,27
1499875968534521,-44,-96,-25,-2,8,3,-9,35
1499875968534521,54,74,17,16,-27,3,9,-22
1499875968562525,-94,61,-7,-52,63,-4,-28,-77
1499875968562525,3,17,10,18,-13,2,-12,-5
1499875968564524,9,42,-48,-28,-25,-1,48,34
1499875968564524,25,-74,-45,-6,14,-17,-50,-9
1499875968568528,34,127,42,-45,4,4,6,-47
1499875968568528,48,-10,-2,6,52,9,18,29
1499875968577524,-78,-68,72,102,-24,-2,-23,-40
1499875968577524,-1,-88,-45,-79,-31,1,6,4
1499875968592527,27,115,41,13,71,14,28,52
1499875968592527,-17,-79,-36,-23,-22,-10,-2,27
1499875968594527,-6,41,-8,27,-15,1,-11,-11
1499875968594527,66,-49,24,29,-7,2,38,46
1499875968615526,-9,48,-5,13,-24,-11,-21,-11
1499875968615526,6,-68,-5,16,2,2,-25,-82
1499875968616527,33,43,33,-19,31,3,29,88
1499875968616527,-76,0,-8,-14,-36,-11,-20,-70
1499875968628543,-39,-24,-36,-21,31,8,15,10
1499875968628543,63,126,8,-69,-52,-3,2,24
1499875968637528,-39,-81,-4,71,36,5,-3,-65
1499875968637528,29,-74,-6,15,-31,-11,5,54
1499875968652533,-9,-25,29,34,50,-5,-15,13
1499875968652533,-45,-2,-60,-2,-33,0,17,52
1499875968654529,23,121,48,-14,12,2,-42,-105
1499875968654529,2,57,0,78,42,5,-3,9
1499875968675535,-31,-110,-34,-87,-74,1,9,-40
1499875968675535,73,54,80,-8,-2,-12,-13,40
1499875968676529,-35,4,-61,-5,60,-4,-2,40
1499875968676529,-5,44,26,19,-2,6,5,-16
1499875968697545,22,-2,-8,25,-62,-8,-6,20
1499875968697545,-2,9,26,13,51,5,25,0
1499875968699535,14,40,18,-44,-47,0,14,9
1499875968699535,8,45,-27,-13,49,6,-17,-17
1499875968712531,21,-36,-18,21,-13,-3,20,20
1499875968712531,-28,7,-1,8,-44,-17,-60,-9
1499875968714532,27,1,-1,5,26,-2,-2,22
1499875968714532,-40,-20,-6,-38,-5,-2,3,-11
1499875968735533,-15,-2,13,21,-13,-1,20,-9
1499875968735533,-7,17,-25,48,15,-1,-4,21
1499875968736533,-11,-45,8,28,-16,2,-20,-28
1499875968736533,16,40,40,-40,-1,1,8,-1
1499875968757533,29,38,-19,41,-6,-7,31,59
1499875968757533,-66,-67,-17,28,28,-15,-68,-100
1499875968759534,32,10,10,-44,-2,14,23,36
1499875968759534,11,-9,18,25,12,-1,34,48
1499875968772535,4,33,1,24,-3,1,-29,-70
1499875968772535,4,11,0,-16,-33,-1,40,65
1499875968774536,11,75,-12,14,-15,-14,-25,-37
1499875968774536,-28,-3,3,-28,-33,1,27,29
1499875968795553,8,67,5,63,-10,-3,-24,-10
1499875968795553,25,18,-30,-74,44,2,24,44
1499875968796536,11,2,35,34,-57,2,0,18
1499875968796536,4,62,-13,-34,24,1,-17,-40
1499875968817538,-41,-17,2,-11,58,9,18,24
1499875968817538,-10,-47,-25,-17,-17,4,17,10
1499875968819538,33,-48,10,10,-26,-5,1,29
1499875968819538,4,-6,9,74,-11,2,9,1
1499875968831540,1,-78,-15,-74,-41,-11,-31,-9
1499875968831540,-18,-33,15,14,34,5,16,-17
1499875968838538,-5,23,-26,-1,-34,-2,9,2
1499875968838538,15,-74,-16,31,24,0,-19,-38
1499875968855543,-35,6,-8,-18,-28,-7,-9,0
1499875968855543,9,35,23,-64,12,1,8,-10
1499875968856542,-47,-37,-26,-17,-24,-9,-37,-62
1499875968856542,36,11,1,-2,14,3,14,50
1499875968877541,3,-38,25,79,33,-2,-7,15
1499875968877541,18,52,2,-49,-31,0,11,13
1499875968879541,5,-36,6,2,54,1,6,19
1499875968879541,-13,2,-6,-2,-17,-4,-11,-27
1499875968891544,18,-21,-10,4,-11,1,23,25
1499875968891544,54,44,59,53,-11,8,6,-32
1499875968898544,-39,-64,-51,-58,-7,3,-3,68
1499875968898544,7,17,5,9,-23,-9,3,20
1499875968915543,-3,-11,-50,-48,0,5,-18,-34
1499875968915543,35,-10,31,48,18,6,22,3
1499875968916543,-17,33,2,36,7,1,-1,4
1499875968916543,-39,-13,3,-87,-34,-7,-13,-12
1499875968937546,17,4,30,-21,-21,2,16,12
1499875968937546,12,2,-17,12,47,0,-13,-33
1499875968939544,2,11,30,28,-49,-8,9,35
1499875968939544,-25,-17,-35,-3,22,8,39,32
1499875968951544,1,88,28,-28,55,-9,-65,-39
1499875968951544,-46,-66,-54,-39,-44,-4,-3,-13
1499875968958548,13,28,29,34,24,-5,-11,-24
1499875968958548,9,9,-1,20,33,4,5,35
1499875968974547,-18,39,-21,0,-52,-8,-11,-48
1499875968974547,-8,11,1,13,-9,0,-16,21
1499875968976549,16,15,39,26,35,11,3,-21
1499875968976549,-24,-27,-9,4,-19,-8,5,-5
1499875968997550,8,-84,7,14,-23,-1,5,6
1499875968997550,-27,-4,1,-9,33,-3,5,-20
1499875968999549,2,41,-13,2,-34,-5,-7,-12
1499875968999549,18,63,-12,-1,-9,-4,-16,-11
1499875969012561,10,24,-5,27,-17,-2,4,17
1499875969012561,-36,-16,30,19,28,1,4,42
1499875969018552,-6,23,-37,-78,9,7,11,33
1499875969018552,-16,-45,13,5,-21,-3,-14,-28
1499875969035554,-16,-51,-10,27,-3,-8,18,35
1499875969035554,-15,29,30,-8,-93,-1,18,-23
1499875969036552,0,-104,-2,80,105,2,-12,-5
1499875969036552,-5,2,-37,-35,0,3,-22,-16
1499875969057551,-24,-42,34,49,-3,9,23,-6
1499875969057551,4,-19,-50,-20,-23,-7,-13,1
1499875969059554,42,38,15,-52,-7,-3,21,-7
1499875969059554,-12,-35,29,95,-26,-1,-4,-34
1499875969071553,4,-19,4,-125,-4,3,6,20
1499875969071553,4,6,-36,41,22,-2,2,22
1499875969078585,3,11,-19,-35,-24,-6,-5,-45
1499875969078585,26,27,4,43,1,2,16,14
1499875969095555,0,14,-9,-13,5,-6,-6,9
1499875969095555,-7,63,27,15,-1,0,10,-41
1499875969096562,4,-6,-17,-26,-10,6,-11,32
1499875969096562,-1,-1,4,-3,17,-1,-9,-17
1499875969117557,-6,9,3,1,-17,-5,-5,-4
1499875969117557,-11,11,-16,-13,-9,-2,-6,8
1499875969119577,3,2,21,7,5,6,21,-13
1499875969119577,-4,17,-16,-25,27,-2,20,5
1499875969131556,48,-20,30,-24,7,4,9,57
1499875969131556,-32,-60,0,27,4,1,-12,-20
1499875969138556,7,61,-6,8,-28,-4,-10,26
1499875969138556,4,82,-14,-79,-95,-10,-13,0
1499875969155556,27,55,22,99,107,18,31,30
1499875969155556,-13,-53,7,-5,-21,-5,-11,11
1499875969161561,6,9,-7,-40,-60,-9,29,16
1499875969161561,34,60,6,17,54,6,-7,-10
1499875969177558,-4,1,-15,-17,-39,-5,-6,-20
1499875969177558,-10,5,-28,-1,7,-8,-23,-35
1499875969180560,10,-73,-19,-18,37,11,11,34
1499875969180560,4,35,44,-4,-21,0,-10,-32
1499875969191560,-43,-38,-19,-21,15,-8,-25,-52
1499875969191560,50,80,28,-9,9,2,16,54
1499875969206561,-31,-72,-8,-30,15,-6,1,-20
1499875969206561,-6,5,-10,-10,-3,0,8,39
1499875969215562,17,-23,-18,-26,-10,4,-12,-42
1499875969215562,13,8,31,59,28,-4,11,43
1499875969216562,-36,43,-1,-51,-14,-10,-15,-42
1499875969216562,-11,11,50,31,30,3,4,-3
1499875969237564,29,33,-24,-39,-80,-6,29,62
1499875969237564,-11,-17,1,-3,4,-1,-10,-1
1499875969239561,-14,-59,9,78,10,-1,-28,-40
1499875969239561,11,40,5,12,28,2,-3,1
1499875969251564,-1,41,3,49,-57,-4,11,10
1499875969251564,-9,-6,-29,-7,44,9,-6,-22
1499875969260564,18,25,34,49,-20,3,-9,2
1499875969260564,2,-80,-20,-63,-37,-6,7,2
1499875969274563,-20,10,-29,10,10,-1,-29,-21
1499875969274563,28,42,17,-46,-24,1,-6,-21
1499875969276563,-28,-27,19,46,73,2,-4,-16
1499875969276563,-6,-54,-56,27,-46,-3,17,28
1499875969297566,16,-30,5,-30,3,-14,-61,-59
1499875969297566,-24,-104,-39,39,32,3,-2,-6
1499875969299565,9,34,5,-18,-51,-7,20,17
1499875969299565,-17,-4,-15,-30,-33,-9,-32,-29
1499875969311573,9,28,10,59,60,3,10,13
1499875969311573,-14,-60,16,-46,-39,3,13,45
1499875969320567,-38,43,-14,5,-47,-5,1,-23
1499875969320567,11,-8,-3,24,68,-3,-24,-22
1499875969334567,-8,49,-20,5,12,4,13,-2
1499875969334567,10,-28,10,9,-6,-9,-21,-19
1499875969336568,-5,-8,-21,-40,-10,1,39,54
1499875969336568,-41,-20,19,-7,24,2,-38,-29
1499875969358569,18,29,5,-60,-28,1,28,20
1499875969358569,-26,-65,-1,36,11,-10,-33,-28
1499875969359568,-4,-36,-5,-10,-38,-3,0,25
1499875969359568,6,24,-26,24,44,-5,1,-12
1499875969371570,-7,0,-6,-46,-7,1,18,1
1499875969371570,1,25,-17,-24,-21,5,-4,-14
1499875969380571,32,5,8,31,-8,0,-10,-25
1499875969380571,-33,22,19,-10,-10,-4,6,6
1499875969395590,-8,9,22,49,4,-1,5,-3
1499875969395590,14,72,-1,-48,-2,-3,14,9
1499875969396570,5,-7,-20,-5,-7,-6,-32,-41
1499875969396570,-9,-28,-17,5,31,6,23,40
1499875969417574,-32,-5,21,-26,-5,-11,-31,-50
1499875969417574,30,63,14,34,1,1,-20,1
1499875969419574,21,0,0,-4,41,5,17,22
1499875969419574,-31,2,-21,30,-23,0,8,-3
1499875969431575,38,-12,7,-28,-12,-4,14,28
1499875969431575,-30,-53,-27,-28,-18,1,-19,-28
1499875969440575,-3,-47,-1,4,3,-4,0,-13
1499875969440575,8,-12,25,-52,-38,4,15,11
1499875969454575,3,-23,-21,22,81,3,9,30
1499875969454575,-19,39,37,3,-37,-16,-38,-34
1499875969456577,15,68,-13,13,10,-3,5,6
1499875969456577,25,-7,-13,-12,8,5,-13,15
1499875969477575,2,-11,9,4,1,2,-2,2
1499875969477575,-9,7,-24,-11,24,4,23,-4
1499875969479579,-17,-5,11,-5,-6,-5,1,-23
1499875969479579,13,32,36,4,-11,0,0,19
1499875969491578,7,-2,-7,23,-5,8,10,9
1499875969491578,0,26,-13,-10,52,-6,19,4
1499875969500578,-2,-14,-18,1,-29,-4,-21,-12
1499875969500578,29,9,28,0,18,0,21,-12
1499875969515578,-39,-25,-4,2,-10,-6,-26,13
1499875969515578,31,11,-14,-41,-7,10,29,18
1499875969516578,-3,9,-7,40,-27,0,-7,1
1499875969516578,1,5,12,-52,3,2,11,25
1499875969537578,-3,-52,3,-43,28,1,-21,-41
1499875969537578,-3,12,5,16,11,4,14,-23
1499875969539596,4,57,12,-3,6,-5,-45,8
1499875969539596,-6,-39,-26,0,-29,-7,-7,-14
1499875969551582,32,42,-14,24,5,-1,19,18
1499875969551582,-41,-42,7,-10,-17,-1,23,-37
1499875969560582,1,-5,44,-20,31,4,-18,34
1499875969560582,-24,14,-68,17,-9,-5,1,-14
1499875969574581,-7,28,26,-11,-28,-3,-6,10
1499875969574581,15,-7,-21,-5,13,3,-6,-11
1499875969576582,1,29,3,-6,2,0,22,-23
1499875969576582,-17,-65,-2,22,-27,0,-3,0
1499875969597584,17,19,18,41,-1,3,7,-9
1499875969597584,23,23,1,22,-1,-3,-8,43
1499875969603584,-22,-48,-14,-23,-4,5,21,21
1499875969603584,21,27,42,-32,1,-2,6,-8
1499875969619584,-20,-5,-70,25,0,-4,-38,-13
1499875969619584,-16,-22,11,-38,-50,-6,-9,-1
1499875969621584,-2,7,-22,67,59,8,1,0
1499875969621584,8,28,-9,-68,45,8,20,13
1499875969634586,1,-15,-2,26,-28,-8,-8,-31
1499875969634586,-8,-23,26,54,-2,-1,-22,0
1499875969636585,8,14,10,-60,-17,-1,26,7
1499875969636585,6,10,13,27,-30,-4,-19,16
1499875969657587,-15,11,11,-27,37,6,24,8
1499875969657587,-3,26,-24,14,-14,-5,-8,-29
1499875969659589,-3,-41,-9,-7,-32,-8,-3,-13
1499875969659589,-6,-15,30,57,45,6,-8,-14
1499875969679587,-7,-15,-35,-6,-38,-4,8,17
1499875969679587,14,32,49,58,8,-4,8,2
1499875969681587,-4,10,-58,-90,4,3,-3,-2
1499875969681587,-2,36,7,-1,-17,-10,-20,-33
1499875969695589,1,-79,37,41,2,7,27,18
1499875969695589,-12,19,-28,-37,-15,-9,-47,-26
1499875969696591,10,-41,-28,7,26,3,22,5
1499875969696591,2,16,35,-7,-39,-6,-19,4
1499875969717595,0,24,30,23,30,3,7,-8
1499875969717595,12,54,-14,12,3,7,14,31
1499875969719590,3,1,-21,44,7,3,-8,-59
1499875969719590,-6,-7,-41,-29,-18,-7,14,14
1499875969739591,-8,-19,9,-54,11,0,-26,-12
1499875969739591,1,-17,5,-12,-8,3,27,22
1499875969741591,-7,15,28,28,-10,-2,-39,-7
1499875969741591,-5,-27,7,36,34,2,1,13
1499875969754593,-4,-51,-25,21,-13,-2,4,10
1499875969754593,4,2,11,-21,41,3,26,20
1499875969756592,11,3,-7,-26,-4,-4,8,34
1499875969756592,11,40,20,36,-31,-4,-15,-19
1499875969777595,-2,32,-10,-65,13,-2,-13,19
1499875969777595,31,-17,24,-7,5,8,22,-17
1499875969779594,-38,-50,27,40,-12,-8,-2,20
1499875969779594,14,52,9,-35,-3,-2,5,13
1499875969800606,-24,-4,-11,29,-41,-5,-2,-11
1499875969800606,3,-19,-51,53,-9,1,-1,5
1499875969801594,12,7,51,-36,12,-2,6,8
1499875969801594,17,16,-12,28,27,3,0,22
1499875969814597,-12,10,-5,-38,18,2,-15,-31
1499875969814597,-9,-19,6,-8,-12,-5,-3,13
1499875969821596,9,20,13,32,4,-3,-6,-3
1499875969821596,-2,-24,16,11,-46,-2,23,43
1499875969837596,-18,22,-19,-6,50,5,-24,-41
1499875969837596,-6,-38,-19,-22,-23,-6,-17,-14
1499875969839597,-14,21,-2,17,8,3,0,-1
1499875969839597,1,-45,17,-8,15,3,28,16
1499875969859598,32,19,-22,-6,-38,-4,18,-9
1499875969859598,-10,-29,-21,-27,-20,-7,-20,19
1499875969861600,17,42,37,1,26,3,-10,-7
1499875969861600,-7,7,-20,-9,-2,-2,3,-34
1499875969874623,-1,28,42,42,-31,0,-2,42
1499875969874623,-10,1,-20,5,17,-2,-6,-18
1499875969881602,29,25,-3,-3,-49,-3,36,61
1499875969881602,-4,15,-17,-31,65,-1,-78,-101
1499875969897608,-6,-59,-1,29,23,1,-2,-9
1499875969897608,5,2,6,0,-16,-3,4,2
1499875969899601,-17,-22,-13,-11,-33,-7,-7,-10
1499875969899601,18,78,-46,7,-16,-2,20,10
1499875969919601,-6,-63,-12,-23,51,3,-2,19
1499875969919601,-16,29,36,10,-2,-1,-21,-21
1499875969921601,-8,-20,-15,70,-6,-2,26,3
1499875969921601,4,-52,-3,-80,27,-2,-29,8
1499875969934611,-11,-19,6,51,-37,-4,1,-7
1499875969934611,-10,-6,-8,-25,21,4,16,2
1499875969941603,9,28,-29,-3,20,0,-31,0
1499875969941603,-8,-46,34,11,-49,-3,1,-45
1499875969957604,-13,-9,7,-36,26,-7,3,9
1499875969957604,25,61,5,12,-7,3,-8,10
1499875969959608,-12,-49,-7,18,33,2,20,7
1499875969959608,-13,-21,-61,-28,-5,-1,2,20
1499875969979621,3,66,37,15,2,-2,-9,-25
1499875969979621,16,-3,39,5,-14,-6,-7,-4
1499875969981610,4,30,-33,-41,3,2,-7,-5
1499875969981610,-8,-8,-12,59,-8,3,17,-23
1499875969994606,12,24,3,-42,-37,-3,16,29
1499875969994606,30,61,20,9,31,6,15,39
1499875970008607,-31,-66,27,-6,10,-10,-42,-43
1499875970008607,-8,-26,-36,-1,0,-3,7,26
1499875970017610,-7,-27,-37,-2,-92,-3,6,-7
1499875970017610,-2,-51,1,-3,77,4,14,-7
1499875970019608,22,66,42,7,-8,6,19,4
1499875970019608,-16,-62,-3,14,-16,-4,-34,-7
1499875970040609,5,18,25,59,12,-1,25,23
1499875970040609,10,18,-28,-35,-35,-7,-24,-13
1499875970041608,-5,36,-2,-26,-2,5,3,-19
1499875970041608,-40,-83,18,-3,19,-3,18,16
1499875970053608,30,97,9,7,-13,4,-18,-15
1499875970053608,-31,-116,-3,4,0,-3,-1,-45
1499875970061610,-10,-8,27,5,-2,2,-17,-20
1499875970061610,14,33,-18,42,7,5,13,-4
1499875970076610,1,18,2,-45,0,-7,1,32
1499875970076610,-14,-22,-5,18,-20,-3,-11,-17
1499875970077613,10,49,5,23,20,1,11,13
1499875970077613,12,68,-4,-29,-33,-8,-30,-29
1499875970099612,-37,-99,-6,19,-3,-5,-5,-22
1499875970099612,-7,42,-14,-12,11,2,22,30
1499875970100611,19,27,-18,32,-22,-6,-15,0
1499875970100611,13,8,27,13,46,5,10,27
1499875970113612,1,-19,-42,-18,-7,-4,2,-18
1499875970113612,-9,23,3,34,-14,1,-1,15
1499875970121616,-17,1,10,-19,0,-2,1,-33
1499875970121616,21,12,13,13,-4,3,11,37
1499875970145629,0,-19,-29,-15,0,-1,-14,-7
1499875970145629,-10,-11,7,5,-4,-4,21,17
1499875970145629,-7,-51,-6,-26,-18,-4,-5,-31
1499875970145629,1,-11,-19,-25,42,6,10,16
1499875970159615,-3,4,10,25,9,0,5,7
1499875970159615,4,38,-19,-11,-26,-4,-18,-15
1499875970160616,12,-19,-10,-21,-22,-2,21,16
1499875970160616,-13,42,20,10,-7,-8,-20,-2
1499875970173615,0,-33,-2,-21,-1,-3,-22,-24
1499875970173615,4,-31,17,9,33,4,-10,-11
1499875970181647,12,49,-2,-19,-7,-4,3,-1
1499875970181647,-3,-27,2,5,7,-1,4,18
1499875970196617,11,41,11,6,49,5,15,-3
1499875970196617,-2,-29,-26,-1,-49,-14,-16,-26
1499875970197617,1,7,1,6,44,7,9,9
1499875970197617,-14,-3,-4,9,-25,4,11,-14
1499875970219618,6,-12,11,-4,-7,-3,18,28
1499875970219618,-6,31,4,3,1,0,-17,-4
1499875970220618,7,8,-15,-2,-44,-8,-10,2
1499875970220618,10,8,34,-9,46,-8,-25,-18
1499875970242621,0,40,-24,28,-13,0,-6,10
1499875970242621,-19,-24,7,-39,49,3,20,14
1499875970243620,-13,-31,10,49,-4,1,-6,-15
1499875970243620,4,20,-24,-46,-10,-5,-5,-4
1499875970256621,2,1,-22,-34,-18,0,2,4
1499875970256621,-18,-50,2,-3,20,-4,-1,-4
1499875970257621,-6,4,-2,6,-16,2,12,37
1499875970257621,15,-95,-5,-42,-15,1,0,23
1499875970279622,8,55,-15,35,17,1,-1,-11
1499875970279622,17,-26,3,20,-20,-2,-26,-29
1499875970280625,-30,-31,-26,-27,22,3,16,19
1499875970280625,8,25,18,-10,-28,-8,-22,-18
1499875970303637,-21,-23,-51,-62,-14,-4,6,-7
1499875970303637,23,66,22,-30,-1,7,12,26
1499875970303637,4,11,16,43,-15,-6,-12,1
1499875970303637,-11,-67,-8,-19,14,1,-1,-38
1499875970316625,2,-50,14,1,-3,1,-1,19
1499875970316625,-6,69,-25,28,-19,0,-28,-38
1499875970317624,-3,-47,-39,-50,-40,-9,-11,-26
1499875970317624,18,58,24,44,33,14,34,53
1499875970339625,-34,-32,18,25,-13,-11,-22,-9
1499875970339625,6,22,-21,-50,-10,6,18,-7
1499875970340626,13,36,5,9,18,2,13,32
1499875970340626,-23,-41,-20,-2,-38,-13,-20,-85
1499875970362630,11,23,43,33,14,7,-18,-9
1499875970362630,9,-1,7,-12,4,-3,9,23
1499875970363629,-34,-80,-40,-25,-23,-7,-20,-45
1499875970363629,-20,1,-21,25,10,-4,-20,-11
1499875970376628,34,93,19,-4,-1,-2,20,58
1499875970376628,-32,-98,-35,5,-14,-3,-5,-16
1499875970377631,8,-10,48,13,27,5,-10,-4
1499875970377631,-4,2,-9,-35,-25,-3,22,25
1499875970399628,-23,-26,9,-40,-26,2,12,-7
1499875970399628,17,28,-34,33,50,-2,-9,-8
1499875970400631,12,10,6,-63,-27,0,13,3
1499875970400631,-14,-4,4,28,6,2,-10,6
1499875970422631,-5,16,23,-24,2,-1,5,-42
1499875970422631,7,-20,-20,-13,-29,-4,4,32
1499875970423631,11,12,-9,15,-1,3,-4,-11
1499875970423631,-2,52,19,39,34,0,15,19
1499875970437632,14,8,3,-11,10,6,6,12
1499875970437632,-16,28,-10,-4,-11,-5,5,32
1499875970438648,-2,16,-2,5,-1,3,-6,3
1499875970438648,4,29,7,-6,-9,-8,-6,-14
1499875970459636,5,12,16,14,-11,2,5,-12
1499875970459636,8,-54,-15,-60,15,4,29,33
1499875970460649,1,10,7,-11,19,-9,-51,-45
1499875970460649,-9,-29,-15,-20,-17,3,-7,-6
1499875970481651,5,1,-5,11,7,-1,8,-15
1499875970481651,17,41,55,31,5,1,-16,-11
1499875970489637,-16,-101,-19,-5,-18,-1,7,27
1499875970489637,-1,33,-12,9,17,4,23,19
1499875970496635,18,-3,16,18,-7,-3,-11,2
1499875970496635,0,-2,-20,-16,-30,-8,-12,-12
1499875970497635,4,40,27,-5,19,4,10,7
1499875970497635,-9,-45,2,26,-9,-1,-23,-28
1499875970519637,-7,-11,-14,-11,18,-2,-2,5
1499875970519637,24,31,12,19,-59,-3,12,24
1499875970520637,-12,41,-28,21,95,6,20,19
1499875970520637,-6,-84,1,-18,-61,-5,-15,-2
1499875970541636,3,40,-16,30,53,0,-1,-3
1499875970541636,4,26,-16,51,-6,-2,4,5
1499875970542637,1,22,33,-35,-41,-7,-39,-59
1499875970542637,7,-9,-25,-4,25,7,32,38
1499875970556641,-2,-33,-4,-40,-32,-3,-12,-2
1499875970556641,-20,20,21,25,3,-3,-1,-18
1499875970557638,9,6,-28,-13,-15,-6,4,16
1499875970557638,17,29,14,16,37,1,32,37
1499875970579640,-20,7,-3,8,-16,-6,-54,-77
1499875970579640,-5,-44,17,-28,26,4,-7,-2
1499875970580641,11,-17,7,53,-3,1,8,8
1499875970580641,4,42,2,-37,-18,-3,-2,-3
1499875970601640,-10,-13,-7,3,-30,-5,7,-12
1499875970601640,-16,1,2,1,39,4,-9,3
1499875970602641,-5,-32,5,-37,33,2,7,7
1499875970602641,3,39,-16,37,-44,-1,-23,-18
1499875970617649,18,-34,18,29,17,-5,17,21
1499875970617649,-28,-46,-51,-32,-15,-5,2,-22
1499875970617649,-1,12,10,27,24,-4,-23,-28
1499875970617649,23,10,35,40,-40,0,18,24
1499875970639644,-10,9,-18,-62,8,4,3,12
1499875970639644,-3,0,9,-11,-8,-3,1,9
1499875970640642,-12,-2,-7,10,18,1,0,-29
1499875970640642,16,23,9,-3,-11,-6,1,-6
1499875970661645,7,31,40,59,1,2,1,33
1499875970661645,-11,-50,-31,-46,-47,-4,4,-2
1499875970662645,20,51,22,8,63,7,12,-32
1499875970662645,-17,-84,-35,23,-1,1,-15,-11
1499875970676646,-5,-16,0,-66,-22,-2,-13,-2
1499875970676646,5,44,28,19,-13,0,-5,-4
1499875970677647,-23,-49,-17,-16,-2,1,11,6
1499875970677647,-5,46,12,-26,13,0,0,-13
1499875970699647,-15,-29,-12,-8,-11,-7,13,16
1499875970699647,18,14,8,1,20,6,3,-2
1499875970700646,5,67,-39,-13,-33,-6,-6,26
1499875970700646,-27,-79,10,11,17,-3,-5,-33
1499875970721650,-16,-3,-29,-14,-27,-5,-6,7
1499875970721650,-4,52,31,60,27,0,-12,-25
1499875970722648,28,-8,-23,-51,-13,5,28,57
1499875970722648,6,29,37,6,3,6,5,21
1499875970736648,8,4,-12,-24,26,-1,-7,-35
1499875970736648,5,-15,-17,-4,-30,-4,6,23
1499875970737650,-15,-50,17,38,4,1,2,-5
1499875970737650,-12,16,-21,-1,3,-1,6,3
1499875970759658,7,5,-2,11,-18,2,19,14
1499875970759658,12,10,9,7,-5,-8,-16,-16
1499875970760650,-5,-92,-28,-16,41,-4,4,51
1499875970760650,13,32,56,-16,-20,-1,-5,5
1499875970781651,4,23,-12,27,10,4,15,21
1499875970781651,-25,-36,-9,-35,13,-2,-3,-13
1499875970782651,-9,52,1,42,-44,-3,-22,-35
1499875970782651,-1,-43,2,-28,2,-3,14,29
1499875970796652,-2,-55,-25,-12,-28,-5,-18,-27
1499875970796652,0,-4,4,37,16,0,2,-2
1499875970797652,-17,22,-26,-23,-1,-2,4,1
1499875970797652,-13,29,-10,-20,-6,-3,-30,-24
1499875970819653,1,-15,2,-13,-6,-3,2,5
1499875970819653,13,-3,13,15,23,-3,-5,-1
1499875970820653,-11,12,17,12,-9,6,22,1
1499875970820653,11,11,-2,-3,13,2,-8,-3
1499875970841654,5,49,24,-8,4,-2,-4,-9
1499875970841654,-20,-28,-5,-21,-3,-2,5,0
1499875970842654,18,7,12,-19,-7,-3,-6,-21
1499875970842654,14,2,-13,-4,-2,0,11,43
1499875970856655,16,56,23,26,-18,-3,-21,-24
1499875970856655,-36,-10,-7,-16,29,8,22,12
1499875970857655,10,-32,-1,10,-7,-3,-6,-13
1499875970857655,-18,7,27,8,-4,0,6,5
1499875970879657,13,-9,-18,41,13,3,-3,11
1499875970879657,32,55,22,-32,-14,-5,-6,7
1499875970880657,-12,-79,-13,-50,6,-1,4,12
1499875970880657,-15,35,-7,7,-6,-4,-8,-20
1499875970901659,-20,-8,-34,-5,24,-1,11,-5
1499875970901659,0,18,1,-10,-17,6,33,12
1499875970902659,1,-35,-4,14,-21,-7,-47,-14
1499875970902659,-1,-15,-21,1,-20,-6,-2,-13
1499875970916658,-7,28,8,4,24,5,5,-3
1499875970916658,-3,-47,4,10,14,4,2,2
1499875970917659,-7,34,18,52,13,-7,-1,13
1499875970917659,2,-9,-47,-58,-27,1,-12,-26
1499875970939661,-9,-67,12,49,0,1,4,6
1499875970939661,-11,-10,-22,-31,15,-2,-4,-5
1499875970939661,27,27,19,-2,-25,0,14,10
1499875970939661,-1,-4,-3,18,34,2,-13,3
1499875970961662,-2,16,19,1,3,5,11,21
1499875970961662,0,-55,-12,22,-13,-1,2,21
1499875970962663,-3,44,9,2,27,3,6,0
1499875970962663,32,15,-25,-5,-15,1,-3,-23
1499875970976667,-38,-54,-10,-54,-15,-3,11,18
1499875970976667,13,-75,-6,27,-6,-8,-8,-7
1499875970977662,-5,34,14,-11,0,-4,-16,9
1499875970977662,7,17,-7,29,34,1,1,-22
1499875970999665,12,27,-1,-1,18,-1,-4,16
1499875970999665,-1,0,-24,-15,-27,-1,14,7
1499875971000663,-4,-18,-6,1,-26,-3,-7,-5
1499875971000663,-8,32,21,24,-12,-9,-15,-11
1499875971021668,32,16,-8,-16,1,5,2,4
1499875971021668,-29,-55,-25,-15,-10,-4,-17,1
1499875971022665,-8,22,-7,-49,19,-1,8,-25
1499875971022665,-11,-24,17,-5,-20,-1,-11,1
1499875971036672,-1,28,9,11,34,-2,2,-7
1499875971036672,16,32,7,30,-5,3,-12,-4
1499875971037666,8,90,20,-39,-6,0,17,18
1499875971037666,-32,-98,-13,38,13,-8,-14,-21
1499875971060667,-8,35,11,-61,-7,-7,-14,-35
1499875971060667,-24,2,-12,20,0,-1,5,-13
1499875971066668,5,-32,-10,-25,-44,-3,-24,0
1499875971066668,9,22,-6,19,40,-1,22,17
1499875971081673,4,-20,-13,-5,-18,-1,-13,-1
1499875971081673,-3,51,30,-1,-27,-4,4,0
1499875971082668,-6,-82,-23,38,21,2,-2,-26
1499875971082668,-2,10,8,-17,-17,-6,1,4
1499875971096674,17,54,21,7,17,4,21,23
1499875971096674,30,-2,-7,52,-11,-1,-12,-25
1499875971097674,-41,-27,12,-29,-9,-3,-12,-4
1499875971097674,12,61,-46,7,61,7,7,3
1499875971119671,-18,-64,9,-29,-4,-1,9,39
1499875971119671,13,35,2,-7,-2,-3,-6,-8
1499875971120671,5,-6,7,15,-34,-4,-4,-6
1499875971120671,-5,32,11,9,33,8,14,21
1499875971141673,23,-41,-27,42,-31,-3,8,41
1499875971141673,-22,26,-35,-61,27,-5,-9,-25
1499875971142672,0,26,14,25,-3,2,-8,-26
1499875971142672,-17,-49,-27,-41,-32,2,22,12
1499875971156675,28,3,36,43,-31,-2,-18,-17
1499875971156675,-15,-66,10,14,29,-4,-36,-9
1499875971164675,7,10,-11,-20,-10,3,2,4
1499875971164675,1,35,3,-7,-4,0,13,18
1499875971179682,-15,-17,-31,-17,-10,-2,-7,-56
1499875971179682,12,71,45,9,20,7,15,23
1499875971179682,15,-45,-27,26,12,-4,8,2
1499875971179682,-5,73,40,9,-13,-4,5,-3
1499875971201675,-28,-93,-28,-19,12,0,-27,-7
1499875971201675,10,40,3,-28,-28,-3,0,0
1499875971203676,8,31,-13,21,37,-1,-2,12
1499875971203676,-21,-51,-6,-32,-31,-2,16,7
1499875971215676,5,-47,-28,52,22,-10,-19,-5
1499875971215676,8,30,22,-40,-24,-1,-28,-33
1499875971224677,-5,-15,-8,18,41,1,-2,3
1499875971224677,17,0,13,10,-27,0,-3,0
1499875971239678,-15,63,21,1,10,3,23,-15
1499875971239678,20,8,-2,30,-23,-11,-19,17
1499875971239678,-10,-58,-15,-75,-14,1,5,0
1499875971239678,3,-1,-1,14,11,-3,-2,-12
1499875971262684,-6,39,7,-35,-5,5,1,0
1499875971262684,-11,-41,-8,-5,19,-2,-6,10
1499875971262684,-3,14,-22,0,-4,0,11,3
1499875971262684,1,32,12,-20,-4,2,1,16
1499875971276680,5,28,1,1,-35,-4,2,11
1499875971276680,-12,-47,-4,15,7,-1,4,-57
1499875971284681,3,30,16,-4,-15,-3,-9,-6
1499875971284681,-6,-43,-3,7,33,0,-3,-9
1499875971299683,1,67,1,3,5,-5,-15,-24
1499875971299683,17,-25,-37,-37,-6,13,38,58
1499875971300681,-3,-56,31,80,-9,-3,-1,2
1499875971300681,3,11,-15,-61,4,0,-3,-4
1499875971321683,1,-28,13,20,-15,-3,-15,-10
1499875971321683,-18,32,-10,3,20,-4,0,22
1499875971322682,22,19,6,-21,-26,4,36,17
1499875971322682,7,14,-3,32,-6,-1,-25,-21
1499875971335685,-22,-51,5,-29,-9,-2,1,-6
1499875971335685,3,48,21,-3,11,-3,2,4
1499875971351686,4,37,-9,0,-6,1,11,13
1499875971351686,4,15,7,58,-16,-2,7,-5
1499875971359687,-2,-67,-25,-56,9,0,-8,14
1499875971359687,-4,8,7,24,-18,-3,7,5
1499875971359687,-19,3,-14,14,57,-1,-13,3
1499875971359687,-5,-39,-3,-32,-31,-8,-25,-17
1499875971381710,-2,-3,16,68,24,-5,0,-7
1499875971381710,9,30,-16,-42,-10,6,12,9
1499875971382687,0,25,18,32,-17,-5,-5,-1
1499875971382687,0,18,-3,-12,32,10,12,-15
1499875971395701,-1,-27,-25,4,-12,-7,9,12
1499875971395701,-8,-13,17,2,-2,-4,-19,-13
1499875971404696,0,51,8,30,-28,0,-6,-1
1499875971404696,-3,-40,-16,-6,24,0,8,12
1499875971419688,12,110,17,7,23,2,9,-21
1499875971419688,-3,-57,-21,-17,-5,-1,-16,-18
1499875971419688,8,3,10,-11,-32,-2,19,29
1499875971419688,-19,-51,-28,9,4,-8,-29,-37
1499875971441703,7,69,-17,3,0,-2,-3,2
1499875971441703,-6,-23,16,36,13,4,3,5
1499875971442689,6,-42,10,-13,-10,-1,10,-8
1499875971442689,13,-19,21,-7,-21,1,-10,2
1499875971455693,-7,14,-2,-12,-17,1,7,0
1499875971455693,-12,-22,-11,27,24,-3,-15,-12
1499875971464690,-26,-66,-16,-8,21,-1,-13,-43
1499875971464690,19,3,4,10,5,4,11,28
1499875971479692,-10,-22,-4,3,-19,-3,-1,-7
1499875971479692,8,22,33,-47,-10,1,17,16
1499875971479692,8,25,-49,10,12,-1,11,2
1499875971479692,-20,-78,4,-48,-7,-2,-14,-16
1499875971501695,-11,-22,-14,13,-25,-3,2,-3
1499875971501695,4,-6,-4,-34,16,6,0,1
1499875971502693,-3,31,16,-8,-48,-5,14,2
1499875971502693,14,33,0,41,31,1,-18,-5
1499875971532695,0,-5,6,12,-2,-2,14,27
1499875971532695,-19,-45,-1,-2,-2,-6,3,-47
1499875971533695,0,24,-1,-13,-4,-3,-19,29
1499875971533695,1,11,-17,-2,-13,-3,7,9
1499875971539696,15,36,35,4,9,3,1,-4
1499875971539696,-11,-23,-17,-22,-14,-3,27,16
1499875971539696,2,-32,9,-37,16,6,-21,-26
1499875971539696,5,24,20,15,1,-2,9,1
1499875971562710,-4,-33,-35,-23,-13,-5,-15,-10
1499875971562710,-2,42,4,58,65,8,6,14
1499875971562710,2,11,4,1,-19,-4,-3,-2
1499875971562710,-5,2,-12,-1,2,2,7,11
1499875971584698,12,10,31,-12,-11,3,8,4
1499875971584698,0,13,-25,13,-14,-1,-8,3
1499875971586698,-10,-12,20,22,16,1,-14,-6
1499875971586698,-27,-46,-27,-22,-11,-3,-3,4
1499875971599700,-7,-40,-6,6,8,-2,11,7
1499875971599700,22,64,7,-31,-18,1,-24,-22
1499875971599700,7,-57,-12,-35,17,1,3,-3
1499875971599700,-8,-23,-16,15,-12,-5,-15,-4
1499875971621701,4,16,8,-12,-1,7,12,19
1499875971621701,-6,-4,28,13,49,-2,-2,1
1499875971623701,14,77,-20,26,-8,4,21,7
1499875971623701,10,7,27,-6,-20,-8,-14,-14
1499875971645728,-7,-40,-20,-59,-12,-6,-1,-6
1499875971645728,19,23,18,27,4,1,10,25
1499875971645728,-33,-51,-24,15,-30,-7,-25,-31
1499875971645728,4,31,-10,-77,36,4,11,19
1499875971659703,21,49,17,0,12,3,-12,-15
1499875971659703,19,60,7,13,-79,-10,4,17
1499875971659703,-14,-16,-11,17,101,10,17,10
1499875971659703,-7,-7,0,30,-22,-5,-12,-15
1499875971681703,1,-3,11,4,36,1,-4,2
1499875971681703,-3,11,-25,-9,-23,-4,-6,-11
1499875971682702,20,13,16,-28,-23,-5,6,24
1499875971682702,-7,-8,-2,17,-6,2,21,7
1499875971704706,-2,7,-2,20,16,-4,-28,-15
1499875971704706,-12,-45,-22,5,-4,-3,-9,-2
1499875971705704,-10,2,11,2,-17,-2,-3,-2
1499875971705704,7,0,13,2,24,3,6,3
1499875971719720,-4,33,9,-43,-27,-12,-16,-10
1499875971719720,-23,-76,-22,-2,25,6,0,-6
1499875971719720,7,60,44,4,-12,0,-3,-33
1499875971719720,6,-20,-54,8,-3,1,14,8
1499875971741709,-9,16,12,5,-40,-5,-17,-13
1499875971741709,1,-36,-3,12,32,-1,2,14
1499875971742708,-9,-34,-37,-43,-2,-3,-10,-20
1499875971742708,3,62,29,8,-37,-3,5,-7
1499875971764711,7,-28,-7,17,30,3,0,5
1499875971764711,-6,25,21,39,-4,0,0,17
1499875971765711,0,18,-15,0,-15,-1,-7,-1
1499875971765711,-1,-11,13,-6,6,-1,11,10
1499875971779708,4,26,-2,-18,0,0,8,-16
1499875971779708,-4,22,-13,-1,-25,-7,-11,-30
1499875971779708,11,-12,-11,-1,8,2,19,50
1499875971779708,-11,9,-1,10,20,-2,-24,-38
1499875971801713,-3,9,-4,-3,3,4,20,33
1499875971801713,9,-4,15,11,-25,-1,8,-8
1499875971802711,-4,20,-2,-12,11,0,-12,4
1499875971802711,13,-22,1,-23,-7,-7,-27,19
1499875971824717,-16,-64,-16,18,17,-3,-6,-3
1499875971824717,-3,-21,0,-19,-29,-3,12,12
1499875971825713,-1,25,1,2,-21,-3,-3,-14
1499875971825713,-13,-35,10,42,-7,1,15,1
1499875971839713,0,-27,-8,-73,31,7,2,5
1499875971839713,12,26,4,15,-3,-1,-14,1
1499875971839713,11,-6,-29,0,-20,-1,2,7
1499875971839713,-8,44,34,7,-7,-1,-3,-21
1499875971861716,-20,-12,-11,29,-19,-2,11,-7
1499875971861716,-6,14,21,-8,18,0,5,-3
1499875971862727,-6,-56,5,-47,8,-8,-27,1
1499875971862727,4,26,-11,13,-7,1,-4,-8
1499875971884721,-5,-33,-16,-9,-22,-4,4,4
1499875971884721,11,26,2,-25,14,5,10,-1
1499875971885714,-10,-46,0,49,26,-1,-5,5
1499875971885714,-7,13,-7,-34,-15,-2,-1,8
1499875971899715,9,1,6,20,10,4,2,22
1499875971899715,-4,-4,3,-6,-1,0,-4,-31
1499875971900715,8,5,6,34,-7,-2,18,8
1499875971900715,8,2,-9,-22,-1,-2,-24,-19
1499875971922721,-1,27,3,1,2,4,-8,1
1499875971922721,-16,-63,-15,10,11,-1,4,-3
1499875971923719,16,71,-3,7,-16,-3,15,2
1499875971923719,-24,-35,-8,-35,-11,-5,-15,-33
1499875971945735,-5,-29,-16,33,29,2,-6,1
1499875971945735,-3,-35,-19,-1,-12,-4,-10,-22
1499875971945735,2,18,21,-8,2,4,3,-6
1499875971945735,10,12,-1,-10,-29,-5,7,8
1499875971958719,5,52,-8,-29,2,-1,19,15
1499875971958719,3,36,-7,-36,26,0,-23,17
1499875971966720,-24,-46,-6,33,7,-4,-17,-44
1499875971966720,21,16,-1,-31,-27,2,20,24
1499875971981722,-12,-52,7,37,31,0,2,8
1499875971981722,4,31,1,-8,-35,-6,-16,-22
1499875971982720,2,45,12,-27,2,-3,8,16
1499875971982720,-6,-39,-4,7,15,4,-2,14
1499875972004723,-9,-11,-7,40,-14,-11,-8,-30
1499875972004723,15,27,3,-41,-10,2,20,31
1499875972005722,2,-47,-7,36,14,1,-19,-12
1499875972005722,-11,-28,-10,-43,-10,-5,6,21
1499875972019731,22,27,-3,-3,6,-1,3,6
1499875972019731,-5,-24,7,24,-7,-2,-1,-5
1499875972019731,1,-40,4,7,22,2,10,21
1499875972019731,17,33,-20,-4,-1,-6,1,10
1499875972041729,-20,-14,22,-2,-27,-2,-19,-34
1499875972041729,17,43,9,-10,16,3,19,36
1499875972042725,-3,-28,-26,10,-7,5,8,-31
1499875972042725,-4,4,6,22,6,4,-2,-8
1499875972064726,1,-32,-24,-48,8,-1,6,-8
1499875972064726,-6,12,0,9,-36,-5,-4,3
1499875972065727,2,10,8,-17,-18,-4,6,15
1499875972065727,-9,-7,34,38,-4,-2,-9,-22
1499875972079726,4,34,-22,10,7,-4,-19,3
1499875972079726,-8,13,8,-13,-7,1,11,2
1499875972079726,-4,33,25,16,18,-3,-19,-11
1499875972079726,-4,-54,-9,19,5,0,6,-3
1499875972101728,0,21,-7,-41,-22,-2,2,9
1499875972101728,-6,-25,4,10,-3,-3,-4,-12
1499875972102727,7,34,16,-6,13,1,-4,3
1499875972102727,-15,-36,-28,12,14,2,5,5
1499875972124728,6,14,13,18,0,2,15,-6
1499875972124728,-9,-38,-16,-6,-10,-7,-22,-8
1499875972125730,6,36,22,-20,-12,2,13,-8
1499875972125730,-26,-53,-14,-7,16,-2,-25,-18
1499875972138735,6,42,3,23,-16,-8,-35,-12
1499875972138735,-8,-61,-7,19,19,8,7,12
1499875972146731,-1,-5,-12,-15,-21,-1,-5,2
1499875972146731,15,32,9,-2,-3,1,13,19
1499875972169731,-11,5,12,19,-22,-3,0,-27
1499875972169731,-6,5,-16,-13,16,-3,-8,-10
1499875972170732,1,-9,-14,-29,-15,0,4,5
1499875972170732,1,-3,-14,37,19,1,13,19
1499875972184733,-1,-21,2,-38,-18,0,14,1
1499875972184733,10,18,22,28,-7,-4,-10,-1
1499875972185732,6,-19,-3,-10,-18,-2,12,25
1499875972185732,-8,39,10,-25,37,1,-16,-35
1499875972198733,9,-4,-11,19,4,-1,-3,-16
1499875972198733,0,-32,-15,-31,-24,-4,-10,-15
1499875972206735,-20,-29,6,22,11,-2,-8,-2
1499875972206735,23,24,25,3,1,-2,-8,-25
1499875972221734,-2,21,-15,-6,2,-2,2,37
1499875972221734,-6,-15,7,11,4,-2,6,-1
1499875972222735,-3,6,-6,-2,-8,-6,-2,-16
1499875972222735,10,3,1,-10,-23,-1,2,13
1499875972245749,1,5,5,-15,20,5,16,19
1499875972245749,22,62,0,-13,0,0,-9,-23
1499875972245749,-16,-9,-2,-6,2,-4,10,16
1499875972245749,3,19,-14,28,3,0,0,13
1499875972258738,0,9,19,2,-4,2,-6,-24
1499875972258738,-7,13,2,2,6,6,29,33
1499875972266738,12,8,-19,-19,-4,2,-10,-17
1499875972266738,2,4,-4,25,-12,-4,-4,-1
1499875972281739,7,17,3,-52,24,5,8,16
1499875972281739,18,69,-18,19,-5,-3,6,8
1499875972282738,-23,-55,-13,-17,-9,0,-13,-25
1499875972282738,-2,1,-7,1,-13,-6,-12,14
1499875972304739,-4,-23,11,-10,-5,-1,3,-3
1499875972304739,-10,20,-5,12,26,-2,-7,-20
1499875972305740,15,5,-1,18,0,0,-5,16
1499875972305740,7,0,1,-21,-11,1,17,19
1499875972327742,-12,-16,-13,11,9,-2,8,-22
1499875972327742,-7,-10,47,-1,-15,-5,-25,10
1499875972328742,-3,-29,-40,22,8,0,1,-7
1499875972328742,-5,26,17,27,8,2,-6,-17
1499875972341741,-3,-44,-16,-61,-55,-6,-11,4
1499875972341741,10,17,1,17,-9,-1,8,7
1499875972342742,-32,-40,-6,-6,42,-5,-9,-18
1499875972342742,-3,26,11,17,4,0,-28,-42
1499875972364743,-1,-13,0,42,-4,-2,4,13
1499875972364743,0,5,4,-12,-22,-2,-10,-11
1499875972365743,7,38,-29,17,-15,-2,7,15
1499875972365743,3,13,-2,-43,-13,3,18,15
1499875972378747,-9,-19,-2,14,16,-3,-1,-16
1499875972378747,-2,-22,1,6,-6,-4,-3,4
1499875972386745,1,7,14,-56,5,-1,-30,-28
1499875972386745,16,63,3,-5,-6,-2,5,5
1499875972401745,3,-47,-5,16,11,0,-1,-10
1499875972401745,-26,-61,-27,3,-9,-3,8,4
1499875972402745,10,39,21,-23,1,2,5,-8
1499875972402745,-6,-34,-7,-9,-6,0,3,17
1499875972424751,9,19,24,4,14,-2,-5,15
1499875972424751,-10,-8,-25,15,12,5,23,-20
1499875972426746,13,8,14,-14,-20,-6,-9,27
1499875972426746,-10,-23,3,-11,-12,2,6,-10
1499875972447749,4,21,1,13,7,3,5,12
1499875972447749,-2,12,2,12,16,-3,7,2
1499875972448748,10,40,-2,-60,-18,3,-6,-13
1499875972448748,-11,-77,-18,30,-1,3,19,26
1499875972461750,-24,6,5,18,-5,-5,-29,-22
1499875972461750,6,1,16,-19,0,-2,-7,-2
1499875972462750,8,-14,11,-1,22,1,8,1
1499875972462750,-12,-10,-9,6,7,-5,1,-4
1499875972492750,14,26,-12,-9,-33,0,18,26
1499875972492750,-6,-10,-5,-6,35,4,-25,-20
1499875972493751,5,16,12,23,-16,1,6,1
1499875972493751,-2,-4,10,-8,3,-2,-2,-10
1499875972507751,-1,-5,-11,13,27,5,11,13
1499875972507751,7,18,-8,-15,-25,-3,-3,12
1499875972508754,-12,1,2,31,3,-3,-16,-17
1499875972508754,4,31,11,1,0,2,0,-8
1499875972521752,-6,-50,-7,3,-3,-6,-18,-4
1499875972521752,4,-2,1,2,18,2,9,23
1499875972522752,-2,-2,1,4,-5,2,17,29
1499875972522752,-3,41,-13,-12,-5,-3,-8,-22
1499875972545773,9,5,4,13,-9,-5,-5,-11
1499875972545773,-6,-2,14,-11,4,1,-6,-11
1499875972545773,-10,-20,-17,62,44,0,0,-12
1499875972545773,18,47,18,-27,-41,-8,2,23
1499875972567758,-12,-17,8,-30,0,3,9,2
1499875972567758,2,-26,-9,8,12,0,0,22
1499875972568755,1,27,2,22,-36,-6,-16,-24
1499875972568755,-14,13,-15,-29,-27,-2,5,0
1499875972581755,-8,-23,-9,-5,5,0,-23,-46
1499875972581755,1,-3,-6,26,29,7,22,18
1499875972582756,0,-1,30,-16,-7,-7,-17,-5
1499875972582756,-4,-17,1,29,11,3,-6,-21
1499875972604765,-2,10,1,-13,-27,-4,2,21
1499875972604765,-3,-12,-12,-13,4,4,15,8
1499875972605760,2,-24,-8,-5,-10,-1,0,-4
1499875972605760,-1,14,4,20,31,1,3,3
1499875972627758,9,28,3,-10,-11,1,6,25
1499875972627758,-10,-51,-3,0,-1,-5,-19,-25
1499875972628771,-9,-6,0,-15,-3,1,-3,13
1499875972628771,-1,-33,8,-1,-6,-2,-2,-1
1499875972641758,13,48,-4,23,33,5,15,4
1499875972641758,-14,-8,-5,-36,-15,-7,-11,-17
1499875972642760,-12,-18,-12,22,46,0,13,6
1499875972642760,-1,-36,5,-51,-12,4,6,8
1499875972664763,-4,-3,10,12,-14,-11,-30,-14
1499875972664763,5,7,-14,22,-1,-2,-10,-21
1499875972665761,1,37,11,-43,-41,-1,12,5
1499875972665761,26,-13,1,31,24,4,5,15
1499875972687762,-14,-38,3,-21,-32,-2,-6,-17
1499875972687762,-7,1,0,8,15,-1,4,-3
1499875972688761,0,36,-3,7,-24,-4,-21,5
1499875972688761,-6,-28,-13,-10,-9,-2,9,6
1499875972701778,2,-15,-3,8,10,-1,-4,8
1499875972701778,-19,-6,14,-1,-16,-1,-1,-8
1499875972702764,11,-7,-11,18,11,3,17,0
1499875972702764,-11,-3,-1,-13,-4,-5,-16,3
1499875972725765,-2,-1,-4,-28,4,1,8,2
1499875972725765,7,12,-1,12,-8,-6,-10,-25
1499875972726765,-12,-5,-3,-31,-10,-6,-16,-10
1499875972726765,-5,2,2,28,33,0,-14,-11
1499875972747764,10,9,-5,-12,4,5,14,22
1499875972747764,2,-13,-3,15,10,-6,0,12
1499875972748765,0,-26,-5,-25,-39,1,5,3
1499875972748765,-4,-20,13,31,8,1,13,-4
1499875972761774,-7,11,-11,20,6,-1,-41,-11
1499875972761774,18,26,-13,-75,-29,1,16,16
1499875972762780,-8,-20,5,62,32,-1,-10,9
1499875972762780,2,6,-6,-49,-14,-3,13,35
1499875972783772,9,4,9,19,17,2,12,-24
1499875972783772,5,24,15,6,-5,-1,-13,-8
1499875972791768,4,-25,-12,3,-11,-4,13,14
1499875972791768,-12,10,4,-12,2,-1,5,-8
1499875972807769,2,55,-3,19,2,-1,-18,-1
1499875972807769,0,-3,6,18,-6,1,-2,19
1499875972808770,-5,-21,-17,-20,18,2,8,1
1499875972808770,6,9,10,-6,8,-4,-6,-16
1499875972821773,-8,-4,10,-7,-27,-3,11,0
1499875972821773,-6,-22,-29,-8,11,4,2,0
1499875972822769,5,23,27,48,-7,2,-8,-3
1499875972822769,2,24,-23,-59,7,2,13,14
1499875972844774,6,-34,-1,10,12,-1,10,8
1499875972844774,-20,-35,-10,10,13,-10,-45,-51
1499875972845769,12,38,14,1,-2,4,10,14
1499875972845769,0,5,-16,27,6,0,-3,-15
1499875972867770,-8,9,6,-13,-9,-3,3,-12
1499875972867770,3,-7,12,-3,-14,2,22,20
1499875972868772,13,0,10,9,-10,-3,-9,-1
1499875972868772,-34,-3,-10,-19,-6,0,-2,-5
1499875972881773,16,64,9,-16,29,1,6,25
1499875972881773,9,-28,-20,-17,-20,-1,-5,7
1499875972882772,-9,-35,-12,14,4,-1,5,-25
1499875972882772,5,-5,3,-18,10,1,-2,4
1499875972904774,0,-3,1,-31,-18,-2,-8,-4
1499875972904774,1,41,6,0,6,5,19,-10
1499875972905775,1,-4,2,-7,-2,-5,-16,3
1499875972905775,-5,-31,-11,15,-23,-6,-25,-16
1499875972927777,8,7,5,22,33,2,4,11
1499875972927777,0,1,6,-4,-8,-5,-4,6
1499875972928789,-14,-16,-2,-8,2,0,5,-7
1499875972928789,-8,-1,4,32,1,-3,-11,-17
1499875972941776,-5,-21,-11,-57,-12,-3,-1,-4
1499875972941776,1,31,11,18,-20,-1,1,6
1499875972949776,-3,-18,-18,31,26,5,-2,-20
1499875972949776,10,-8,11,-58,11,-2,0,4
1499875972964778,-7,-89,-36,30,-1,3,3,-10
1499875972964778,1,-3,-5,6,10,-3,2,5
1499875972965779,1,35,13,-27,-3,1,6,11
1499875972965779,9,16,0,19,-1,-3,10,1
1499875972987779,-6,-7,-3,-6,-6,-1,-4,-14
1499875972987779,10,32,9,0,-6,0,8,20
1499875972988781,-15,-14,-10,28,-13,-6,-17,-31
1499875972988781,1,-4,2,-38,7,2,-18,11
1499875973001779,1,-20,0,41,-21,-1,18,1
1499875973001779,-9,-3,0,-22,1,-1,-12,16
1499875973002781,3,21,11,-5,0,-2,9,-2
1499875973002781,10,6,14,16,-7,1,5,1
1499875973024785,-8,23,-14,0,-9,1,10,-14
1499875973024785,-8,12,7,7,7,0,-28,2
1499875973025780,4,-14,-11,8,1,2,11,33
1499875973025780,4,8,-8,-11,2,-3,-23,-19
1499875973047783,-2,3,10,8,-9,-2,15,31
1499875973047783,-8,-13,-2,4,-4,-2,-29,-48
1499875973048782,7,24,12,-30,7,2,-4,4
1499875973048782,-1,10,-3,55,-40,-4,0,-7
1499875973060784,-8,-6,-15,-29,62,-1,-9,6
1499875973060784,1,-2,-15,-64,-21,0,18,0
1499875973069783,-4,-15,-6,-10,-2,-3,9,15
1499875973069783,10,-8,-14,-22,-18,-2,-15,-31
1499875973092784,-14,18,6,37,12,-5,-13,-16
1499875973092784,-2,-9,6,-29,5,2,8,0
1499875973093784,1,6,-3,-27,-12,-7,-3,9
1499875973093784,4,31,19,24,10,6,17,14
1499875973107790,-3,-33,-25,0,-14,-2,25,14
1499875973107790,1,-11,11,35,11,-5,-39,-18
1499875973108785,-7,9,0,-24,-17,-3,-8,-32
1499875973108785,2,20,2,14,35,1,20,12
1499875973120785,11,-18,10,0,-8,2,-12,14
1499875973120785,0,29,-1,25,-6,2,14,2
1499875973129792,1,-36,-5,-28,-10,-4,3,5
1499875973129792,-9,-11,0,45,17,-2,-5,-5
1499875973144789,-1,16,17,-12,-15,-3,7,3
1499875973144789,19,26,-2,4,-6,5,23,18
1499875973145797,-6,-4,-1,20,3,0,-7,-6
1499875973145797,-2,-4,-5,17,-17,-1,8,5
1499875973167794,-1,9,8,-5,6,1,-15,-11
1499875973167794,1,0,-4,15,-10,-6,-1,-15
1499875973168798,4,17,4,-31,1,4,11,-1
1499875973168798,-5,-21,0,2,1,1,-6,15
1499875973180791,-5,1,-12,-1,-2,-4,-8,-25
1499875973180791,5,0,3,8,5,-1,8,1
1499875973189792,2,-27,-13,12,0,-1,4,27
1499875973189792,-4,11,-9,-11,-6,0,-6,-9
1499875973204791,-8,-50,18,15,7,-1,-9,-9
1499875973204791,-10,-20,0,-5,8,1,11,8
1499875973205791,-2,-10,-8,17,1,-2,-20,-17
1499875973205791,5,25,11,-23,0,3,15,33
1499875973227794,-9,24,-5,-3,-8,-2,-28,-40
1499875973227794,3,-31,3,15,0,-3,-2,-2
1499875973228809,10,35,9,-24,13,3,2,19
1499875973228809,-13,-15,-14,-9,-21,-5,5,0
1499875973249794,10,-16,-18,-8,31,-2,-7,7
1499875973249794,-21,-24,-7,7,-5,-2,4,-11
1499875973250793,-12,-5,1,-23,-7,-3,-23,-15
1499875973250793,6,-26,1,-1,4,0,-5,18
1499875973264799,-12,-24,-6,15,-15,0,12,-2
1499875973264799,1,4,10,-12,9,1,-8,-2
1499875973265794,1,5,2,12,-9,-4,7,-10
1499875973265794,2,1,-14,-6,13,1,5,5
1499875973287807,-3,30,14,11,-20,-5,-9,-6
1499875973287807,4,0,-7,-24,-48,-3,-7,-12
1499875973288798,-5,-5,-8,34,87,11,0,1
1499875973288798,-1,23,-14,8,-14,-7,-7,-14
1499875973300798,1,-40,-4,-15,-12,2,0,-2
1499875973300798,-5,14,0,16,-6,0,16,18
1499875973316799,-2,-10,-14,5,-22,-7,1,-10
1499875973316799,10,18,21,-3,0,-2,-10,6
1499875973324798,2,25,-32,14,-23,1,5,26
1499875973324798,8,21,-4,-6,28,6,10,0
1499875973325798,-17,-45,-21,1,-13,-6,-12,-28
1499875973325798,2,-22,9,-17,-3,0,-5,-11
1499875973347801,-3,-1,19,17,-13,-3,-2,-9
1499875973347801,4,6,6,-20,-5,-4,8,9
1499875973348806,7,29,-4,-2,18,2,3,2
1499875973348806,4,16,-4,17,-49,-5,8,11
1499875973360800,-14,-57,0,-6,43,2,-14,-38
1499875973360800,1,-18,10,-37,-22,-3,-6,16
1499875973369812,8,22,0,3,10,4,14,7
1499875973369812,-7,-26,4,22,-17,-4,-9,2
1499875973384801,5,28,6,19,15,2,12,6
1499875973384801,-2,-8,-8,-44,-3,-3,-12,7
1499875973384801,-4,-7,3,-1,-19,-2,12,-21
1499875973384801,-4,-3,-10,-19,6,0,-7,-13
1499875973407806,11,40,7,-11,-3,0,11,17
1499875973407806,-11,-35,-15,15,15,-1,-10,-10
1499875973408803,8,18,24,13,-25,-4,11,18
1499875973408803,-12,-2,-17,-16,12,-1,-7,-24
1499875973429808,4,16,6,-18,4,2,13,17
1499875973429808,-8,-8,-1,-4,-22,-6,-24,-25
1499875973430804,7,-13,2,12,24,2,9,36
1499875973430804,-8,-12,-18,9,2,-3,-9,-32
1499875973444805,-9,9,1,8,-24,-4,-8,-20
1499875973444805,7,11,-9,7,19,1,8,-4
1499875973444805,-9,11,6,-16,-18,-2,-8,5
1499875973444805,-2,-30,-5,-7,10,1,12,-12
1499875973467811,6,33,18,46,-14,-4,5,11
1499875973467811,3,-18,-28,-51,10,-3,-19,-10
1499875973468807,-5,-9,3,-9,-19,-3,-5,1
1499875973468807,-2,8,19,16,3,-2,-11,6
1499875973490812,1,4,-3,-11,5,2,11,2
1499875973490812,-2,18,21,36,1,0,2,-9
1499875973491812,-6,-31,-20,-44,1,-1,-6,-10
1499875973491812,6,8,-4,-7,-2,0,8,29
1499875973503810,-2,-3,4,4,7,-2,-8,-37
1499875973503810,-3,6,-7,38,-7,1,3,4
1499875973504809,8,17,-9,-31,-15,-2,-3,1
1499875973504809,-8,-15,3,7,12,-2,-1,-8
