timestamp,emg1,emg2,emg3,emg4,emg5,emg6,emg7,emg8
1499879241355418,4,-46,9,-66,-3,-2,-10,-85
1499879241355418,-42,15,29,0,-6,-7,-23,-87
1499879241356453,24,60,-17,-10,-30,-1,10,67
1499879241356453,-3,1,-28,28,-15,2,0,-8
1499879241357416,76,-60,14,54,55,1,9,87
1499879241357416,-17,85,-22,-8,80,17,-20,-92
1499879241360467,-60,-79,91,5,-29,-16,-25,-38
1499879241360467,-31,22,14,-65,-103,-20,-8,-31
1499879241366450,-43,-23,-91,-74,43,4,-3,-10
1499879241366450,23,-80,-63,37,-5,2,22,49
1499879241376454,37,70,26,100,57,7,6,-69
1499879241376454,-24,-50,-10,-29,-6,2,-5,58
1499879241381454,24,5,44,54,-44,-1,19,-27
1499879241381454,24,62,57,-18,-21,-12,-25,-15
1499879241397483,24,103,-5,14,5,5,19,-37
1499879241397483,57,-72,10,-9,-10,-11,-10,27
1499879241405455,-89,-6,21,21,4,-1,-16,-24
1499879241405455,-43,-66,-12,4,-8,6,69,104
1499879241420430,18,54,-59,-11,-37,-18,-62,23
1499879241420430,-63,-92,-15,-33,37,7,-6,-44
1499879241428442,104,127,40,17,19,23,72,35
1499879241428442,-31,-78,-13,127,-83,-29,-52,11
1499879241441463,12,-128,-46,-57,20,9,107,70
1499879241441463,25,116,-3,-32,6,-2,-64,-56
1499879241484454,-18,30,31,47,29,25,93,60
1499879241484454,62,59,78,53,-15,7,19,33
1499879241488464,6,-29,-71,-74,-39,-8,-1,2
1499879241488464,2,70,-9,-71,-2,0,-16,-22
1499879241489423,-35,11,92,68,34,12,37,109
1499879241489423,19,33,-86,-4,9,5,-10,15
1499879241490421,16,-45,-22,-74,-5,2,-3,-76
1499879241490421,-16,55,49,26,-34,-8,-6,57
1499879241495448,-47,17,-47,-42,3,-11,-26,-45
1499879241495448,7,-13,28,2,-16,9,32,0
1499879241501433,-7,9,46,105,-5,4,8,42
1499879241501433,66,-8,-2,-18,-8,-2,-20,-53
1499879241509489,-8,-116,-109,16,14,1,-12,53
1499879241509489,62,9,94,39,26,-6,-10,-10
1499879241524466,-72,-48,-49,-16,21,-2,-16,-67
1499879241524466,-17,-3,41,127,5,5,25,-20
1499879241531466,72,90,73,-43,-50,1,-25,-3
1499879241531466,-17,20,64,46,9,-3,-13,-73
1499879241555470,24,-7,-68,-28,3,11,16,52
1499879241555470,-26,-126,-35,-31,-5,-4,0,-16
1499879241556427,-56,41,5,0,-20,-13,-25,-53
1499879241556427,-62,-10,-24,-16,15,7,6,-1
1499879241569470,62,99,92,48,20,-1,-11,-7
1499879241569470,10,63,33,56,-13,1,5,-35
1499879241570459,36,-21,-12,-117,-20,-10,9,60
1499879241570459,-27,-47,-128,2,-7,-5,-1,-102
1499879241592497,18,124,35,40,-21,-3,-22,111
1499879241592497,-23,-110,-37,-2,22,6,40,-47
1499879241593430,32,26,-59,-5,-26,-14,-38,-67
1499879241593430,-40,12,74,-71,13,-5,4,17
1499879241615466,45,59,-5,24,6,10,18,35
1499879241615466,-56,27,41,15,-69,-9,-23,-54
1499879241616431,8,-23,3,103,45,6,0,-20
1499879241616431,-11,-36,-50,39,11,-5,-35,2
1499879241630454,23,49,-5,-87,2,2,18,7
1499879241630454,-45,-73,-17,17,-16,-2,24,36
1499879241630454,16,78,63,-60,-15,-1,-19,-26
1499879241630454,-10,-30,-89,0,-46,-6,-22,12
1499879241652454,58,41,54,-33,-1,-1,0,60
1499879241652454,30,104,-60,-7,32,8,5,-18
1499879241653432,-26,-19,-12,-12,-7,-3,-5,-27
1499879241653432,79,96,72,-73,-7,7,13,37
1499879241675473,-102,-128,22,114,-25,-15,19,-6
1499879241675473,-35,69,-69,-71,69,3,-37,19
1499879241676442,39,69,-34,69,-4,9,56,-7
1499879241676442,-40,7,-29,-36,-26,-7,6,56
1499879241689497,-34,3,67,31,9,-1,-3,-64
1499879241689497,55,-44,27,-30,-16,-1,12,111
1499879241690445,6,-29,42,45,3,1,-11,-86
1499879241690445,-25,-72,-42,-22,-1,-8,-24,-32
1499879241712501,3,-7,-21,-97,-15,-7,0,-17
1499879241712501,61,31,-57,83,40,3,35,56
1499879241713444,-7,-52,-18,-53,51,5,-31,7
1499879241713444,-16,11,-50,-6,-17,-5,10,-2
1499879241735475,2,-22,-32,74,-5,7,-7,24
1499879241735475,25,44,97,-51,-16,1,-2,37
1499879241736437,4,18,-79,37,-49,-8,4,13
1499879241736437,-2,-70,35,-45,-7,3,26,-1
1499879241749511,-19,55,23,88,103,8,-12,-32
1499879241749511,-1,60,-19,-19,-46,1,12,12
1499879241750450,-15,33,99,-13,45,5,-14,-42
1499879241750450,6,11,82,53,-8,0,-4,-38
1499879241772488,-1,-18,-19,-53,-28,-2,-7,-37
1499879241772488,-19,-52,-41,-43,-1,-8,-17,6
1499879241773457,7,-44,-36,-18,-18,1,27,56
1499879241773457,13,46,33,19,8,5,0,10
1499879241795482,-32,-63,-14,23,1,-1,11,-21
1499879241795482,22,43,64,89,31,6,-4,0
1499879241796459,-30,-19,-49,-97,-50,-14,-26,-30
1499879241796459,-22,-14,15,-6,23,-1,4,8
1499879241810479,21,48,-59,24,-16,-1,-2,8
1499879241810479,4,-49,19,-14,-14,-8,21,29
1499879241811439,-23,-67,11,79,36,8,4,24
1499879241811439,14,37,-13,-75,-20,-1,-11,-17
1499879241832489,27,45,17,-24,-29,-11,-14,-30
1499879241832489,-39,-40,-30,24,26,2,9,19
1499879241833442,13,40,70,3,-46,-5,10,-44
1499879241833442,3,2,4,-6,41,-1,-28,-10
1499879241855517,-9,15,-48,-23,-32,-3,16,-6
1499879241855517,-31,-21,67,51,54,2,-26,-51
1499879241856476,13,15,-49,-52,-2,0,-15,26
1499879241856476,-8,1,4,12,-20,-6,7,49
1499879241869488,-2,38,85,44,14,-6,-7,-7
1499879241869488,32,3,-39,-47,-27,5,5,36
1499879241870443,-28,-17,-27,-13,8,-4,55,23
1499879241870443,-23,78,-10,124,-5,-12,-41,-13
1499879241892489,-21,-55,27,-102,20,7,8,20
1499879241892489,-10,20,-93,27,-8,-11,-32,-31
1499879241893460,6,-16,57,-25,-36,-4,19,29
1499879241893460,27,-31,-81,31,15,2,33,41
1499879241915490,-5,-8,70,-10,3,3,-42,-20
1499879241915490,-12,-50,5,-26,-3,7,-5,-37
1499879241916459,4,68,41,10,-1,-5,-21,-13
1499879241916459,-2,-49,-74,38,8,2,20,16
1499879241929491,7,-47,-6,11,-2,-6,9,4
1499879241929491,-4,16,20,-39,21,6,-6,-1
1499879241937517,14,18,-9,30,22,2,-3,-11
1499879241937517,3,4,29,3,-4,-8,-45,-88
1499879241952519,7,23,-11,19,-13,10,35,54
1499879241952519,-23,-8,-1,-21,-12,2,10,-28
1499879241953449,32,35,24,60,3,-2,-15,18
1499879241953449,-18,-60,-19,-37,42,12,32,4
1499879241975489,-38,-50,-44,13,-23,-16,-6,-12
1499879241975489,13,44,-55,34,-1,-9,-16,-24
1499879241976461,15,6,73,26,15,4,-6,25
1499879241976461,5,-33,-9,-37,4,2,6,22
1499879241989522,7,36,-2,-60,24,3,-23,-71
1499879241989522,9,21,26,52,-1,-1,-5,35
1499879241997492,13,-39,60,-32,-18,-8,17,29
1499879241997492,-32,-43,-35,10,-57,-14,-27,-55
1499879242012518,-8,-40,-36,21,61,4,21,39
1499879242012518,22,85,16,-57,-22,-9,-10,-35
1499879242013460,1,-28,-88,2,-1,3,-3,40
1499879242013460,-5,54,102,-16,-18,3,19,42
1499879242035518,-5,7,32,57,12,-2,-17,-50
1499879242035518,16,31,-57,-53,-25,5,51,41
1499879242036455,-19,-60,-28,5,42,-4,-39,-50
1499879242036455,21,40,-28,-37,-25,2,-10,42
1499879242049522,4,-3,11,-7,-35,-3,2,12
1499879242049522,-5,40,45,50,22,-5,-6,-16
1499879242057517,-22,-68,-20,49,1,-2,23,-20
1499879242057517,1,29,36,-9,10,5,-23,18
1499879242072468,25,32,-18,-2,-14,1,-5,6
1499879242072468,-20,-77,55,8,-14,-1,-6,-6
1499879242073465,-22,-12,-101,-31,6,-3,-6,-5
1499879242073465,1,23,60,-20,0,0,22,1
1499879242095497,26,46,10,-9,-9,5,-34,-39
1499879242095497,-4,-48,-32,9,-10,-13,-14,-34
1499879242096456,-9,-9,11,28,14,5,-9,-5
1499879242096456,4,2,3,-60,14,6,29,-11
1499879242109527,-5,18,-22,-10,-18,-9,-6,48
1499879242109527,29,38,83,14,17,-2,7,20
1499879242117470,-35,5,-9,5,-31,5,22,-1
1499879242117470,-5,-38,-37,31,21,-3,-45,-10
1499879242132499,-12,13,-89,52,3,1,6,-15
1499879242132499,3,-71,27,-99,-34,-8,7,19
1499879242133459,2,17,-12,-8,6,-6,-34,-64
1499879242133459,3,-2,-21,32,2,-4,-6,6
1499879242155503,-9,26,24,-18,-15,-5,13,-18
1499879242155503,-27,-39,-5,24,9,-3,-24,-18
1499879242156472,16,56,47,-40,17,7,-2,-8
1499879242156472,-7,-16,-90,64,0,2,27,-34
1499879242169503,-15,-58,10,17,17,-5,-10,36
1499879242169503,5,5,-23,-65,-15,0,13,9
1499879242177498,15,1,65,-34,1,-3,-10,12
1499879242177498,7,-13,35,23,5,3,7,9
1499879242192527,-4,20,1,-15,-61,-5,13,-9
1499879242192527,14,39,69,47,47,13,15,11
1499879242193473,-24,-28,-128,10,-7,-15,-17,-2
1499879242193473,29,28,6,-32,-13,3,62,69
1499879242215508,-8,-2,-10,-13,-2,-10,-80,-73
1499879242215508,-17,1,-51,-28,-18,3,-4,-24
1499879242216463,41,40,63,2,-13,-4,-18,-24
1499879242216463,-28,12,25,13,-5,-1,12,13
1499879242229524,8,-42,-50,4,23,10,40,36
1499879242229524,-8,21,-24,55,-9,-4,-13,6
1499879242237506,-3,16,-91,-37,-21,-6,29,39
1499879242237506,-16,-45,18,-19,-5,-7,-59,-83
1499879242252499,0,-29,95,-7,-12,6,3,36
1499879242252499,10,25,-75,32,78,-4,-12,-5
1499879242253466,-3,8,41,-31,-13,4,8,4
1499879242253466,0,16,42,65,-25,-7,-4,3
1499879242275466,-10,-5,-66,-2,4,3,0,-9
1499879242275466,17,39,3,-71,-13,5,3,15
1499879242276468,5,-26,58,-5,-15,3,30,22
1499879242276468,-21,-26,-31,6,-14,-13,-27,-44
1499879242289468,1,3,-26,-23,7,-3,-2,-28
1499879242289468,-26,-35,48,16,-6,-2,-24,-18
1499879242297497,21,35,34,37,17,5,5,28
1499879242297497,23,55,50,-61,-35,-4,1,39
1499879242312468,-34,-40,20,3,33,0,15,-27
1499879242312468,2,-27,24,-28,-32,1,33,26
1499879242313473,3,41,-22,-22,12,4,0,16
1499879242313473,2,37,-24,5,1,9,-19,-72
1499879242335510,21,7,26,-14,-8,-8,-1,-18
1499879242335510,-22,-8,11,35,59,6,7,11
1499879242336470,-4,-20,28,5,-31,-4,-29,-17
1499879242336470,15,37,19,79,19,-4,11,50
1499879242358485,14,18,-16,-83,-1,3,15,28
1499879242358485,-23,-54,-45,-11,-37,-6,-22,-41
1499879242358485,-11,-40,15,67,5,-4,2,11
1499879242358485,6,50,-15,-20,10,5,10,-29
1499879242372515,22,28,44,7,-33,-9,-15,1
1499879242372515,-13,-61,-41,-13,-30,-3,-4,18
1499879242373475,-9,26,9,42,78,7,-15,-52
1499879242373475,7,-105,72,-27,-10,1,7,4
1499879242395507,-19,20,-65,-21,-23,-2,7,38
1499879242395507,28,46,-21,-17,-11,2,44,28
1499879242396483,7,-45,-82,10,-14,-2,-16,-23
1499879242396483,-11,38,63,-8,5,-4,-45,-9
1499879242418487,-8,-7,1,76,-4,-7,4,-11
1499879242418487,14,7,-29,-56,-28,5,-17,1
1499879242418487,-22,-14,19,12,2,1,12,12
1499879242418487,26,37,25,34,24,-1,18,26
1499879242432542,-5,-23,-22,-2,-2,5,8,-8
1499879242432542,-20,22,88,72,27,-6,-7,10
1499879242433482,9,29,-28,-45,-11,8,26,7
1499879242433482,3,-6,-55,-74,-8,0,-16,-28
1499879242454489,-61,-86,-33,10,-18,-11,-5,-37
1499879242454489,3,-12,-29,-9,32,2,-17,-16
1499879242463481,-2,-13,45,-36,9,1,18,29
1499879242463481,11,21,-119,-37,2,-3,9,5
1499879242478478,13,-9,96,-29,-9,-6,-10,33
1499879242478478,5,14,20,62,24,8,-16,-38
1499879242479481,-15,-42,0,1,-30,-15,-24,-42
1499879242479481,-3,50,-20,11,12,5,26,24
1499879242500513,17,-2,-9,-17,54,10,9,10
1499879242500513,-6,-15,-92,-25,-34,-6,2,-17
1499879242502483,-2,6,-6,42,11,1,-15,45
1499879242502483,-23,-11,34,19,-13,-7,-21,-63
1499879242514509,24,15,-12,-66,4,4,-18,9
1499879242514509,-10,-11,45,59,-1,-9,18,41
1499879242523484,2,22,-29,-39,25,7,-19,-71
1499879242523484,-9,-69,-24,-13,-7,-3,11,38
1499879242538483,-11,1,-29,17,-7,-6,6,-14
1499879242538483,24,5,10,-65,-11,-4,-12,-11
1499879242539508,19,3,37,31,-28,2,15,17
1499879242539508,-25,-37,-83,13,-16,-6,-24,13
1499879242560512,35,104,79,-7,19,4,8,6
1499879242560512,-28,9,33,38,-3,-3,-6,-32
1499879242562484,3,-14,41,-26,39,-1,6,26
1499879242562484,2,-3,-6,22,12,6,16,-2
1499879242574482,14,15,-46,16,-29,2,10,29
1499879242574482,0,-8,32,-7,-21,-9,-31,-68
1499879242583486,-12,27,-30,29,1,-7,10,6
1499879242583486,-5,-20,90,7,-4,2,0,-8
1499879242598485,4,-15,-10,-24,-3,-3,2,16
1499879242598485,10,-40,-31,-20,-48,-2,18,33
1499879242599495,3,55,-6,-2,28,2,0,4
1499879242599495,-19,-6,-38,-8,1,-4,-3,13
1499879242620520,-11,18,-15,33,-9,-1,-3,-11
1499879242620520,0,-29,28,12,-2,0,-8,12
1499879242622488,5,-13,26,-60,-19,-4,13,-1
1499879242622488,1,78,42,3,1,2,20,25
1499879242634520,-11,-63,-83,2,14,-7,-42,-39
1499879242634520,-12,14,48,-3,4,3,4,-3
1499879242643502,-5,-28,27,28,-14,-6,-20,-27
1499879242643502,29,46,71,-32,9,0,11,31
1499879242658491,-21,-93,-63,-13,-24,2,23,9
1499879242658491,22,57,10,3,16,4,5,33
1499879242659490,-25,-19,-98,19,-11,-6,-17,-37
1499879242659490,-2,-17,17,4,-2,-2,-1,5
1499879242680531,34,30,-2,-4,-2,3,11,22
1499879242680531,-19,-15,-3,1,6,-2,11,-8
1499879242682491,7,-50,-21,-9,-20,-2,-1,12
1499879242682491,-4,-24,-27,21,-7,-1,13,12
1499879242694560,-19,-22,12,29,-8,-6,-23,-31
1499879242694560,8,12,-7,-51,36,3,-8,16
1499879242703502,6,41,46,-32,25,3,9,4
1499879242703502,-19,-39,-49,-3,-7,-10,-27,-33
1499879242718495,-4,7,37,20,-12,-4,2,-5
1499879242718495,-2,-1,-9,4,2,-7,-13,-18
1499879242719493,-4,-18,-50,1,-28,-2,4,9
1499879242719493,6,36,-23,-33,-5,8,12,8
1499879242740504,-23,-51,37,17,39,1,-6,-22
1499879242740504,10,34,-10,-5,-35,4,18,38
1499879242742494,-14,-27,-3,-13,4,-2,-27,-41
1499879242742494,4,-24,-8,10,1,-2,-12,13
1499879242754567,2,17,-19,22,4,0,2,2
1499879242754567,3,25,27,-11,-11,-1,1,-10
1499879242763496,0,2,12,9,-21,-4,8,17
1499879242763496,27,18,24,8,21,6,56,40
1499879242778520,-39,-32,-41,35,29,7,-53,-38
1499879242778520,8,-4,-78,-46,-3,-5,-8,-6
1499879242779497,-13,-11,66,7,-6,2,4,11
1499879242779497,-4,6,60,-39,-30,-9,-3,-1
1499879242800531,27,66,37,-5,52,3,28,27
1499879242800531,9,-48,22,14,-3,2,2,-11
1499879242802531,-5,-28,-94,-12,-10,8,4,-3
1499879242802531,-10,35,100,49,5,-5,-8,18
1499879242823526,25,40,55,2,24,6,3,10
1499879242823526,-20,-55,0,-8,0,0,33,26
1499879242824501,6,42,0,38,-9,-10,-30,-53
1499879242824501,-12,-52,-70,-90,-49,-5,-23,-44
1499879242838512,19,51,9,10,16,-3,5,2
1499879242838512,-12,48,20,26,-10,3,37,37
1499879242839512,-19,-17,11,9,13,-5,-43,-40
1499879242839512,-1,-70,-71,10,22,2,-13,-5
1499879242860520,-1,14,46,-16,-43,-10,5,-2
1499879242860520,31,28,-22,46,5,2,7,-6
1499879242862502,-21,-39,11,-55,-12,0,1,15
1499879242862502,-8,-31,29,16,27,1,-16,-15
1499879242883519,-2,-12,-62,10,-34,-1,35,44
1499879242883519,-7,1,-3,-51,2,-13,-31,-39
1499879242884513,12,21,21,27,-20,7,9,-36
1499879242884513,-15,-47,18,43,61,2,-9,-28
1499879242898521,-6,-19,7,-56,-73,-3,0,18
1499879242898521,-5,24,-13,28,48,-1,-18,8
1499879242899505,7,46,-60,-46,12,0,5,10
1499879242899505,6,29,-11,34,-10,1,16,13
1499879242920526,-5,-32,32,-28,-42,0,34,5
1499879242920526,6,-12,-11,-12,20,-3,-49,-31
1499879242922505,9,45,4,5,13,-4,5,37
1499879242922505,8,-2,-116,6,-2,-2,-7,-5
1499879242943508,-22,5,17,-2,-17,2,9,16
1499879242943508,-4,-2,-30,2,-17,-6,-2,-8
1499879242944506,7,-2,17,16,13,-1,19,13
1499879242944506,24,44,1,-31,-10,1,19,25
1499879242958518,-12,-37,3,-16,25,0,-14,-20
1499879242958518,-4,-15,-40,-1,-23,-1,-24,-17
1499879242959506,-6,-10,87,30,-13,-2,0,20
1499879242959506,4,20,-42,-17,-3,-3,-4,-8
1499879242980547,-14,1,14,8,-4,-4,-1,-18
1499879242980547,-8,-32,56,3,25,3,-18,-32
1499879242982518,13,-12,-1,28,-15,-8,8,27
1499879242982518,-4,11,-14,-36,20,10,-8,-36
1499879243003520,14,13,8,7,2,0,-8,1
1499879243003520,-5,-17,25,-1,12,-1,16,15
1499879243004517,9,14,-28,37,-32,-1,5,2
1499879243004517,1,-4,68,-30,18,4,1,-10
1499879243017519,-10,-16,-33,2,18,-1,-24,-20
1499879243017519,-14,1,-21,-5,-17,0,25,34
1499879243024510,8,30,2,3,28,-3,-36,-61
1499879243024510,-15,-36,24,13,-46,2,37,4
1499879243040551,12,17,-22,-22,71,-1,-20,-20
1499879243040551,-5,-33,16,-1,-29,3,0,22
1499879243042516,1,-31,12,-10,17,4,11,25
1499879243042516,2,15,-9,31,-13,-3,-3,13
1499879243063531,2,49,24,-6,-15,0,3,-10
1499879243063531,32,-4,-48,-6,-40,-7,21,17
1499879243064517,-24,-31,1,-2,32,6,-9,31
1499879243064517,6,-8,52,18,13,1,-8,-3
1499879243077575,4,26,-21,30,-31,-5,-9,14
1499879243077575,-15,-11,-9,-9,9,-7,-8,-35
1499879243084553,15,30,-17,-21,-20,1,10,21
1499879243084553,2,-9,-63,-16,-13,-7,-2,10
1499879243100514,6,-26,1,27,3,-7,-11,-13
1499879243100514,-22,7,65,22,15,5,3,-7
1499879243102516,-7,-44,-51,1,-10,-9,-11,-16
1499879243102516,-24,0,50,26,-32,-1,14,22
1499879243123538,29,-27,8,-36,15,13,28,-3
1499879243123538,-5,15,-23,-69,0,-6,-41,-46
1499879243124528,10,25,67,13,27,-3,5,9
1499879243124528,-6,21,-7,23,3,1,-7,-20
1499879243137559,-15,4,-24,24,2,2,11,40
1499879243137559,17,4,43,-18,-6,2,16,21
1499879243144582,-18,-9,-46,-27,-17,-3,2,-20
1499879243144582,1,0,-16,29,0,-6,-17,-2
1499879243160566,3,52,66,7,20,7,10,20
1499879243160566,-4,-22,-72,-27,27,-10,-21,-52
1499879243162554,-3,4,-11,-3,-41,-5,6,12
1499879243162554,2,-15,83,-38,20,8,4,-3
1499879243183548,13,1,-20,-30,-28,1,-5,4
1499879243183548,1,24,20,110,20,4,8,10
1499879243184532,-20,3,-35,-15,-5,-3,-10,-5
1499879243184532,-8,1,14,3,17,0,-10,2
1499879243197579,-7,-27,-56,36,-18,-4,-5,-29
1499879243197579,15,36,9,-20,-21,2,16,31
1499879243204580,3,-28,7,-36,15,5,12,7
1499879243204580,8,-3,-68,-8,2,-4,-8,4
1499879243220561,-11,-36,54,-8,0,-5,-4,-9
1499879243220561,-8,-12,-1,9,-26,-5,-13,-10
1499879243222534,-8,4,-45,4,-4,1,18,-10
1499879243222534,10,6,-9,-30,-38,-4,-11,6
1499879243243542,-10,-5,-12,40,76,8,3,-16
1499879243243542,-4,13,5,28,-9,-6,-23,-9
1499879243244524,11,-6,-14,-7,-12,-1,-2,11
1499879243244524,-3,-5,-11,-47,-31,-3,5,3
1499879243257591,-2,17,-6,49,-7,-14,-12,-3
1499879243257591,2,-32,18,0,18,11,13,9
1499879243264591,2,21,26,-19,-25,-5,-1,6
1499879243264591,14,-28,-44,-18,47,5,6,14
1499879243280526,-19,-17,48,-48,-36,-7,-5,-23
1499879243280526,15,23,-50,-9,-12,-3,2,28
1499879243282536,1,16,48,32,-18,1,8,-6
1499879243282536,-11,-19,-17,48,14,-5,-3,-17
1499879243303557,14,5,2,-23,36,18,-4,24
1499879243303557,-2,-18,50,6,-11,1,16,7
1499879243304528,-10,-10,8,-16,8,-4,-9,23
1499879243304528,13,12,20,36,-12,-6,7,-9
1499879243316567,-12,-1,3,-10,-28,-8,-4,-19
1499879243316567,-9,-23,-15,-21,31,4,15,-9
1499879243325535,7,11,-14,3,-11,-5,-31,-12
1499879243325535,-16,16,-17,-13,25,-3,-4,13
1499879243340576,8,42,15,21,-13,2,-2,-1
1499879243340576,11,5,-7,1,-5,2,5,10
1499879243342529,-2,-22,-12,-11,-35,5,21,4
1499879243342529,-5,1,1,27,5,-8,-11,18
1499879243363550,0,4,-7,-33,-3,-1,-15,-61
1499879243363550,-8,39,24,0,7,3,-1,-4
1499879243364532,3,15,97,28,17,-1,-10,-21
1499879243364532,8,11,-8,12,-30,-5,6,-15
1499879243376570,-38,-68,-43,-16,46,1,8,4
1499879243376570,7,42,-3,-8,-30,-3,-8,14
1499879243385538,2,-20,6,34,19,1,5,-1
1499879243385538,10,49,2,-68,-30,7,11,6
1499879243400532,10,-22,-44,30,11,-3,-5,27
1499879243400532,0,-34,-17,-6,-2,1,3,-12
1499879243402532,3,24,-62,-12,-1,-2,3,3
1499879243402532,-21,-21,-2,18,2,-5,-23,-23
1499879243423536,28,47,10,-13,-22,-6,9,22
1499879243423536,-44,-16,43,-5,16,2,15,-9
1499879243424534,3,-8,8,46,-7,1,-7,-30
1499879243424534,-10,-15,65,-33,33,3,-13,-14
1499879243436600,-2,19,-30,-25,-22,-3,-4,3
1499879243436600,9,4,18,18,2,3,13,20
1499879243445543,21,42,27,-8,15,-3,0,16
1499879243445543,-23,-24,25,24,-17,0,-1,-29
1499879243460578,1,14,-17,2,10,4,5,11
1499879243460578,14,-8,-12,30,-13,-2,-10,5
1499879243462538,-17,-54,38,-29,12,4,26,-1
1499879243462538,9,4,-33,-36,-10,-13,-51,4
1499879243483563,-4,-33,107,-9,3,-5,-11,-16
1499879243483563,-5,16,-78,16,4,3,1,-7
1499879243484538,11,14,9,7,8,-3,-7,7
1499879243484538,-5,-8,30,-3,-2,-3,14,-30
1499879243505575,13,12,11,9,-11,3,2,7
1499879243505575,-3,0,17,17,4,-4,-12,-7
1499879243507539,17,10,-43,-14,-19,-4,-3,11
1499879243507539,-16,-10,-34,-20,12,3,26,6
1499879243520578,-9,2,-32,-7,-13,-8,-15,16
1499879243520578,-6,-8,1,-15,8,2,9,-24
1499879243522551,-9,-2,-44,-2,-24,-1,-14,-1
1499879243522551,26,-1,-5,22,4,4,5,26
1499879243543566,1,-10,-51,-17,20,1,3,4
1499879243543566,-6,-11,16,-24,-4,-4,21,29
1499879243544550,-9,-17,-31,-2,4,-4,-38,-54
1499879243544550,0,20,28,31,-15,2,0,5
1499879243556557,13,5,65,-21,-10,-4,5,-2
1499879243556557,-11,-32,-51,29,37,0,0,20
1499879243565543,-12,-10,48,24,-35,0,4,-29
1499879243565543,3,-14,-3,-56,47,7,-18,-13
1499879243580581,2,37,5,19,-28,-1,2,2
1499879243580581,-4,-39,24,-39,-37,-3,-1,11
1499879243582543,13,-11,-9,13,44,-5,-12,4
1499879243582543,-3,9,40,2,4,-5,1,-8
1499879243603568,-7,-26,-30,31,14,4,11,-26
1499879243603568,6,13,46,-3,-19,-9,-24,-29
1499879243604543,-19,21,22,-3,28,7,11,6
1499879243604543,18,20,38,-25,-22,-1,3,19
1499879243616593,3,-18,-11,40,0,-4,-5,15
1499879243616593,-1,5,10,-66,7,-6,-3,-14
1499879243625588,-5,3,-40,4,-18,-1,2,10
1499879243625588,1,-3,22,28,7,-1,-12,-6
1499879243640587,-5,4,-80,-12,1,0,8,17
1499879243640587,0,-15,4,17,-29,-2,3,5
1499879243642547,-8,-13,-14,-39,32,0,-5,15
1499879243642547,5,1,33,29,-19,-2,4,6
1499879243663548,-1,2,15,12,-18,-5,-8,2
1499879243663548,-6,10,61,-15,11,1,-6,-24
1499879243664550,-5,3,3,-17,-26,1,7,0
1499879243664550,-4,35,-15,14,33,3,-2,-12
1499879243676547,-14,-61,-47,18,-8,0,3,4
1499879243676547,10,26,23,38,2,-5,-13,2
1499879243685556,-7,-23,-47,23,9,-2,2,-20
1499879243685556,-2,-8,-43,-18,-26,-2,-3,2
1499879243700552,3,39,12,-34,-7,-2,-3,-18
1499879243700552,12,-3,-45,35,12,-1,-2,1
1499879243702550,-10,-49,-16,-17,17,-3,31,50
1499879243702550,5,2,-49,-17,7,10,-1,-11
1499879243722555,-16,-9,62,37,15,-3,-20,-22
1499879243722555,2,-5,-24,-31,-20,-3,-9,3
1499879243724556,6,27,31,-18,-5,-1,12,10
1499879243724556,-2,10,12,3,3,-4,8,-2
1499879243736580,-1,-41,-3,-11,-16,2,-4,-1
1499879243736580,-15,2,17,18,27,5,3,-3
1499879243745553,15,7,16,-19,-13,1,4,6
1499879243745553,-8,4,11,4,9,0,0,23
1499879243760554,-14,-3,-49,-16,9,-8,-12,-21
1499879243760554,13,25,-32,31,-20,3,-4,-2
1499879243762554,4,-1,-13,-12,-27,-2,0,-7
1499879243762554,-7,-20,-8,-23,9,-4,10,-5
1499879243790586,-6,15,28,-12,-16,-6,-12,3
1499879243790586,14,45,-3,4,25,2,16,14
1499879243792555,-8,-22,-4,6,12,-1,-13,-10
1499879243792555,-1,11,-11,16,-14,-5,-7,-5
1499879243805621,3,12,44,-26,-23,-3,17,32
1499879243805621,-6,-31,30,14,6,6,-11,-27
1499879243807557,14,50,3,-22,4,2,-11,22
1499879243807557,-2,-15,-6,33,30,-3,14,7
1499879243820591,-4,5,20,-14,-1,2,-15,-8
1499879243820591,-2,13,32,-20,-30,-7,2,4
1499879243822589,3,-27,6,9,14,-7,-7,-6
1499879243822589,-6,-15,-20,-2,-40,2,16,7
1499879243843583,0,8,12,81,48,6,0,5
1499879243843583,3,1,-59,-62,-9,-1,-8,-29
1499879243844558,-14,14,104,20,6,-2,-7,-9
1499879243844558,-8,-49,-91,-54,-31,-3,-8,-10
1499879243865626,11,42,0,19,17,4,21,14
1499879243865626,-1,-53,14,-25,36,2,-5,-9
1499879243867560,5,18,9,-8,-5,-4,6,7
1499879243867560,-5,-18,-14,9,0,5,-3,8
1499879243880571,6,-6,-14,0,-7,-1,8,-1
1499879243880571,-11,22,33,-11,-36,-6,-5,0
1499879243882567,2,16,-6,16,2,5,10,9
1499879243882567,7,10,1,8,1,-5,-4,11
1499879243903589,-4,-39,-33,-51,4,1,8,-13
1499879243903589,0,36,29,28,-17,-4,-7,-15
1499879243904594,-1,1,-3,0,-24,-2,-7,4
1499879243904594,-3,-7,10,-4,34,-4,-1,9
1499879243925622,16,59,49,-9,-2,9,7,1
1499879243925622,-4,-30,-19,12,6,-2,11,4
1499879243927562,2,-8,-35,5,-36,0,-18,-4
1499879243927562,-6,5,49,16,41,-7,-13,-6
1499879243940578,5,5,-13,-19,-20,-2,3,-27
1499879243940578,-8,1,-14,8,6,0,7,12
1499879243942565,-6,4,-82,-23,-19,-3,4,20
1499879243942565,-7,-10,33,51,-21,-6,-10,-34
1499879243963584,1,-38,-37,-80,21,-2,-3,8
1499879243963584,2,-26,-84,8,-14,-4,5,14
1499879243964566,-2,2,32,-20,11,2,-9,-40
1499879243964566,1,19,-5,0,-33,-2,1,26
1499879243985607,-8,-25,38,30,-11,-6,-3,3
1499879243985607,7,25,15,-4,0,3,7,26
1499879243987600,-4,-23,-51,26,25,-5,-10,-18
1499879243987600,14,17,72,-17,30,7,-9,-12
1499879243999632,-6,5,-2,14,-35,-5,-9,-2
1499879243999632,3,-7,-3,-27,14,4,13,32
1499879244006631,-4,15,-16,13,1,-3,8,-24
1499879244006631,-11,-14,-10,33,-19,-3,-9,-21
1499879244023591,1,-9,-3,-44,8,-8,-6,-7
1499879244023591,10,39,39,2,-8,4,0,24
1499879244024579,-1,-21,11,-5,13,3,6,10
1499879244024579,2,13,-62,-27,-17,1,4,8
1499879244045614,-15,-14,-15,-10,-2,-11,0,1
1499879244045614,-7,-6,6,21,-9,-3,-2,1
1499879244047571,7,21,10,-13,46,1,-2,-35
1499879244047571,9,-9,-9,-45,-12,2,-11,-9
1499879244059638,12,39,-10,60,-4,6,15,19
1499879244059638,-3,-55,25,-9,10,-5,-14,-3
1499879244066613,-10,17,-14,10,-19,-5,-22,20
1499879244066613,-4,-28,2,-2,-24,-4,-2,-7
1499879244083610,-1,-6,28,30,28,-2,-9,-7
1499879244083610,-5,15,-5,-26,3,0,-4,-11
1499879244084573,2,-14,33,-5,-10,5,19,34
1499879244084573,-3,-30,-63,2,-22,-4,3,-25
1499879244105572,4,-3,1,8,-9,2,-1,14
1499879244105572,-10,12,17,36,9,-5,-7,-28
1499879244107574,5,-8,56,-14,10,1,30,21
1499879244107574,-3,12,-70,-8,-19,-3,-12,-5
1499879244119644,-15,-8,17,10,20,1,-22,-20
1499879244119644,20,14,-7,-33,-10,2,-2,9
1499879244126623,3,51,42,19,0,0,6,6
1499879244126623,-8,-62,46,-5,15,3,2,8
1499879244143610,-1,-27,-6,9,-15,1,12,10
1499879244143610,-16,-33,-99,10,18,-12,-23,-25
1499879244144578,5,-9,-5,-20,-44,3,-6,-2
1499879244144578,11,42,25,25,41,0,38,23
1499879244173597,-8,-55,-2,-9,-4,3,-35,9
1499879244173597,5,5,-24,-15,-7,-1,-6,-27
1499879244174586,-6,-7,36,13,9,-3,-5,-19
1499879244174586,5,38,-26,2,-16,0,2,15
1499879244179634,4,5,-15,11,-11,-6,13,14
1499879244179634,-3,2,-1,-15,-5,4,1,9
1499879244186578,4,7,-36,13,-1,-4,-5,3
1499879244186578,-18,-25,2,-49,3,1,-21,-49
1499879244203588,20,55,47,8,-26,-5,9,6
1499879244203588,-12,-28,-59,1,46,4,-2,-12
1499879244204579,1,-42,-42,-3,3,2,0,2
1499879244204579,-8,11,76,19,-1,-1,17,19
1499879244225620,-6,-19,-34,-37,-22,-7,-17,-6
1499879244225620,-6,31,-2,35,-5,-5,-19,-43
1499879244227581,-3,-46,-11,-27,37,-2,-14,-3
1499879244227581,5,4,9,14,-5,2,12,20
1499879244239623,-9,13,59,-12,-4,-2,0,-20
1499879244239623,5,5,16,0,-27,3,11,2
1499879244246581,-7,26,-2,36,-1,-2,6,3
1499879244246581,-2,-59,6,23,10,-2,-10,-19
1499879244263588,-4,6,-22,-11,2,0,-15,-10
1499879244263588,-8,-30,21,3,0,6,-1,12
1499879244264587,8,25,-23,-21,-33,-1,-2,-13
1499879244264587,13,28,-23,8,13,1,6,5
1499879244285583,-10,19,-15,2,5,0,-6,-5
1499879244285583,-12,-33,-7,3,-2,-4,18,34
1499879244287585,-7,-5,14,-10,-12,0,-26,-21
1499879244287585,7,5,-28,4,-24,-6,-8,8
1499879244307649,6,20,-30,-63,33,8,10,-17
1499879244307649,1,23,-13,17,-13,-9,2,10
1499879244309584,0,-15,42,3,-11,-1,24,34
1499879244309584,-7,47,-57,22,-8,-4,-18,-50
1499879244323625,-3,-37,-38,-6,22,6,13,-1
1499879244323625,3,-23,22,-9,-11,-5,-15,-8
1499879244324595,5,4,-33,12,14,3,11,8
1499879244324595,-3,4,45,4,-30,-7,-12,7
1499879244345623,-11,-4,-16,-11,-38,3,9,16
1499879244345623,16,13,0,4,27,1,9,-9
1499879244347600,-4,-2,17,24,-6,-10,-20,-27
1499879244347600,-9,-3,7,-73,16,1,3,3
1499879244359591,-2,-44,2,41,13,-5,3,-4
1499879244359591,-3,25,52,3,-13,7,-1,-1
1499879244368603,2,4,-39,-32,-27,-1,15,25
1499879244368603,9,25,25,29,30,3,-8,-16
1499879244382656,-12,-8,-76,6,-17,-3,6,12
1499879244382656,16,47,-33,27,9,2,-1,1
1499879244384598,3,-18,13,-31,-2,0,6,-12
1499879244384598,-12,-67,-5,-3,-24,-4,4,38
1499879244405635,-2,28,44,18,12,-2,21,-17
1499879244405635,4,7,9,11,5,-1,-20,-9
1499879244407604,-2,12,-12,26,7,1,-6,0
1499879244407604,-8,-46,-17,-5,17,0,9,26
1499879244419591,10,12,41,6,-18,-4,-10,-10
1499879244419591,-13,-18,9,-21,-19,-2,10,10
1499879244428593,2,7,40,-1,19,3,-5,-10
1499879244428593,4,35,3,-24,-2,2,-6,3
1499879244442610,-9,-45,9,45,16,-6,-4,-3
1499879244442610,1,11,-45,-37,-22,2,10,-2
1499879244444625,-7,-29,38,32,29,-4,-32,-16
1499879244444625,-3,12,-35,-49,13,5,13,2
1499879244465655,17,23,2,-9,4,-2,10,24
1499879244465655,-5,-10,80,28,8,-8,-10,13
1499879244467594,-20,-18,-33,-18,10,-4,-6,-48
1499879244467594,7,20,23,43,-38,-2,-16,-21
1499879244479664,-13,-18,0,-31,16,5,-9,14
1499879244479664,-6,-10,-37,-6,-4,0,8,5
1499879244488596,9,15,15,-11,-32,-4,6,7
1499879244488596,5,14,23,22,37,1,2,-11
1499879244502637,15,27,7,-20,-9,4,3,18
1499879244502637,-12,-8,53,-4,0,-1,0,-22
1499879244504598,4,17,-62,-1,35,4,4,16
1499879244504598,5,21,28,2,-3,-2,1,-19
1499879244525666,-1,-5,-7,17,-4,0,14,23
1499879244525666,-1,-13,39,-50,3,-1,-19,-16
1499879244527598,-2,12,-55,-6,5,-1,-3,-4
1499879244527598,-5,-30,6,16,-9,-4,0,16
1499879244539671,3,5,-37,-23,-17,-2,1,-17
1499879244539671,0,4,-29,0,-1,1,13,11
1499879244548612,-1,-5,-37,-12,1,1,8,28
1499879244548612,-10,-24,-48,-12,-6,-2,-17,-54
1499879244562643,3,42,62,8,-48,-6,-1,-18
1499879244562643,-11,-77,-24,13,15,-4,-10,-10
1499879244564599,-7,-17,-9,19,-21,-1,-5,11
1499879244564599,8,11,-62,45,26,6,22,30
1499879244585609,-3,-9,49,-73,-27,-6,-24,-24
1499879244585609,-3,12,42,-14,-3,-2,3,6
1499879244587602,6,21,-25,21,-21,-3,3,-5
1499879244587602,-14,-11,22,-4,12,-1,-13,-11
1499879244599644,-11,-38,-57,13,8,1,0,-7
1499879244599644,13,27,1,13,-7,-4,-3,38
1499879244608603,-4,-24,55,-9,8,-5,-9,-24
1499879244608603,1,30,7,1,-8,-1,9,18
1499879244623623,10,25,-22,-30,-12,0,10,-7
1499879244623623,-6,-17,-16,11,50,2,-8,-11
1499879244624603,1,8,3,25,-6,-1,-10,0
1499879244624603,9,17,-15,-7,-6,5,-1,2
1499879244645603,-6,-20,-2,33,12,3,5,6
1499879244645603,6,6,44,-42,-27,-3,22,25
1499879244647609,-7,0,11,-11,-19,-2,-14,-38
1499879244647609,6,18,-18,-1,6,-3,-2,15
1499879244659606,6,10,-19,12,-5,-2,-13,8
1499879244659606,2,-23,24,24,10,-3,8,1
1499879244668609,-10,-36,0,-23,-6,-2,13,-4
1499879244668609,-12,-20,3,-15,-61,-3,-15,9
1499879244682606,2,25,-23,9,101,0,3,-10
1499879244682606,8,23,-46,31,12,3,4,-1
1499879244684606,-3,2,50,-20,5,3,14,33
1499879244684606,3,-27,-22,-16,-14,-2,-11,-40
1499879244705640,2,1,32,22,-2,-2,4,20
1499879244705640,2,31,-1,-3,-18,-1,-21,-2
1499879244707608,-4,-30,24,14,17,0,-7,-5
1499879244707608,1,12,-5,-5,-1,-4,10,34
1499879244735652,-2,-8,10,15,-58,-2,3,-35
1499879244735652,2,30,-25,-38,53,4,0,6
1499879244737611,-7,16,54,4,-9,-4,-12,-17
1499879244737611,-12,-54,-23,-3,-2,-3,-2,4
1499879244743652,-4,-23,-30,-14,-19,-3,-5,1
1499879244743652,-2,29,-22,7,-26,0,3,-18
1499879244744612,9,8,10,39,-13,1,1,25
1499879244744612,10,-5,1,-61,14,-2,18,5
1499879244765655,0,10,13,24,-3,3,-8,2
1499879244765655,-6,-20,-2,-2,-11,6,-8,-10
1499879244767614,7,13,-93,-4,-25,-5,19,38
1499879244767614,-4,1,11,18,30,-10,-12,-24
1499879244787654,3,2,-16,-24,5,1,-5,-11
1499879244787654,-2,12,22,2,-6,1,5,-8
1499879244789622,1,4,-49,-2,-4,0,-7,5
1499879244789622,-17,-50,-19,0,-13,-3,-2,1
1499879244802647,-1,0,13,-12,29,0,0,-5
1499879244802647,-2,-26,-5,3,-15,-6,-3,12
1499879244804624,2,32,5,-14,6,0,-8,-36
1499879244804624,3,26,15,22,-8,-2,3,7
1499879244825656,-3,9,34,29,22,-1,7,29
1499879244825656,-3,-4,26,-25,-11,-6,-15,-33
1499879244827614,1,-8,-26,-20,-9,-2,-7,0
1499879244827614,5,24,22,39,42,6,-3,-2
1499879244847666,-3,-39,-6,3,-13,-2,-2,-3
1499879244847666,5,9,0,-5,5,-2,10,5
1499879244849649,1,-34,12,-18,13,1,2,10
1499879244849649,-6,12,-18,-22,-6,0,3,-8
1499879244863678,-6,14,57,-5,-31,1,-12,-7
1499879244863678,-1,1,-3,19,11,-3,24,30
1499879244869637,-9,-43,-12,7,-10,-7,-33,-24
1499879244869637,11,18,54,-34,1,6,7,19
1499879244885660,-7,3,-78,2,-16,-4,2,2
1499879244885660,-6,-6,-56,-10,-8,0,-17,-38
1499879244887651,3,28,69,-2,2,0,6,6
1499879244887651,0,-20,-14,0,-14,-2,13,15
1499879244907664,-6,16,0,-27,17,0,-24,-9
1499879244907664,2,-23,7,15,-7,-5,-4,-12
1499879244909620,2,19,11,23,-8,-1,14,7
1499879244909620,-1,-13,-28,-4,2,2,-1,-11
1499879244922682,4,10,9,-32,-10,2,6,-1
1499879244922682,-6,-23,-26,6,0,-2,0,23
1499879244929639,-4,15,8,16,-1,-5,-5,-9
1499879244929639,7,6,27,-49,-25,-4,-6,16
1499879244945660,-1,16,47,-8,46,7,26,25
1499879244945660,-10,-13,-3,-29,-37,-7,-43,-57
1499879244947622,5,13,-27,26,32,7,4,7
1499879244947622,-4,2,21,33,-16,-6,-3,-8
1499879244967663,3,22,43,12,42,-3,2,7
1499879244967663,1,-39,-17,-5,-12,-3,-7,-5
1499879244969623,-4,10,28,7,-20,-9,8,13
1499879244969623,-3,24,-11,-42,12,11,-15,-17
1499879244982691,-6,-23,-32,6,-18,-5,3,5
1499879244982691,-4,17,40,1,-18,1,18,31
1499879244989624,13,-2,-37,5,41,6,-7,-8
1499879244989624,-13,-11,-13,-13,-18,-4,-1,-6
1499879245005687,-12,-20,-14,-26,-15,-8,-4,-30
1499879245005687,12,18,-31,17,17,2,12,21
1499879245006634,3,-18,-17,-22,-14,-9,-15,0
1499879245006634,-4,-13,30,16,16,2,5,6
1499879245027649,3,-11,-40,62,3,-1,-13,-31
1499879245027649,0,34,14,-52,-5,1,7,2
1499879245029629,-4,-34,49,-3,20,-2,14,5
1499879245029629,14,12,-15,4,1,4,6,29
1499879245042667,-13,-52,28,-8,-53,-12,-11,-1
1499879245042667,2,5,32,46,39,6,-2,-8
1499879245049690,-13,-3,-5,20,-9,-1,6,-12
1499879245049690,-6,15,-4,-46,-8,-1,4,-27
1499879245065642,1,-31,2,23,27,0,-20,33
1499879245065642,2,23,-17,-1,-22,-6,-8,-26
1499879245066631,3,2,16,-19,5,4,-4,-16
1499879245066631,-19,-44,-17,32,-5,-8,11,7
1499879245087671,18,50,38,-3,-3,-7,7,25
1499879245087671,-14,-51,-5,-30,-4,4,-23,-54
1499879245089629,-6,18,6,-5,7,3,7,11
1499879245089629,11,2,3,6,-32,-5,-3,-9
1499879245102682,-10,20,-61,-6,31,8,21,8
1499879245102682,2,31,-28,-13,12,-8,-9,19
1499879245109650,1,-43,97,27,-7,-1,-21,-24
1499879245109650,1,0,-41,-8,-35,-3,-11,9
1499879245125709,7,-4,29,-12,22,2,4,26
1499879245125709,1,17,-17,7,-12,-5,12,19
1499879245127633,-13,-3,-13,11,9,7,16,8
1499879245127633,9,31,44,30,11,-1,-1,-17
1499879245147675,3,-27,-69,-40,-57,-8,-29,-44
1499879245147675,-16,-51,-8,45,32,0,-25,-12
1499879245149643,6,33,16,-98,-36,-4,-2,8
1499879245149643,3,-3,7,59,33,1,11,27
1499879245162692,-6,-21,-6,11,-41,1,13,-5
1499879245162692,0,21,4,4,13,-2,-1,-29
1499879245169670,2,19,10,9,-14,-2,5,10
1499879245169670,1,21,17,-13,2,-1,0,-10
1499879245185680,8,-9,4,23,19,-1,-5,13
1499879245185680,3,-13,23,-11,-47,2,8,11
1499879245187636,-3,0,-18,-21,56,1,5,4
1499879245187636,12,-24,25,46,12,7,14,10
1499879245207639,-11,33,55,-35,-8,-5,-10,-18
1499879245207639,1,-27,-71,-14,-8,0,-11,-22
1499879245215660,-8,-17,19,11,48,-1,-20,-11
1499879245215660,-11,12,-39,-5,5,-5,-5,7
1499879245221681,-1,12,3,3,-18,-6,-1,7
1499879245221681,9,16,4,-5,-13,1,11,15
1499879245230638,-2,-20,-20,2,-12,3,14,13
1499879245230638,2,-2,-25,-10,8,-5,-13,22
1499879245245672,0,-23,-12,12,9,-3,0,-25
1499879245245672,-4,29,48,-1,23,6,17,11
1499879245246641,6,-2,-10,-5,-28,2,3,-1
1499879245246641,-17,-16,11,35,-17,-1,-14,-6
1499879245267689,5,15,67,-35,24,4,6,-9
1499879245267689,10,-19,24,34,31,-5,1,18
1499879245269654,-7,-10,2,-25,-30,0,4,8
1499879245269654,1,-17,1,7,-3,2,4,12
1499879245281674,2,23,-20,10,14,2,5,-28
1499879245281674,-6,30,-32,3,-2,4,-14,8
1499879245290642,-7,-1,13,41,-15,-6,-5,0
1499879245290642,-5,-2,24,-54,14,-4,-1,-12
1499879245306654,-3,-20,-35,8,-4,0,-2,8
1499879245306654,0,14,0,-7,6,-2,16,-2
1499879245307644,9,36,-63,-5,11,-2,-1,-3
1499879245307644,7,0,57,8,-20,0,0,-8
1499879245327711,-2,11,-72,-10,-6,0,12,22
1499879245327711,1,-21,0,9,0,3,-9,3
1499879245329678,-2,-9,-43,-20,-17,-4,-1,22
1499879245329678,-9,-12,7,-20,28,-2,-7,-46
1499879245342676,-3,-8,12,26,-22,-1,6,11
1499879245342676,8,26,35,-24,-26,-1,20,18
1499879245350646,2,-16,2,-4,15,-3,-1,14
1499879245350646,11,18,-17,-10,5,0,-12,-13
1499879245365713,-12,-12,-3,4,-7,-4,-12,-14
1499879245365713,-7,3,-15,-13,-15,-1,0,3
1499879245367647,-3,-11,15,6,-3,2,3,-7
1499879245367647,-2,16,-4,-11,-5,-2,1,-2
1499879245387711,4,1,34,24,16,2,-5,-15
1499879245387711,-3,-8,-43,-16,-9,-7,8,16
1499879245389658,-2,-5,19,2,-17,-5,11,0
1499879245389658,-10,1,-47,12,13,4,-23,-12
1499879245401648,7,5,-29,-6,2,0,5,22
1499879245401648,-2,-11,-4,-1,-10,-3,-18,-35
1499879245410658,-1,-41,-42,22,11,-1,-12,-13
1499879245410658,-3,1,2,-9,-21,-8,10,16
1499879245425714,-5,2,4,-1,37,2,-3,-13
1499879245425714,2,8,6,-2,-17,0,7,1
1499879245426650,4,34,-4,7,-8,-2,-11,-7
1499879245426650,2,-34,-14,-12,2,1,-3,-14
1499879245447714,3,6,6,-16,-16,1,-3,6
1499879245447714,-3,-16,-37,23,8,-5,3,3
1499879245449662,-1,13,-15,2,-6,3,6,-16
1499879245449662,-2,19,20,6,8,3,10,-3
1499879245461691,5,2,-20,11,3,-1,-13,-5
1499879245461691,-11,-8,41,-5,-5,-2,4,-8
1499879245470651,10,7,-1,-22,-8,1,2,-2
1499879245470651,4,-9,-47,1,39,0,5,25
1499879245485692,-4,12,71,13,-10,-4,7,-7
1499879245485692,-4,-27,-22,-12,11,-8,-18,-14
1499879245486654,-3,2,-32,13,-10,6,2,7
1499879245486654,0,10,46,-5,-27,-3,2,-16
1499879245507693,-3,12,23,-5,2,0,-13,-5
1499879245507693,5,-2,6,12,7,2,6,20
1499879245509689,-3,12,-26,-30,-2,0,1,-7
1499879245509689,-1,-8,-12,22,-9,0,15,27
1499879245521697,-1,-2,13,-11,-6,-2,-36,-31
1499879245521697,4,11,27,-13,-46,-4,5,-6
1499879245530663,-5,-15,3,-2,72,5,-24,-20
1499879245530663,-1,-12,-1,23,4,-4,0,-3
1499879245545663,-3,-10,-34,-5,-3,2,15,16
1499879245545663,5,10,8,21,22,-1,5,5
1499879245546657,-6,4,34,-15,-25,-3,-15,-17
1499879245546657,-5,-6,-36,-60,-12,-3,-4,9
1499879245567702,10,6,-21,31,1,0,8,16
1499879245567702,-9,0,8,-11,13,0,-5,-9
1499879245569658,-5,-11,5,22,-12,-2,9,-3
1499879245569658,4,8,47,-15,0,-1,-3,23
1499879245581669,-4,-11,-55,-7,-10,0,3,4
1499879245581669,4,2,3,-14,-15,7,11,7
1499879245590660,-5,9,-2,20,10,1,14,3
1499879245590660,2,-11,36,-1,-15,-9,-25,-21
1499879245605701,9,14,-7,36,27,2,9,18
1499879245605701,-6,0,3,-24,13,1,-10,-29
1499879245607662,-4,-48,-7,-1,-20,-2,6,-4
1499879245607662,3,18,0,3,-9,-2,-5,2
1499879245627709,1,-27,-75,4,-10,5,20,14
1499879245627709,-16,7,7,5,-4,-10,-23,-14
1499879245629671,2,8,41,-7,-7,-1,-2,-4
1499879245629671,-5,-11,-20,22,12,1,8,-2
1499879245641704,-9,4,-16,-25,-20,-5,-7,-11
1499879245641704,7,3,-41,25,-3,2,3,23
1499879245650662,-4,1,69,-11,-10,-7,-3,2
1499879245650662,-1,2,10,1,1,1,-7,-10
1499879245665704,-1,-16,39,-4,-18,2,12,-7
1499879245665704,1,-24,3,9,6,-5,-31,-15
1499879245666664,-3,-14,-24,-45,15,1,-1,7
1499879245666664,0,6,-44,4,1,2,3,-3
1499879245687735,-2,6,-11,-9,4,-3,10,15
1499879245687735,3,-12,27,6,-20,-4,13,-16
1499879245689674,2,-9,-19,-15,-44,0,-18,3
1499879245689674,1,-5,32,33,61,3,3,-14
1499879245710706,-7,-32,-66,-35,-9,0,-8,1
1499879245710706,1,-3,-13,14,-10,-9,11,16
1499879245711678,0,30,1,-24,10,5,5,7
1499879245711678,3,18,26,11,-13,-1,-4,-9
1499879245725678,-9,-10,49,-15,-6,-4,-8,-8
1499879245725678,2,-6,4,11,-4,-2,-1,1
1499879245727668,-2,-22,-43,14,25,-4,5,-4
1499879245727668,-2,24,7,-36,-55,-1,6,13
1499879245747711,10,19,-18,47,58,3,3,6
1499879245747711,0,-2,-9,-24,3,2,-15,10
1499879245753708,1,21,23,35,-12,-6,-4,-6
1499879245753708,-4,-12,-53,-26,6,-1,3,-8
1499879245770709,4,12,30,-13,-5,2,1,-16
1499879245770709,1,24,43,16,-9,-1,13,23
1499879245772673,-6,-50,-17,-14,48,-4,-19,-17
1499879245772673,2,-2,-17,16,-15,0,3,7
1499879245784738,-3,-8,23,-11,-19,-1,-10,-17
1499879245784738,3,-8,-55,-9,28,3,2,12
1499879245791680,3,26,-7,-9,-29,-3,6,-3
1499879245791680,0,10,29,5,9,-2,-2,9
1499879245807712,-11,-5,-1,-2,-2,-1,1,-23
1499879245807712,-3,2,-2,3,-11,-3,5,12
1499879245809708,-3,-6,8,0,5,2,-18,-31
1499879245809708,6,9,-5,54,-8,-2,-2,-3
1499879245830713,0,-3,23,-33,2,-3,4,11
1499879245830713,-3,7,26,25,-1,0,-9,-25
1499879245831683,2,0,-29,-26,27,-1,11,24
1499879245831683,-1,9,-19,35,13,2,3,1
1499879245844673,-7,-3,28,-20,-18,-2,-18,-21
1499879245844673,-4,-28,-17,-21,-5,0,10,20
1499879245851688,9,22,12,22,-4,0,6,7
1499879245851688,-4,-18,15,-20,-7,-3,1,3
1499879245867717,-1,-13,-36,-1,-29,-1,-9,-15
1499879245867717,4,13,5,13,60,7,2,-3
1499879245869674,0,-4,-18,43,-22,-2,6,-4
1499879245869674,-11,-17,-13,-46,9,-2,-4,-16
1499879245890714,-4,26,5,33,-21,-3,-4,-1
1499879245890714,-3,-34,-3,-11,-17,-5,-4,-6
1499879245891689,7,13,23,-4,6,4,13,12
1499879245891689,-12,-7,5,-8,-37,-3,-17,-22
1499879245904725,-2,-9,-13,36,51,-6,-8,4
1499879245904725,0,10,-9,-35,-24,3,-17,2
1499879245911720,10,13,3,16,14,-1,9,18
1499879245911720,-10,5,-10,-33,-11,-1,1,-3
1499879245927742,-2,-19,4,-14,-11,2,3,2
1499879245927742,-6,-15,-20,-5,-14,-2,12,14
1499879245929680,-5,11,4,1,-15,-4,-12,-26
1499879245929680,9,11,29,3,15,2,5,13
1499879245950706,4,15,-6,5,-6,-3,-2,-21
1499879245950706,-1,-3,8,5,7,2,7,0
1499879245952681,-10,-13,-19,-57,-13,0,-13,-15
1499879245952681,1,-18,12,16,1,-6,-3,-5
1499879245964698,-6,-8,13,-31,2,0,13,15
1499879245964698,4,9,-2,25,-15,0,-7,13
1499879245973682,-1,16,20,-42,0,-4,-3,2
1499879245973682,9,-16,-25,19,17,1,5,6
1499879245987720,1,17,8,-8,-9,1,14,22
1499879245987720,-12,-18,5,14,3,-7,-34,-36
1499879245989693,0,-1,1,14,-3,3,-2,-14
1499879245989693,2,5,-40,-20,-18,-3,-4,-10
1499879246010695,-7,-9,21,18,19,1,-4,4
1499879246010695,5,11,-9,-1,-5,-2,23,19
1499879246011687,-1,-16,2,27,-11,-3,-9,-41
1499879246011687,-1,-7,-10,-24,2,-4,-3,7
1499879246024701,-4,-4,10,3,-6,-2,-2,-6
1499879246024701,2,6,-8,11,23,-1,10,1
1499879246031723,9,43,43,32,-42,-2,-9,5
1499879246031723,-22,-67,-31,-9,47,5,4,2
1499879246047750,2,6,6,-17,-19,-4,0,3
1499879246047750,2,-1,9,-22,31,4,0,2
1499879246049686,-2,-6,-20,18,-12,-4,13,14
1499879246049686,2,32,-6,24,-12,1,-17,-9
1499879246070724,-3,-2,3,-2,3,-2,0,22
1499879246070724,-2,-6,16,-3,-5,-6,-2,-20
1499879246071688,-2,-3,4,5,18,5,12,17
1499879246071688,4,12,77,-27,-26,-4,-5,10
1499879246084687,5,7,6,2,26,-3,-7,-4
1499879246084687,1,-10,4,22,2,2,1,10
1499879246091695,-5,2,-25,-29,7,-2,7,9
1499879246091695,1,-15,16,-8,-22,1,2,-7
1499879246107721,3,-24,-22,-22,11,-3,-9,-7
1499879246107721,-5,14,44,34,-1,1,2,2
1499879246109690,-6,-21,-43,6,-8,-7,-4,-4
1499879246109690,1,7,-31,47,23,3,3,10
1499879246130718,10,13,-24,-64,-39,-4,-3,-2
1499879246130718,-10,6,-14,-3,-2,-4,0,-11
1499879246131691,-4,-5,28,2,23,8,4,8
1499879246131691,-2,29,16,-8,-34,-4,1,-11
1499879246144744,0,-3,-11,35,1,-2,-17,5
1499879246144744,6,1,-17,-5,14,-1,6,12
1499879246151724,-7,-13,4,-25,-14,-7,1,-7
1499879246151724,0,6,-6,5,-11,-1,-2,-11
1499879246167725,-1,-14,23,10,14,2,1,13
1499879246167725,0,-1,-53,-22,-22,2,-2,-26
1499879246169692,4,4,22,1,13,2,1,10
1499879246169692,2,8,-21,46,14,-1,3,8
1499879246190704,1,-20,32,-24,7,-1,-1,-22
1499879246190704,1,3,1,-21,-24,-3,-1,6
1499879246191705,5,1,-10,-3,-1,1,-4,-2
1499879246191705,-5,2,-6,2,4,-4,-4,-3
1499879246203752,-7,5,36,33,2,4,8,-4
1499879246203752,-8,-8,17,-31,-3,-3,-10,2
1499879246213699,0,10,-14,26,0,-5,-1,2
1499879246213699,6,28,5,-44,0,-5,2,10
1499879246227735,-3,-20,-24,13,1,1,1,10
1499879246227735,-11,-29,5,5,-6,-4,-9,-15
1499879246229697,-8,1,-31,-8,17,7,-3,-2
1499879246229697,4,-14,-4,-28,-14,1,3,8
1499879246250736,-2,13,-12,23,25,-1,-1,-6
1499879246250736,-1,2,-14,-13,-11,-7,1,-3
1499879246252719,1,-8,-22,6,-8,-2,11,39
1499879246252719,-12,-21,37,4,12,-6,-30,-68
1499879246263737,3,12,1,-1,-24,2,-4,-2
1499879246263737,6,-3,-4,-4,-8,0,-6,-8
1499879246273700,0,6,-14,-3,-3,-3,4,2
1499879246273700,-4,-1,-4,25,21,6,2,8
1499879246287763,1,-6,-37,-44,-10,-4,18,10
1499879246287763,-3,12,31,9,-1,-1,-10,-11
1499879246289700,3,-4,10,-27,10,-4,-3,-2
1499879246289700,0,-10,-27,10,11,6,3,5
1499879246310722,3,-3,-19,15,7,-1,3,12
1499879246310722,-2,-4,-10,-12,-11,0,8,13
1499879246311700,-2,0,-4,31,-32,-2,-4,-6
1499879246311700,-2,2,-38,-53,1,1,-1,-8
1499879246323745,5,31,-34,8,-4,4,1,4
1499879246323745,-6,-33,44,16,29,-2,0,-14
1499879246333705,-3,-7,-1,-12,-1,-7,-3,-1
1499879246333705,1,11,-12,17,-20,3,-1,3
1499879246347770,2,2,19,-41,-9,1,1,10
1499879246347770,4,14,11,10,-2,1,-3,-3
1499879246349703,7,9,-3,8,1,-3,-3,-5
1499879246349703,-18,-26,15,-12,8,-5,6,11
1499879246370705,-7,9,-20,3,-9,1,8,-16
1499879246370705,4,13,9,-2,6,0,-14,4
1499879246371704,2,-24,-20,-4,2,2,-1,15
1499879246371704,2,0,5,2,-10,-3,14,31
1499879246384725,-5,2,51,18,-10,-9,-11,-27
1499879246384725,-2,8,-51,13,-20,7,8,-14
1499879246392772,4,8,11,-33,34,3,-2,-11
1499879246392772,-6,-5,18,10,9,-1,0,6
1499879246407706,0,9,1,3,-4,0,-11,-10
1499879246407706,2,6,1,-7,-5,-5,2,12
1499879246409741,-5,-27,20,3,-15,-3,-5,-8
1499879246409741,1,-8,42,17,-2,-2,7,-1
1499879246430706,3,4,23,13,28,6,-4,12
1499879246430706,1,17,-19,-21,-1,0,1,-19
1499879246431708,-8,-23,-32,7,-10,-5,-2,-3
1499879246431708,6,30,13,16,-13,0,-5,-6
1499879246444731,-6,-22,-17,-5,3,-5,-6,-12
1499879246444731,3,-32,-15,0,12,6,7,8
1499879246452720,-2,8,52,20,-11,-1,9,22
1499879246452720,1,-5,-68,-8,-4,-1,-11,-19
1499879246467784,-4,-12,12,-9,11,0,-8,-34
1499879246467784,1,23,7,0,6,0,-8,10
1499879246469711,3,11,20,-5,-6,0,-7,-23
1499879246469711,-5,2,11,-6,-9,-6,-2,4
1499879246490750,0,3,-30,0,-20,-2,2,5
1499879246490750,0,3,-11,2,4,-1,6,2
1499879246491721,0,2,-3,10,-1,-4,-8,-2
1499879246491721,9,23,22,1,-3,3,25,21
1499879246503743,-17,-26,20,-63,9,-5,-31,-23
1499879246503743,0,6,32,-1,-20,2,-2,-23
1499879246513713,-3,11,-22,14,9,1,-10,-5
1499879246513713,1,-23,-15,-2,-26,-5,0,-9
1499879246527776,-3,-4,6,1,23,0,6,11
1499879246527776,6,6,-20,11,-9,1,9,18
1499879246529747,-2,8,-37,-43,26,1,-5,-16
1499879246529747,0,-21,39,19,-6,-1,-3,-3
1499879246550754,-1,-1,-13,4,-2,-2,10,13
1499879246550754,-1,17,-30,-29,-27,-5,-6,-2
1499879246551717,7,20,7,20,3,3,7,16
1499879246551717,-1,-23,-60,-11,18,-1,-9,1
1499879246563722,6,17,28,7,-44,-1,9,20
1499879246563722,-1,0,38,9,-10,0,5,12
1499879246573715,-17,-12,1,15,46,2,-17,-46
1499879246573715,3,-5,12,-10,4,1,-6,-4
1499879246587762,-3,-22,-51,21,14,-1,0,-2
1499879246587762,0,13,-2,13,-9,-4,5,11
1499879246589718,9,18,17,-36,-22,2,17,26
1499879246589718,-11,-33,-9,8,1,-2,-21,-49
1499879246610751,8,16,40,17,10,1,-1,9
1499879246610751,-4,-11,-37,-3,8,-1,-5,-11
1499879246611719,0,1,20,7,-7,1,4,14
1499879246611719,-3,-29,-38,-13,14,4,14,14
1499879246624746,6,9,-50,19,-17,-1,12,10
1499879246624746,2,15,70,-21,12,-4,-13,-25
1499879246633720,-6,-18,-10,-21,-40,-5,-8,-23
1499879246633720,-10,19,-9,17,15,6,-1,20
1499879246647719,-1,-5,5,16,20,-4,5,-7
1499879246647719,-3,-21,-23,-25,3,4,3,12
1499879246649720,-1,14,15,-18,-37,-6,-7,-3
1499879246649720,12,38,20,6,26,1,9,6
1499879246670770,-5,-42,-25,-4,-7,0,-3,6
1499879246670770,-4,-20,4,21,3,0,-1,5
1499879246671721,-1,-1,16,-21,5,-1,-3,-5
1499879246671721,1,23,-15,-11,-15,-4,-5,4
1499879246692739,-4,1,-28,0,9,1,-4,-8
1499879246692739,7,-6,16,20,4,0,13,21
1499879246694734,-7,-14,-15,-27,-9,-3,-7,-18
1499879246694734,6,10,49,38,3,0,-7,-8
1499879246707733,3,40,-13,-51,-14,-4,-5,-7
1499879246707733,-11,-55,1,-35,-48,-7,3,2
1499879246709724,1,5,-5,61,58,4,2,-2
1499879246709724,-10,-9,-1,8,-14,-6,-6,-10
1499879246730725,4,13,10,-21,0,5,-3,-8
1499879246730725,-3,0,-20,-1,-1,2,3,-1
1499879246731728,-4,0,-5,11,-19,-9,-1,7
1499879246731728,4,5,-5,-8,6,-2,-6,-3
1499879246752794,-1,-13,30,10,-2,6,2,14
1499879246752794,-3,6,-12,-12,12,-2,-4,4
1499879246754726,2,4,-6,5,-16,1,-2,1
1499879246754726,-5,-9,-25,6,-1,-2,3,1
1499879246768777,-4,-19,-7,-28,-21,-9,-2,0
1499879246768777,2,31,-18,1,-2,3,-2,9
1499879246769735,1,-25,29,1,14,-4,-8,-17
1499879246769735,-4,12,-36,-4,-5,0,-2,12
1499879246790742,1,16,25,27,-16,-3,-2,-4
1499879246790742,-6,5,13,-16,22,1,-4,-17
1499879246791728,5,-9,-14,33,2,3,2,13
1499879246791728,-1,-6,19,-29,12,-3,5,4
1499879246812790,-2,-20,-8,20,-4,-3,-5,-4
1499879246812790,2,20,13,0,6,1,-2,8
1499879246814730,-2,-2,-7,18,-3,1,13,28
1499879246814730,-2,-5,19,-47,-7,-7,-22,-51
1499879246827776,6,1,-10,11,3,11,9,7
1499879246827776,-2,-4,-11,12,10,-7,-4,7
1499879246833798,-8,-1,2,3,-24,2,-5,-7
1499879246833798,-1,-3,-4,-22,-2,0,-10,-11
1499879246850744,-1,12,17,12,-1,-4,-10,-5
1499879246850744,3,-7,26,-2,-5,-2,4,-1
1499879246851733,3,22,-40,-10,2,1,0,6
1499879246851733,0,-13,11,-4,-9,-2,9,13
1499879246872793,-6,-8,-1,6,6,-3,0,-2
1499879246872793,0,-4,-39,-26,-8,0,-4,0
1499879246874737,-1,12,23,-9,-7,-1,-2,-13
1499879246874737,5,6,45,4,0,2,7,9
1499879246887775,0,21,-43,0,-3,-3,-4,-1
1499879246887775,-7,-59,-4,14,4,1,-3,-14
1499879246893801,-2,1,25,-34,-44,-4,-1,2
1499879246893801,-1,-14,-65,58,43,-1,4,3
1499879246910771,2,12,32,-22,24,7,6,2
1499879246910771,-2,13,-22,7,-10,-5,-6,1
1499879246911736,3,0,-9,-2,5,-1,1,3
1499879246911736,-4,9,24,-18,-12,-3,-4,-17
1499879246932773,-4,7,6,23,-10,-2,1,11
1499879246932773,4,3,19,-12,7,2,5,1
1499879246934736,-2,-19,-18,-1,21,6,1,0
1499879246934736,2,-10,-50,4,-29,-3,3,11
1499879246947814,-3,4,0,-13,3,-5,-13,-12
1499879246947814,-2,15,10,8,11,3,-3,-6
1499879246953813,-6,-15,6,2,-5,-6,-2,-1
1499879246953813,1,9,6,-14,-6,3,4,6
1499879246970778,-2,-11,-18,20,0,-5,-7,-7
1499879246970778,0,3,-1,13,-8,-3,3,7
1499879246971747,-3,-15,12,-21,24,2,-2,-9
1499879246971747,0,-3,-14,-18,-14,-2,-7,-15
1499879246992811,-3,-7,9,5,-9,-4,-2,-7
1499879246992811,0,7,28,26,27,-1,2,0
1499879246994750,5,20,-26,-20,-8,-5,3,12
1499879246994750,-1,-4,33,-7,-4,1,3,14
1499879247007760,0,1,39,3,0,4,1,-5
1499879247007760,1,-4,-76,10,6,-4,-5,-9
1499879247014746,-4,0,32,6,-12,3,2,16
1499879247014746,-3,7,-2,-6,-3,-1,-6,-10
1499879247030781,1,-5,4,-3,12,-5,0,7
1499879247030781,-2,3,28,1,-4,1,-3,-18
1499879247031742,-2,-3,-27,4,-10,-5,-2,3
1499879247031742,0,-6,-21,6,12,3,3,2
1499879247052809,3,-1,21,-16,-6,1,8,8
1499879247052809,-11,-9,-43,-21,-4,1,0,2
1499879247054743,1,-8,-2,30,-7,-5,-11,-21
1499879247054743,-1,-1,7,-37,-7,2,-4,-1
1499879247067818,1,-11,-71,-17,-3,0,-2,5
1499879247067818,-5,-3,10,0,-12,-3,1,-21
1499879247073786,-1,10,9,18,13,-2,-8,-3
1499879247073786,0,-17,-15,-19,-18,-6,-1,4
1499879247090784,-5,0,-6,0,7,4,2,5
1499879247090784,-2,-24,-1,10,-4,-1,-7,-17
1499879247091755,-2,-10,-13,-28,-28,5,11,14
1499879247091755,7,31,28,27,52,0,-2,-2
1499879247112787,-7,-9,24,6,-23,-8,-2,-1
1499879247112787,0,-3,-65,11,12,5,2,13
1499879247114748,5,15,53,-15,-14,1,5,-7
1499879247114748,-2,-15,2,14,-3,-3,2,5
1499879247126812,-2,-11,-44,-4,-2,1,-2,-1
1499879247126812,-1,0,27,14,-2,-3,-7,-12
1499879247135783,6,8,-18,-6,10,-1,1,7
1499879247135783,2,21,25,-2,0,3,7,14
1499879247150749,-6,-9,-5,-3,-3,-1,-4,-23
1499879247150749,0,12,-1,-10,-14,-4,-2,5
1499879247151752,-5,-30,-2,0,9,-8,-4,-5
1499879247151752,-5,3,-18,5,-17,-1,0,-3
1499879247172790,6,-1,12,-9,-4,4,3,8
1499879247172790,1,11,16,-16,8,0,-2,2
1499879247174760,2,16,21,-1,18,2,1,-2
1499879247174760,-4,-30,-52,-2,-11,-3,1,1
1499879247186792,2,3,31,3,-3,-1,5,7
1499879247186792,3,10,-16,7,13,3,12,28
1499879247195786,-5,1,-9,4,3,-11,-32,-40
1499879247195786,-3,-6,15,-7,-6,4,-10,0
1499879247210792,1,5,-17,8,0,-1,-4,-5
1499879247210792,4,-20,-20,-4,-14,-6,4,3
1499879247211755,-4,-3,-20,-8,-5,-1,10,12
1499879247211755,-3,-4,-12,20,15,5,0,4
1499879247232797,-3,-2,-12,-24,-5,-1,-1,-15
1499879247232797,2,18,42,-5,-3,1,-2,-6
1499879247234757,-1,-18,-47,5,-2,-1,3,8
1499879247234757,6,11,5,-5,-21,-1,-2,-8
1499879247246822,-1,2,40,3,10,-1,3,10
1499879247246822,-1,-10,-66,-12,-10,-4,-5,-6
1499879247255766,-4,-10,-49,45,-7,2,2,-4
1499879247255766,-2,-19,14,-70,11,-1,8,15
1499879247270797,-2,-2,-16,11,2,0,-9,-9
1499879247270797,1,6,59,-10,-2,0,0,0
1499879247271756,1,3,7,5,1,2,-3,-2
1499879247271756,-1,2,2,18,-1,-6,-2,4
1499879247292822,-1,-2,36,18,-18,-2,-10,-20
1499879247292822,-10,-6,-25,-33,13,0,-6,-20
1499879247294758,6,23,34,-4,-2,4,7,4
1499879247294758,-4,-14,-19,6,-13,-3,-1,-1
1499879247306799,0,3,-1,-8,7,-7,1,6
1499879247306799,4,14,29,22,3,7,2,5
1499879247315771,-9,-9,24,3,18,4,2,-1
1499879247315771,7,37,12,-7,3,-1,-5,-10
1499879247330793,3,-1,-24,22,-5,0,2,6
1499879247330793,-4,-20,-1,-25,-7,-5,-5,-2
1499879247331759,2,18,17,-9,2,-1,1,3
1499879247331759,-6,8,14,29,-10,-3,5,0
1499879247352822,-1,-11,-19,-27,6,2,7,8
1499879247352822,-1,13,1,-22,-12,-5,-20,-7
1499879247354764,0,-15,9,-11,1,-6,-6,-2
1499879247354764,-4,-12,6,5,-10,5,2,-4
1499879247366801,1,4,-4,5,5,-3,0,-2
1499879247366801,-3,-10,-32,23,5,-2,7,27
1499879247375774,-1,13,11,-21,16,1,-7,-28
1499879247375774,-1,-12,-8,11,5,-2,0,-2
1499879247397781,1,5,24,-2,-8,0,1,2
1499879247397781,6,19,43,3,1,0,2,-6
1499879247399773,-10,-16,-37,-8,-17,-1,0,7
1499879247399773,1,-3,30,-12,2,-3,3,11
1499879247412808,-1,6,-31,20,12,-9,-15,-21
1499879247412808,-1,-9,40,-4,-2,8,0,0
1499879247414765,0,-4,-39,-6,-16,-7,4,8
1499879247414765,-2,3,-9,-7,-8,0,-7,-11
1499879247426833,2,1,-3,27,14,4,4,9
1499879247426833,-1,6,26,-18,-10,-3,1,-5
1499879247435766,1,-15,14,7,2,-3,1,6
1499879247435766,-8,-14,-18,0,2,-2,-13,-10
1499879247450806,3,13,13,-14,-5,-5,8,19
1499879247450806,-7,-6,-8,9,1,4,-5,-9
1499879247451767,2,12,23,3,13,7,1,-11
1499879247451767,2,-6,35,1,-6,-9,-5,-2
1499879247472813,-5,-7,-7,-12,-8,-2,-2,-9
1499879247472813,2,-2,-31,36,-1,-2,1,5
1499879247474773,1,-3,0,-25,-4,3,1,8
1499879247474773,5,15,11,4,-9,-2,1,-3
1499879247486832,1,-12,-7,-3,22,2,2,2
1499879247486832,-7,-12,-16,3,-11,0,4,-4
1499879247495804,1,2,1,12,8,-3,-13,-3
1499879247495804,2,15,-9,1,2,0,6,1
1499879247509813,-3,-10,0,-1,4,-4,-5,-2
1499879247509813,2,-18,-36,-5,-5,1,2,-1
1499879247516811,-1,22,30,3,-8,1,2,3
1499879247516811,-6,-9,42,-14,-3,-1,0,-2
1499879247532810,1,9,0,-6,-6,2,-1,1
1499879247532810,2,1,0,30,8,-2,-2,2
1499879247534782,-4,-9,-23,-40,-1,-4,2,-10
1499879247534782,0,-4,-3,-17,-16,1,-1,-1
1499879247546812,1,5,-10,2,15,3,2,-2
1499879247546812,1,9,28,-15,-3,-5,-5,-4
1499879247555785,0,-14,-2,33,-18,-3,2,11
1499879247555785,1,-2,-46,-10,19,2,2,4
1499879247570813,2,0,-1,0,1,3,4,1
1499879247570813,-10,-10,-11,-2,-2,-2,-1,2
1499879247571785,-4,-6,-40,4,-2,-5,-15,-13
1499879247571785,3,-1,2,-2,-5,-4,-8,-17
1499879247592851,5,-2,4,-11,-19,1,-2,10
1499879247592851,-3,15,-14,1,7,2,-1,-14
1499879247594775,-3,-6,50,8,0,-5,8,11
1499879247594775,-4,2,-10,-11,-7,-4,-9,-4
1499879247615848,-2,6,-27,-4,-1,0,-1,-4
1499879247615848,0,-1,74,5,1,0,-3,2
1499879247616783,-6,-16,-37,-3,10,1,2,-3
1499879247616783,1,-1,-5,20,-6,-1,3,3
1499879247630815,0,0,13,7,-7,-4,-1,9
1499879247630815,2,6,-1,-28,-3,0,6,-8
1499879247631789,4,20,16,7,3,-1,-10,-8
1499879247631789,-7,-6,-34,-1,0,1,-1,-3
1499879247652778,-6,-6,15,3,-16,-3,3,2
1499879247652778,0,-3,11,5,11,-6,-10,-7
1499879247654793,6,0,-51,-22,1,-1,6,14
1499879247654793,0,-6,-21,26,12,3,1,-1
