timestamp,emg1,emg2,emg3,emg4,emg5,emg6,emg7,emg8
1499879153552173,1,17,104,-44,-11,2,-6,-29
1499879153552173,-44,78,-12,58,-6,-10,-16,-9
1499879153553111,-9,-61,5,16,-27,-7,-13,-20
1499879153553111,-37,-94,-77,-47,19,-12,-1,20
1499879153554144,-77,-20,-52,-49,-5,8,-25,-73
1499879153554144,33,2,93,77,27,9,14,69
1499879153555111,12,88,-5,-31,10,17,37,56
1499879153555111,56,85,22,-61,-42,-20,-26,-46
1499879153567181,-82,-124,-69,26,-20,-10,5,-23
1499879153567181,-30,5,-6,11,21,-2,5,-37
1499879153574145,24,-84,16,54,3,4,2,57
1499879153574145,0,45,32,-32,-5,-4,-13,24
1499879153582129,57,127,52,84,9,4,4,21
1499879153582129,-8,-13,-83,-98,-37,1,43,57
1499879153595171,-16,69,3,-8,50,10,0,-43
1499879153595171,-49,-64,-46,-11,8,12,-9,-58
1499879153607149,87,37,17,25,3,-9,-21,84
1499879153607149,-111,-97,-26,-3,-23,-15,-13,-42
1499879153619147,31,71,28,41,21,-1,13,19
1499879153619147,38,-3,-23,-44,-37,2,-11,-23
1499879153627117,67,72,62,97,20,-10,3,11
1499879153627117,31,-23,-51,-89,16,27,-12,30
1499879153640170,26,39,6,-42,-57,-11,-7,-28
1499879153640170,-44,-20,3,5,-12,-6,3,-23
1499879153682120,-16,-32,-34,66,22,-3,-37,2
1499879153682120,28,72,30,-48,21,0,-19,-34
1499879153683146,-36,-33,-60,10,-11,-9,28,47
1499879153683146,-2,56,44,-29,-13,0,-21,-42
1499879153686176,7,56,67,32,-19,1,15,58
1499879153686176,7,35,-30,-15,28,2,29,21
1499879153687119,-36,-85,8,-37,13,-6,-67,-62
1499879153687119,8,-53,9,36,3,-6,16,61
1499879153692180,-7,-1,-26,-41,-8,-2,21,-5
1499879153692180,5,-5,36,76,-21,5,27,10
1499879153701153,47,101,34,-46,7,-6,-37,-45
1499879153701153,-31,-53,-69,-8,-9,-13,-8,-13
1499879153707180,-18,-29,26,-10,22,11,0,-14
1499879153707180,79,81,-38,70,-49,-1,-10,-12
1499879153723177,-53,-97,-23,-30,66,-6,20,35
1499879153723177,-13,67,26,25,-7,12,0,-29
1499879153730154,92,104,60,-45,1,-6,5,-10
1499879153730154,-27,-111,-57,-25,12,-6,-9,54
1499879153754192,-13,-14,-11,48,-52,-3,-2,18
1499879153754192,4,-111,-23,-41,2,-6,-32,-7
1499879153756122,-44,-40,-71,11,16,-4,-3,-12
1499879153756122,20,56,32,-2,-3,1,6,21
1499879153768144,15,-37,58,64,6,-1,5,-24
1499879153768144,13,15,-23,-9,-3,4,18,16
1499879153777134,-4,-38,6,38,-25,-1,3,-2
1499879153777134,-24,8,-19,-105,4,5,-10,-31
1499879153791162,-21,-20,-59,103,7,1,30,2
1499879153791162,27,114,48,-54,-12,1,-19,-9
1499879153793122,-5,28,-4,-47,-22,-1,14,66
1499879153793122,9,51,16,45,48,9,8,19
1499879153813187,-66,-84,-63,-75,-9,-10,-24,-55
1499879153813187,42,34,19,105,8,-7,6,-32
1499879153814135,-33,-24,10,-7,-22,1,-24,3
1499879153814135,-21,-16,25,-90,-28,-10,-4,11
1499879153828145,41,87,-7,0,43,24,41,40
1499879153828145,-5,1,-4,4,-12,-9,-39,-8
1499879153835166,11,35,2,52,10,-5,12,-6
1499879153835166,-114,-117,-34,-12,-56,-16,-36,-75
1499879153851137,15,117,14,30,32,7,0,16
1499879153851137,-53,-88,-12,0,-13,-5,18,-2
1499879153851137,22,52,22,-23,33,9,-6,-2
1499879153851137,27,7,14,0,-10,-2,-2,2
1499879153873198,5,-62,33,23,-60,-7,3,4
1499879153873198,31,113,-22,-33,75,17,37,41
1499879153874138,-21,-28,55,15,-30,-13,-45,-48
1499879153874138,39,54,-29,125,28,3,-3,-19
1499879153888145,0,28,-14,-120,-55,-6,-9,-31
1499879153888145,-73,-62,-17,29,57,5,6,25
1499879153895189,-27,-49,-43,-32,12,0,2,-21
1499879153895189,13,-4,2,39,11,-2,3,29
1499879153911170,57,127,50,-27,-83,-14,-2,-24
1499879153911170,10,37,16,-21,37,15,17,79
1499879153911170,-29,19,-76,-24,-8,-12,-39,-61
1499879153911170,-44,-70,60,102,9,2,4,-50
1499879153933204,69,68,25,-61,0,9,3,72
1499879153933204,-18,-85,26,5,25,-5,-6,-16
1499879153934164,16,84,-73,-13,-62,-3,21,55
1499879153934164,28,101,60,-25,10,1,7,-49
1499879153948148,9,-61,21,16,26,6,32,39
1499879153948148,36,125,42,-24,-23,-3,-32,-38
1499879153955192,-20,-63,35,71,22,7,9,9
1499879153955192,-20,-13,-30,-102,-29,-6,-16,-72
1499879153971173,-25,62,-10,8,14,-6,-22,-23
1499879153971173,38,52,-3,11,-48,-4,24,57
1499879153972134,-31,-96,-22,-24,32,-6,-17,-64
1499879153972134,-4,10,17,-8,-24,-5,2,74
1499879153993192,19,-36,15,35,38,6,3,-6
1499879153993192,20,44,-39,-41,-3,-12,0,13
1499879153994145,57,108,16,51,-1,13,-1,-10
1499879153994145,-27,-16,-43,-64,-57,-7,-3,35
1499879154008175,16,-27,29,-63,58,14,-7,-24
1499879154008175,9,-69,-67,-7,-55,-15,10,85
1499879154015179,39,45,31,18,57,9,7,-4
1499879154015179,-70,-61,-17,3,-45,-8,3,11
1499879154031179,7,33,-79,24,27,9,0,22
1499879154031179,7,-42,36,-41,-37,2,13,-56
1499879154031179,-4,28,20,-24,26,2,17,20
1499879154031179,63,-6,-9,-28,-10,2,7,86
1499879154053176,-16,-10,9,52,6,-7,-21,-50
1499879154053176,-24,-2,15,-41,37,2,-11,-45
1499879154054149,47,11,-31,14,-35,-8,18,15
1499879154054149,-48,-47,11,41,37,-3,-37,-22
1499879154067199,55,78,28,34,-2,8,27,40
1499879154067199,-101,-53,-45,-13,-39,-22,-51,-74
1499879154075205,-39,-5,55,41,6,8,15,23
1499879154075205,101,127,-12,-24,25,9,45,23
1499879154091181,-79,-106,-53,29,-21,-21,-48,4
1499879154091181,6,72,26,21,-65,16,9,14
1499879154091181,-3,36,23,17,45,-8,-8,-36
1499879154091181,-42,-103,-90,-25,-2,-4,-12,-38
1499879154113184,8,72,35,9,21,4,14,-29
1499879154113184,14,25,80,25,-2,0,10,42
1499879154114141,-24,-95,-35,23,26,2,-14,-31
1499879154114141,18,-58,20,-84,30,7,9,35
1499879154127205,-48,-62,-66,-30,-64,-10,26,-34
1499879154127205,-43,-40,0,-5,-5,-7,-15,2
1499879154135142,-6,29,24,62,-32,0,-11,19
1499879154135142,-19,-66,31,16,39,-3,-8,-23
1499879154151184,-6,-2,-29,-22,-9,1,-13,48
1499879154151184,38,80,43,44,35,10,23,21
1499879154151184,-36,-111,-57,-43,-52,-8,1,-2
1499879154151184,1,64,41,64,-12,-4,-4,-41
1499879154173167,-32,-8,15,6,8,1,-3,11
1499879154173167,30,-41,-62,27,6,-11,-4,-25
1499879154174177,30,31,53,-88,-16,15,-1,-55
1499879154174177,2,112,-72,2,44,5,0,60
1499879154188146,17,4,78,9,-30,-5,0,2
1499879154188146,14,-15,-73,-4,35,2,3,-17
1499879154195144,6,-11,59,-12,-52,-3,21,69
1499879154195144,-1,39,-12,47,55,1,-8,-56
1499879154211183,2,-9,29,-27,-27,-4,-5,-39
1499879154211183,-10,-19,-9,28,-18,2,2,12
1499879154211183,14,47,-11,-15,34,1,22,-67
1499879154211183,22,-87,-13,-11,-95,2,-17,27
1499879154233196,6,26,39,6,80,-2,-18,2
1499879154233196,6,18,-24,42,21,5,1,-35
1499879154234160,27,-57,20,-15,-5,-4,6,60
1499879154234160,-39,97,85,18,-26,-9,-16,0
1499879154256190,2,-21,-86,-18,-20,4,23,24
1499879154256190,-11,27,25,19,-5,4,-11,-41
1499879154257154,10,-37,-37,-24,-1,-18,-32,-26
1499879154257154,-6,-42,-32,3,10,-10,-9,13
1499879154271192,14,7,8,-24,-12,-3,-3,47
1499879154271192,-18,70,29,-1,45,8,22,-20
1499879154271192,3,53,-6,-41,-83,-10,-9,36
1499879154271192,-14,-67,-10,37,57,8,11,-23
1499879154293153,-17,-65,7,-8,-76,2,9,55
1499879154293153,12,-24,-17,-3,66,-2,-5,-31
1499879154294187,-26,32,40,-11,-25,-4,-10,-10
1499879154294187,4,20,-6,-12,-11,8,28,16
1499879154316195,10,10,-4,18,7,-6,-22,-8
1499879154316195,10,-49,-11,-36,-28,3,5,38
1499879154316195,-34,-58,-50,-51,11,-7,-21,-37
1499879154316195,17,6,20,4,7,6,20,-4
1499879154331175,5,27,13,13,-16,-1,-22,-64
1499879154331175,5,53,42,35,62,-2,-6,24
1499879154331175,-33,28,-53,-1,30,0,3,-17
1499879154331175,28,32,-34,-10,-35,-5,-4,4
1499879154353188,-32,-40,19,-36,-27,-6,-7,-28
1499879154353188,18,7,-55,-11,27,1,14,19
1499879154354155,-11,20,64,21,0,-8,-22,-17
1499879154354155,2,20,56,47,-16,0,0,-5
1499879154376214,0,-33,-81,37,14,-4,9,-1
1499879154376214,-29,-18,28,-105,-75,0,4,55
1499879154376214,25,42,-3,35,59,3,23,4
1499879154376214,-12,-17,-68,-24,5,3,-25,-46
1499879154391199,10,34,45,25,7,-4,10,-17
1499879154391199,-10,-92,-6,-16,-44,-1,-19,1
1499879154391199,4,-29,-15,-23,4,-10,-7,-20
1499879154391199,-31,-26,16,-1,15,2,-11,15
1499879154413216,50,81,-27,13,4,2,17,27
1499879154413216,-14,-14,33,61,-55,-12,-20,-71
1499879154414191,21,42,-32,15,13,8,13,64
1499879154414191,-10,29,7,-8,4,-5,-1,-58
1499879154436207,-5,24,-25,-2,12,2,5,24
1499879154436207,2,11,3,3,-36,-6,-1,22
1499879154436207,18,38,17,-5,-17,5,-4,-2
1499879154436207,-17,-21,-5,-22,15,-7,4,18
1499879154452172,4,21,47,57,7,5,1,-1
1499879154452172,6,-26,-54,-12,27,4,17,24
1499879154453162,-19,29,-5,-52,-19,6,-16,-32
1499879154453162,23,-43,-17,17,-21,-3,3,7
1499879154473227,1,-28,22,-40,17,0,28,11
1499879154473227,-4,48,11,25,42,-13,-79,-49
1499879154474196,-21,47,-23,62,-25,-13,3,9
1499879154474196,10,5,-2,-19,-20,0,-1,11
1499879154496222,-14,22,-3,13,-5,5,-9,-32
1499879154496222,26,54,-9,9,6,8,41,21
1499879154497164,-2,-20,-22,-19,40,4,-10,-9
1499879154497164,11,-9,32,17,-21,-3,3,36
1499879154511165,-12,13,-3,-21,19,-4,-21,-53
1499879154511165,25,36,-15,26,3,3,15,14
1499879154511165,-8,-25,-24,-47,-17,-6,11,2
1499879154511165,-2,19,18,2,25,-1,-19,-15
1499879154533230,-6,-11,-12,0,-25,2,-20,3
1499879154533230,-22,-99,14,-19,19,-3,-8,-56
1499879154534198,16,32,23,5,-3,9,37,34
1499879154534198,-9,-24,0,25,-13,-4,-18,14
1499879154556175,-11,-24,-15,11,35,-2,1,-30
1499879154556175,3,-9,-27,-35,-5,-3,-18,-20
1499879154556175,-7,-33,17,41,11,5,4,20
1499879154556175,5,42,-5,-55,-32,3,37,21
1499879154571204,19,59,18,47,-8,1,-12,-14
1499879154571204,-23,-17,-15,-52,14,3,-4,-22
1499879154571204,-9,20,1,-25,-36,-3,2,-8
1499879154571204,6,-69,-1,73,17,-13,-37,-24
1499879154593172,-4,-13,-18,-95,67,14,29,60
1499879154593172,7,49,-8,-13,-29,-8,-2,-21
1499879154594202,10,8,31,7,-46,-10,6,29
1499879154594202,-22,77,34,75,98,19,4,-64
1499879154616206,6,-57,-37,-61,-47,-15,-9,1
1499879154616206,-18,-2,24,66,-34,1,-6,45
1499879154616206,7,-22,6,-11,58,5,-15,-41
1499879154616206,6,41,-11,-4,-34,-9,8,16
1499879154631205,1,-34,34,-14,8,0,3,11
1499879154631205,-10,-20,-49,14,-20,3,21,21
1499879154631205,-10,-58,1,48,-54,-8,-14,7
1499879154631205,1,44,3,-80,4,-7,23,18
1499879154653182,-8,13,-10,72,21,5,-7,-18
1499879154653182,11,-40,11,3,-27,-5,-13,-31
1499879154661199,4,1,38,-9,-4,9,14,42
1499879154661199,-14,-20,-31,-21,-4,-2,-19,-8
1499879154676174,12,49,-36,32,53,-3,-3,1
1499879154676174,-12,-36,44,68,0,-2,29,40
1499879154676174,23,12,-29,-17,13,-2,-20,-22
1499879154676174,-7,-37,74,-30,-8,3,8,30
1499879154698174,-11,-33,18,-10,-18,-2,7,-11
1499879154698174,4,64,-5,-3,-4,2,5,16
1499879154699176,-32,-72,-9,44,30,-1,-2,7
1499879154699176,0,31,-18,-73,-27,-11,-29,-54
1499879154713194,-4,5,-33,27,-49,-7,-11,-1
1499879154713194,6,78,64,-13,52,1,-2,-5
1499879154721212,4,-11,-60,11,6,1,17,28
1499879154721212,11,31,13,3,-16,4,-5,-15
1499879154736240,-44,-117,-10,50,-49,-9,1,16
1499879154736240,3,58,27,-72,21,-3,-1,6
1499879154736240,16,-1,-84,-9,1,6,3,-9
1499879154736240,16,-3,52,-6,-57,4,7,18
1499879154758193,22,94,45,8,73,5,-4,10
1499879154758193,-5,3,-47,7,-52,-3,9,-6
1499879154759183,-7,23,36,-5,43,-5,-4,16
1499879154759183,-11,6,-89,38,-7,-1,9,2
1499879154772246,11,-2,-6,-97,-23,-3,0,2
1499879154772246,-5,-17,37,38,-11,-2,-1,-10
1499879154781208,-16,-60,-34,-44,-2,2,1,0
1499879154781208,22,31,-1,15,12,-4,8,18
1499879154796242,16,28,7,7,-48,-1,28,75
1499879154796242,-28,-36,-19,9,62,5,-41,-61
1499879154796242,9,40,10,-23,-46,0,-4,-16
1499879154796242,-5,28,12,26,57,-4,-1,16
1499879154818185,2,-27,4,-43,-31,-6,9,16
1499879154818185,10,-39,-41,16,-14,6,1,-11
1499879154819181,0,35,48,9,-13,-8,1,-2
1499879154819181,-5,4,-29,-33,32,7,-12,1
1499879154832194,-1,-24,0,43,-11,-1,-3,-24
1499879154832194,3,-50,-57,-50,-36,-10,7,31
1499879154841208,3,-17,13,51,82,-1,-10,-19
1499879154841208,-6,2,-15,6,-3,6,10,15
1499879154856241,-2,-2,25,8,35,-1,6,-14
1499879154856241,-7,4,54,3,-6,2,2,13
1499879154856241,11,10,-46,-74,-30,-2,-22,7
1499879154856241,-11,-16,1,-21,-14,-3,31,8
1499879154878193,-9,-54,26,56,-5,-4,-59,-79
1499879154878193,0,20,8,-47,-17,-2,-7,3
1499879154879188,-4,10,-10,23,20,1,11,-1
1499879154879188,13,6,-6,3,-20,-2,4,22
1499879154901258,17,121,24,12,3,5,19,-6
1499879154901258,-39,-89,11,27,-22,-14,-18,-52
1499879154902186,0,-1,26,42,-10,-5,-17,7
1499879154902186,0,-13,-52,-71,21,3,-5,-8
1499879154916189,2,19,33,-8,7,4,11,11
1499879154916189,23,43,-38,-12,-1,2,20,42
1499879154917235,2,-34,34,32,-26,-1,0,-3
1499879154917235,-2,-24,0,19,28,0,2,27
1499879154938232,14,16,16,-58,15,-4,0,12
1499879154938232,1,40,25,22,-11,-1,2,-40
1499879154939198,-6,-32,-15,-34,7,5,-9,-31
1499879154939198,-11,-36,18,58,-42,-4,-20,2
1499879154961229,3,55,-20,-32,38,5,-2,-3
1499879154961229,-3,-30,31,-39,-16,-1,-2,15
1499879154962232,8,49,-99,-27,-1,-10,13,3
1499879154962232,-12,-7,80,-2,-29,4,2,-8
1499879154976240,-18,-28,-56,13,16,-9,-15,15
1499879154976240,4,33,31,40,14,0,-5,-10
1499879154976240,4,24,25,-25,9,0,5,-19
1499879154976240,3,-7,37,26,-13,-4,0,-26
1499879154998237,-12,-19,-20,-22,-11,2,6,55
1499879154998237,17,11,-31,-33,-9,-2,-27,-32
1499879154999194,-4,10,57,23,-1,2,1,3
1499879154999194,-7,25,-28,-23,-4,-4,-10,-27
1499879155021235,-22,-66,-12,1,-24,-1,5,12
1499879155021235,2,-39,-53,-25,40,1,2,20
1499879155022232,1,28,57,41,-52,-3,11,10
1499879155022232,-1,23,23,-6,32,1,-23,-46
1499879155036210,4,-42,7,48,-21,-7,-5,-1
1499879155036210,5,4,-15,-54,19,5,20,14
1499879155036210,9,56,-21,-37,-6,1,17,13
1499879155036210,2,-23,-14,25,-7,-6,-5,29
1499879155058263,-7,19,17,-16,-19,-2,-6,-45
1499879155058263,8,-16,-41,44,11,2,-4,5
1499879155059230,-1,46,-41,11,-34,0,28,33
1499879155059230,-9,-44,-20,-22,56,-7,-48,-85
1499879155081225,-4,-20,-26,2,-11,-2,-15,6
1499879155081225,7,32,26,47,-13,-2,26,19
1499879155082197,-7,-22,13,-2,28,3,-20,-9
1499879155082197,17,-11,4,-24,-22,11,39,28
1499879155096241,-10,21,-18,27,9,-10,-10,4
1499879155096241,-5,-11,-23,-31,6,2,-14,-13
1499879155096241,-5,-10,39,23,41,-2,-8,-3
1499879155096241,1,6,-64,-16,-44,-9,4,6
1499879155118200,23,39,41,-40,19,5,17,30
1499879155118200,-23,-12,-6,-11,-31,-7,-8,-8
1499879155119212,-11,-43,-10,37,-2,-1,-24,-45
1499879155119212,5,-24,8,38,-4,-4,-2,3
1499879155141215,-9,42,-22,-58,-24,7,11,-9
1499879155141215,8,-26,13,36,4,-3,4,37
1499879155142213,6,-33,-14,15,2,4,33,29
1499879155142213,-15,0,5,-2,4,-9,-30,-10
1499879155156207,14,39,-18,-14,1,1,-3,-28
1499879155156207,-20,-50,26,-8,-19,-10,-21,-10
1499879155156207,-2,46,22,-6,11,4,12,8
1499879155156207,1,9,-25,18,14,6,39,34
1499879155178244,1,-21,1,55,-20,1,-41,-37
1499879155178244,17,39,18,-10,46,6,5,-4
1499879155179237,-9,-45,0,-8,-19,-11,-11,15
1499879155179237,-13,-8,-6,-50,-7,-2,3,16
1499879155201243,0,6,8,48,-10,-3,10,6
1499879155201243,1,0,-20,18,-4,-3,0,-28
1499879155202227,0,-8,17,28,-70,-1,-5,16
1499879155202227,16,-13,-25,-14,74,10,7,26
1499879155216206,-30,-3,40,26,34,-1,13,-9
1499879155216206,5,14,-61,-86,-10,-1,-17,-4
1499879155216206,17,73,21,-29,6,3,14,11
1499879155216206,-13,-79,0,34,-25,-8,-18,-7
1499879155238247,-1,6,-23,-2,-40,-10,4,-23
1499879155238247,20,45,47,6,10,10,21,33
1499879155239220,-20,-28,-11,-28,79,6,-22,-60
1499879155239220,-10,13,22,5,-26,0,23,11
1499879155261219,9,-45,-32,32,-34,-3,-16,-24
1499879155261219,-17,43,-21,7,40,1,11,22
1499879155262244,17,-8,23,-25,-31,-7,-22,-42
1499879155262244,-4,17,-19,-22,-5,-6,-23,-58
1499879155276228,1,-47,8,-79,7,5,0,10
1499879155276228,4,30,23,61,-28,-3,12,18
1499879155276228,3,-10,-38,-25,-10,3,4,20
1499879155276228,-7,28,56,57,-4,-10,-8,-6
1499879155298255,-2,4,17,-58,23,4,7,10
1499879155298255,17,-10,-25,25,13,-6,3,6
1499879155299210,-26,-67,-53,-3,5,-8,-10,-7
1499879155299210,8,43,89,26,-52,-1,15,18
1499879155321237,33,43,-5,-5,35,15,-2,13
1499879155321237,-27,-50,60,-41,13,-6,-13,-38
1499879155322239,-8,21,-25,30,-19,-3,9,13
1499879155322239,-9,6,-45,-30,-7,0,5,14
1499879155336230,-23,-65,12,50,39,-3,-3,-11
1499879155336230,4,-2,2,-27,-25,-4,-28,-1
1499879155336230,17,31,37,27,38,6,2,4
1499879155336230,-8,-62,-46,-27,-60,-7,10,-2
1499879155358214,-5,-57,-10,38,26,-4,-11,12
1499879155358214,21,-46,-6,-20,36,3,1,3
1499879155359226,-4,46,-3,2,13,-3,-1,8
1499879155359226,4,-17,15,11,22,11,11,31
1499879155381253,14,49,9,-35,-31,-5,3,4
1499879155381253,-12,-57,-38,49,-15,0,7,-3
1499879155382215,13,-7,52,22,20,4,14,20
1499879155382215,6,43,-39,-42,22,-1,-8,-22
1499879155396239,-6,11,16,19,-30,2,-6,-3
1499879155396239,-1,68,10,-13,-6,4,-7,-10
1499879155396239,-10,11,8,-17,-28,-5,-7,-6
1499879155396239,19,-9,8,73,0,3,23,22
1499879155418256,-12,4,43,-72,-13,-8,-17,-10
1499879155418256,2,20,-47,16,-2,-1,5,18
1499879155419229,-18,-23,-33,-21,-9,-1,-9,-9
1499879155419229,14,-34,0,-2,20,4,7,11
1499879155441253,2,36,2,33,-28,-5,-8,-7
1499879155441253,-23,-64,8,-19,16,0,5,0
1499879155442244,-12,-38,-7,-30,-22,1,5,4
1499879155442244,-10,-8,-29,-8,5,-4,-32,-21
1499879155456219,-19,-51,-21,6,-9,-9,-30,-17
1499879155456219,6,-48,18,21,-69,-5,7,13
1499879155456219,-1,-2,-26,-51,98,8,-25,-29
1499879155456219,10,46,45,-14,-1,-7,-4,-27
1499879155478220,-16,-19,-35,-1,-4,4,21,1
1499879155478220,-11,-33,15,-15,-31,-2,-3,-27
1499879155479222,4,-9,-30,46,36,3,4,22
1499879155479222,16,45,27,-19,7,2,7,-5
1499879155501261,2,42,-21,-21,0,-4,5,-15
1499879155501261,-14,15,26,31,-11,-7,-9,0
1499879155502245,23,4,3,-75,-42,0,16,28
1499879155502245,-15,2,-12,23,-9,-1,-17,-9
1499879155515266,6,-38,8,50,38,5,16,8
1499879155515266,6,22,15,-22,-3,-1,14,27
1499879155523288,-2,-4,-11,72,-45,-13,-25,-18
1499879155523288,7,25,11,-27,14,2,3,11
1499879155546265,-9,-5,-28,9,8,-1,-5,-9
1499879155546265,-5,13,27,33,20,4,-22,-71
1499879155547233,7,31,15,-17,-42,-4,-2,-17
1499879155547233,4,-8,-5,16,7,0,13,19
1499879155561224,-9,-44,-14,31,8,0,1,21
1499879155561224,6,40,-16,-48,-2,-1,17,17
1499879155562226,-17,-24,-18,35,-17,-9,-36,-46
1499879155562226,5,46,57,-7,41,7,-4,-1
1499879155575265,16,-1,-53,-47,-29,-2,5,22
1499879155575265,-10,-1,-17,37,9,-1,9,-4
1499879155583274,22,37,-24,-10,-26,2,24,30
1499879155583274,-13,-71,21,50,55,6,-3,3
1499879155598269,-5,29,16,28,-35,-2,1,-5
1499879155598269,4,-3,11,-31,15,-6,-14,9
1499879155599238,22,65,-11,5,52,4,8,21
1499879155599238,-20,-47,-16,-42,-31,-6,4,2
1499879155621262,-14,-14,-6,1,-33,-3,-9,8
1499879155621262,21,13,-9,1,11,4,-12,-24
1499879155622243,0,-17,15,-68,-1,0,8,-3
1499879155622243,0,12,-28,42,29,-4,-10,0
1499879155635274,-13,5,6,-29,-44,-13,-28,-37
1499879155635274,17,97,11,84,0,4,2,31
1499879155643302,-33,-106,-21,-24,24,1,-9,-43
1499879155643302,-15,45,-1,-21,-36,-1,30,19
1499879155658295,14,17,17,-23,-10,-3,-11,-6
1499879155658295,4,19,29,33,22,-3,-6,8
1499879155659267,9,24,1,12,-16,4,19,37
1499879155659267,-20,-46,-6,31,-13,-15,-41,-59
1499879155681252,25,37,17,-70,12,7,21,4
1499879155681252,-30,-23,-33,7,42,-4,-10,1
1499879155682231,-22,-42,-6,-25,-38,-2,-13,-25
1499879155682231,13,24,-21,-66,18,4,1,15
1499879155695305,0,-20,23,43,40,8,23,9
1499879155695305,-3,-29,-27,-41,-50,-10,-15,-43
1499879155703278,0,-1,1,21,17,-1,27,14
1499879155703278,8,28,25,29,10,-1,-23,8
1499879155718278,-4,3,-15,10,-48,-6,2,5
1499879155718278,31,39,-20,-47,88,18,26,34
1499879155719235,-13,-21,35,96,-40,-10,-9,-6
1499879155719235,-17,-31,-20,-75,13,5,-18,-55
1499879155741268,-6,-20,-14,-28,23,-1,17,29
1499879155741268,5,-13,20,4,-64,-3,5,3
1499879155742246,12,51,-17,-3,5,-2,-1,16
1499879155742246,-4,-27,-12,16,-19,-4,-1,-2
1499879155755302,1,14,37,-28,24,0,-6,-8
1499879155755302,-15,-21,-7,-7,-1,-1,11,17
1499879155763280,8,6,10,-4,29,8,-7,2
1499879155763280,12,28,-39,20,-34,1,7,-26
1499879155778277,-8,-28,6,-11,0,-3,5,3
1499879155778277,20,11,16,-6,-28,-1,8,3
1499879155779261,-13,-51,-3,-54,22,0,3,-9
1499879155779261,-7,1,18,31,14,-5,-8,-9
1499879155801278,8,-4,-19,20,0,3,10,5
1499879155801278,-23,13,33,6,-31,-7,-16,-42
1499879155802271,-1,-9,2,35,35,-5,-23,-8
1499879155802271,-1,-35,15,-37,-31,1,22,80
1499879155815304,7,55,-49,24,-41,-6,-43,-95
1499879155815304,-19,-34,7,-24,32,2,7,14
1499879155823302,7,24,-17,29,-21,-3,5,-17
1499879155823302,-9,-9,0,-7,-29,0,7,-11
1499879155838308,8,1,46,0,16,-1,20,33
1499879155838308,5,3,-30,54,-5,-4,-20,8
1499879155839241,1,39,11,-69,-53,-3,7,17
1499879155839241,6,19,17,-19,20,0,-22,-26
1499879155861245,-24,-30,-10,-1,47,0,7,32
1499879155861245,-8,-26,-69,8,-3,-1,18,1
1499879155862242,12,21,46,0,-1,-8,-44,-61
1499879155862242,-18,-46,9,-1,-5,-3,18,14
1499879155884249,-6,35,-42,6,5,-5,-9,8
1499879155884249,-3,-10,6,-9,-9,-1,4,9
1499879155885244,-9,26,7,66,-2,-1,-5,22
1499879155885244,18,2,-21,15,-5,-1,3,11
1499879155898272,19,54,24,18,26,6,-10,-16
1499879155898272,-15,-86,-19,-10,-17,-3,6,15
1499879155899246,-8,-20,24,17,-18,-4,6,-3
1499879155899246,11,35,-59,-15,-14,-2,-5,19
1499879155921245,-23,-43,15,53,24,-1,-2,-4
1499879155921245,24,65,6,-19,13,13,0,-27
1499879155922253,3,-31,-18,-54,-11,2,21,39
1499879155922253,2,40,23,9,-12,-6,2,-18
1499879155944276,3,-27,6,12,16,-2,-5,-6
1499879155944276,6,40,19,-28,-31,-1,8,10
1499879155945248,-32,-28,-5,-9,6,0,2,-24
1499879155945248,2,-21,-5,20,-5,1,3,20
1499879155958250,18,23,-8,-3,-15,1,-5,-10
1499879155958250,-21,-52,-34,44,19,-9,-14,8
1499879155959252,-6,-8,-7,-9,-19,1,11,-1
1499879155959252,15,40,49,18,26,4,10,7
1499879155981280,-10,-25,-26,23,6,-1,8,2
1499879155981280,5,14,23,-58,15,0,-4,-24
1499879155982249,11,32,21,11,-8,1,8,43
1499879155982249,2,23,-5,9,-10,-6,-17,-8
1499879156004305,-11,-46,-13,-22,-9,-6,8,-3
1499879156004305,4,32,7,16,-6,0,-11,3
1499879156005252,-1,13,-7,-12,17,0,-3,11
1499879156005252,6,-35,-52,26,20,-3,-13,-59
1499879156018290,8,-9,3,-58,2,3,20,37
1499879156018290,-8,-8,22,9,-22,-3,-8,-26
1499879156019256,-9,-1,-32,10,17,0,5,-23
1499879156019256,16,5,35,20,-22,6,8,33
1499879156041263,-4,3,21,-21,-29,-3,-8,-10
1499879156041263,-9,1,-29,-77,13,-4,12,5
1499879156041263,15,-37,11,34,37,-1,-14,17
1499879156041263,-16,8,-11,-14,-6,0,-5,-19
1499879156064293,15,37,24,24,5,3,-4,21
1499879156064293,-5,-16,-6,-7,-47,-3,21,49
1499879156065287,14,25,-18,-22,34,0,-31,-62
1499879156065287,-11,-7,-20,0,0,-7,2,21
1499879156078296,-2,-8,6,-3,-2,2,1,-72
1499879156078296,22,19,30,54,-18,-5,-20,54
1499879156079267,-16,-26,-12,17,15,3,23,35
1499879156079267,-17,-4,-27,-44,17,0,-17,-16
1499879156100319,4,30,9,23,-19,3,-7,15
1499879156100319,5,8,26,29,2,-3,3,8
1499879156101273,-4,-33,-15,-87,-38,-7,0,-11
1499879156101273,-9,-4,14,1,49,4,5,60
1499879156124297,13,-6,-42,-1,-9,-4,4,14
1499879156124297,-13,-25,-11,15,5,2,-7,-69
1499879156125258,7,1,8,35,-34,-12,-10,9
1499879156125258,-19,-21,-13,-6,-12,1,-10,-74
1499879156138297,-5,38,10,-31,43,4,8,25
1499879156138297,7,-21,-12,25,-4,0,-6,-34
1499879156139260,-8,-8,4,8,-11,-6,-12,-12
1499879156139260,6,5,-29,-12,-20,1,17,12
1499879156161298,2,-8,-6,24,-1,-3,3,48
1499879156161298,-15,29,9,-47,-1,-2,-10,-105
1499879156161298,16,-4,-4,43,15,6,22,73
1499879156161298,-12,-24,-16,-28,4,-4,14,7
1499879156184306,-5,-1,55,-10,-16,1,-25,-3
1499879156184306,1,-1,-23,-15,1,-4,1,35
1499879156184306,-5,-26,-15,34,-2,-2,2,-16
1499879156184306,19,34,19,-78,-12,1,4,-14
1499879156198324,-40,-42,-25,-11,1,-10,-14,-22
1499879156198324,3,-7,26,95,-4,2,21,25
1499879156199262,4,17,30,-73,15,5,-8,-17
1499879156199262,-5,-2,-45,21,-5,0,-5,26
1499879156221285,21,-9,16,1,-12,-1,10,-47
1499879156221285,-14,-30,-12,-7,22,0,-28,44
1499879156221285,4,31,-31,13,-16,-3,-3,-12
1499879156221285,-1,-19,44,18,7,0,-3,-12
1499879156244341,-4,-2,-37,-7,1,-3,7,7
1499879156244341,1,-4,-3,-2,-20,4,13,3
1499879156245265,-3,1,14,10,25,1,-2,-37
1499879156245265,22,46,50,-5,-6,-6,-4,20
1499879156258333,-16,3,-31,44,12,-1,24,-19
1499879156258333,-6,4,39,-27,0,-7,-46,-14
1499879156259275,-8,-25,-46,3,9,1,-4,-17
1499879156259275,0,-16,3,12,-2,1,4,17
1499879156281293,14,55,-10,-49,-17,-7,-3,-17
1499879156281293,-4,-53,4,-36,-17,-3,-10,27
1499879156281293,-4,27,30,36,-13,-7,-3,-28
1499879156281293,-2,-42,-42,-12,-4,5,-3,-1
1499879156304268,-8,-18,2,24,16,4,4,10
1499879156304268,-4,6,-33,-57,-15,-3,14,-3
1499879156305269,14,9,34,30,12,-1,9,34
1499879156305269,7,2,8,-19,13,2,-6,3
1499879156318334,-17,-2,-12,36,-43,-2,-18,-23
1499879156318334,10,8,-28,-4,27,8,13,13
1499879156319270,-7,-1,-3,-14,7,2,-1,-21
1499879156319270,10,86,12,3,6,-8,11,38
1499879156341278,-3,-38,2,-7,-14,1,-13,-37
1499879156341278,3,-4,27,-18,2,0,14,38
1499879156341278,2,-17,-13,-38,0,-2,12,-21
1499879156341278,-17,-18,16,70,-43,-7,-16,-45
1499879156364337,7,22,-7,-90,14,-3,-14,4
1499879156364337,7,56,52,23,22,7,9,37
1499879156365272,0,-22,-53,-4,1,-1,0,25
1499879156365272,-8,0,44,48,-9,2,4,-6
1499879156378315,9,8,0,-58,-17,-2,5,28
1499879156378315,-13,-33,-8,11,31,4,11,-44
1499879156379275,5,2,-18,-29,-9,-3,5,36
1499879156379275,0,27,10,32,4,-2,-18,-54
1499879156401294,-3,16,-24,19,19,3,3,28
1499879156401294,2,6,-28,1,-69,-7,8,-21
1499879156401294,-9,-8,47,-5,16,3,-12,-25
1499879156401294,-1,-1,-31,-25,1,1,2,24
1499879156424340,-1,-9,31,-26,-13,-1,-4,-7
1499879156424340,15,28,-72,18,7,-3,8,16
1499879156425276,-4,8,56,46,-48,-1,15,3
1499879156425276,1,-32,-34,-5,17,-3,-7,23
1499879156437291,-3,-24,0,-14,50,6,-3,-17
1499879156437291,5,2,20,8,5,-3,-5,16
1499879156453335,1,22,-20,26,-21,-1,-1,14
1499879156453335,-3,-44,-2,-66,-16,-1,34,21
1499879156461296,-1,1,-11,18,-7,2,-24,22
1499879156461296,6,15,40,4,23,-3,13,12
1499879156461296,-1,3,-56,9,2,-3,-28,-20
1499879156461296,6,-12,-6,-8,16,0,3,1
1499879156484321,-6,-4,7,33,-10,-3,-3,-32
1499879156484321,8,46,35,-4,-9,8,-1,-16
1499879156485280,-8,-49,-34,-14,-3,3,1,23
1499879156485280,-6,-35,2,20,-11,-8,-5,-14
1499879156497324,2,-5,-44,42,-13,-2,10,5
1499879156497324,-9,3,17,-79,25,-2,-7,-14
1499879156506300,4,0,15,-23,-31,-1,-4,-1
1499879156506300,0,24,2,12,14,2,15,27
1499879156520325,11,1,44,14,-26,-3,-29,-69
1499879156520325,-17,-29,-59,33,38,0,-1,49
1499879156521294,4,-33,51,0,29,6,0,-19
1499879156521294,-1,25,-17,-3,-44,-5,-5,7
1499879156544347,9,38,19,2,22,1,22,22
1499879156544347,-13,-71,-34,35,-33,-9,-18,-25
1499879156545282,-1,26,15,-9,34,7,0,-2
1499879156545282,0,-41,18,-29,-24,-5,-11,3
1499879156557293,-2,17,6,35,13,-3,10,16
1499879156557293,-3,19,8,23,-2,4,0,-12
1499879156566284,-12,-31,-60,-15,1,-2,7,19
1499879156566284,-5,15,46,47,-19,-3,-21,-36
1499879156581301,0,-6,-44,-46,0,-1,-9,4
1499879156581301,-8,20,60,-13,-52,-5,-11,-22
1499879156581301,6,-28,-5,14,32,1,1,-2
1499879156581301,3,7,-11,-15,-9,4,5,8
1499879156604357,-10,-54,1,24,6,-2,8,14
1499879156604357,6,-28,-15,-50,4,4,8,0
1499879156605288,-3,61,30,15,-16,-5,-21,-10
1499879156605288,-2,-4,-48,-38,19,-2,-9,-24
1499879156617351,5,19,30,26,7,3,7,36
1499879156617351,-2,-4,-7,8,-14,-2,-3,-34
1499879156626305,-11,0,-9,-24,-8,-5,7,0
1499879156626305,-5,-4,-23,2,-5,-4,-15,-24
1499879156640352,1,8,9,-48,7,2,17,9
1499879156640352,-1,6,-25,9,14,0,1,28
1499879156641298,5,11,-10,7,-36,-10,-17,0
1499879156641298,-2,-25,-13,32,13,6,10,4
1499879156664330,-11,-2,-3,-41,-1,-1,12,-9
1499879156664330,11,-1,-15,14,9,-2,-19,-33
1499879156665290,-3,15,8,-28,-10,1,5,7
1499879156665290,-2,4,-1,34,6,2,12,17
1499879156677364,9,20,17,13,-39,-8,-9,-25
1499879156677364,-24,-62,-28,17,33,-1,-32,-5
1499879156686301,6,18,26,-16,-7,0,7,4
1499879156686301,-23,29,19,-31,-1,-1,1,17
1499879156701302,13,-28,-97,-7,12,5,6,20
1499879156701302,5,21,40,25,12,3,9,-12
1499879156701302,11,-20,-9,23,-15,-7,-2,-5
1499879156701302,-7,29,-26,-48,1,-2,-2,-9
1499879156724293,15,37,65,23,13,4,7,34
1499879156724293,-16,-61,-9,-8,-32,-10,-14,-31
1499879156725298,-3,4,16,-15,22,1,2,23
1499879156725298,5,23,21,-1,15,4,1,-22
1499879156737365,-3,-62,-34,25,9,-5,-4,6
1499879156737365,1,7,17,16,-25,-5,-6,3
1499879156746309,-10,46,31,-3,-4,3,5,5
1499879156746309,2,-35,-1,11,33,-1,-1,16
1499879156760354,-14,-2,-23,14,-33,-3,-7,-39
1499879156760354,8,-3,-3,-10,-1,-1,17,-3
1499879156761300,3,-17,23,14,-6,-5,-9,-13
1499879156761300,4,12,-30,5,-19,-6,-20,-11
1499879156784336,-6,-39,-16,43,14,8,4,23
1499879156784336,18,80,25,-60,-14,0,2,-16
1499879156785304,-18,-9,26,44,-27,-3,-13,-20
1499879156785304,0,-15,-23,17,78,7,15,14
1499879156806371,18,27,13,12,4,-2,7,56
1499879156806371,-18,-3,20,-4,4,2,11,1
1499879156807331,-3,-26,-1,-23,-1,-1,3,1
1499879156807331,3,-45,4,21,-49,-3,10,21
1499879156821311,-25,4,2,-45,22,-4,-24,-33
1499879156821311,3,18,-10,7,-6,2,1,2
1499879156821311,11,25,-7,-5,30,3,-8,-12
1499879156821311,-8,-21,7,16,-29,-6,-2,-11
1499879156844368,5,10,24,-64,-11,-3,-5,-20
1499879156844368,-5,1,-34,-12,35,3,19,36
1499879156845303,-1,6,-28,-9,-4,-5,-20,-9
1499879156845303,8,14,45,6,-5,0,-8,-15
1499879156866340,-4,-13,20,3,-20,-2,-5,-13
1499879156866340,-5,-43,-8,30,8,-1,11,28
1499879156867317,6,32,46,-17,5,3,35,12
1499879156867317,-15,-4,-48,-10,7,-4,-19,-18
1499879156881302,-1,4,7,-19,-45,-1,-4,-13
1499879156881302,2,-43,-16,37,29,-1,-3,2
1499879156881302,4,33,-2,-12,3,2,17,19
1499879156881302,6,-31,28,-22,-19,0,-4,-32
1499879156904334,-5,8,18,17,-11,-7,-4,5
1499879156904334,20,12,-10,-39,17,3,-5,-7
1499879156905304,-24,-48,-38,-9,-2,-3,8,4
1499879156905304,10,33,34,28,-27,-7,-12,-27
1499879156926366,5,1,-21,-6,43,10,1,29
1499879156926366,11,46,30,-4,-22,-6,-2,-16
1499879156927315,-5,-48,7,6,-11,-3,-15,-12
1499879156927315,4,-15,-14,-14,-24,-4,11,4
1499879156941304,1,61,-25,40,44,6,5,-3
1499879156941304,-14,-67,-28,-4,39,-5,-3,8
1499879156941304,6,35,10,-23,-9,1,8,-12
1499879156941304,2,-1,-40,1,-5,1,-3,21
1499879156964356,11,14,20,-1,-22,-6,10,5
1499879156964356,-26,-49,4,-31,-28,-5,-17,-38
1499879156964356,18,37,-28,41,30,0,6,43
1499879156964356,-9,-16,6,-17,25,-2,-10,-16
1499879156986370,14,25,16,-28,1,-2,-2,1
1499879156986370,-11,25,40,21,-23,1,2,-12
1499879156987342,-23,-20,-49,-14,-37,-8,-17,-26
1499879156987342,11,42,43,23,33,8,31,37
1499879157000378,-19,-97,-49,4,-9,-9,-38,-19
1499879157000378,21,49,1,22,-22,-4,2,8
1499879157001332,-1,-9,-22,-12,-11,4,8,9
1499879157001332,-14,-24,-9,-17,5,-3,-7,-30
1499879157024380,-13,12,18,4,-22,-2,2,-7
1499879157024380,17,0,25,31,-7,3,-8,-6
1499879157025310,-18,-21,-18,3,30,-4,0,-3
1499879157025310,9,22,-19,-47,18,7,13,20
1499879157046374,9,15,0,-22,-59,-5,-5,-21
1499879157046374,-9,16,29,35,48,3,5,-4
1499879157047346,7,-8,21,-3,-15,-1,-2,-12
1499879157047346,4,11,-69,11,-6,-2,7,16
1499879157061312,8,7,33,-12,-7,2,-19,-22
1499879157061312,-1,60,7,8,12,-4,-1,-4
1499879157061312,-16,-65,-8,-2,-20,0,-9,-23
1499879157061312,-15,-41,21,26,31,2,4,5
1499879157084340,1,9,3,6,-31,-6,14,17
1499879157084340,7,3,-24,-28,19,-2,-8,3
1499879157084340,8,-8,-5,17,35,8,3,11
1499879157084340,-23,-2,-9,-33,-31,-8,-11,-22
1499879157106341,-2,-19,-19,9,12,-1,5,-1
1499879157106341,-2,18,15,-7,-28,0,12,19
1499879157107316,21,80,39,5,6,-3,-8,19
1499879157107316,4,-46,8,35,13,4,0,2
1499879157121315,-11,-13,-31,-12,26,0,12,5
1499879157121315,-5,-29,-15,-58,-15,-7,-11,-15
1499879157121315,0,-19,0,-16,-37,0,2,11
1499879157121315,13,16,42,-15,28,0,-5,11
1499879157144358,-9,-2,1,49,19,-1,-3,-26
1499879157144358,19,5,-34,-7,-7,6,1,4
1499879157145317,-38,-53,3,-16,-38,-16,-3,-14
1499879157145317,17,49,0,30,7,5,6,7
1499879157166359,-5,-22,7,-28,5,5,-1,30
1499879157166359,3,5,-4,2,-16,-3,-12,-2
1499879157167352,10,-8,-65,19,45,2,4,-12
1499879157167352,0,47,15,17,-21,-8,-21,-17
1499879157181318,-2,-14,-13,-35,4,-2,14,9
1499879157181318,-4,12,-1,36,3,8,2,-4
1499879157181318,19,-34,29,5,0,5,0,13
1499879157181318,-13,-26,-9,9,-30,-6,-7,-3
1499879157204326,21,53,16,18,19,5,28,82
1499879157204326,-37,-112,-29,-47,-18,-8,-34,-87
1499879157204326,8,61,26,44,39,1,-9,5
1499879157204326,14,-3,16,-30,-10,-6,11,-2
1499879157226385,-5,16,-8,11,-12,1,-17,-15
1499879157226385,1,31,-6,6,-12,0,13,27
1499879157227333,-10,15,28,-1,2,-3,3,-15
1499879157227333,21,41,-11,-43,-5,2,-3,-8
1499879157241332,-20,-55,-5,1,9,-6,8,-15
1499879157241332,14,20,1,-25,14,-2,-1,16
1499879157241332,-13,-3,-9,-1,-28,-3,-1,-13
1499879157241332,7,2,-2,10,-5,0,0,31
1499879157264357,-7,-21,31,2,-7,4,14,9
1499879157264357,4,20,19,-2,-22,-6,0,-11
1499879157264357,1,31,-36,-19,14,0,-25,-7
1499879157264357,-10,-31,-15,29,7,3,2,-6
1499879157286325,7,16,43,36,13,-1,-11,-7
1499879157286325,-3,-19,-62,-31,-18,2,23,53
1499879157287337,1,36,31,-2,-22,-5,-7,-50
1499879157287337,-3,-27,-33,-9,11,-2,-10,12
1499879157300360,2,7,-10,6,15,0,0,15
1499879157300360,-4,14,-19,20,-16,-5,-16,-18
1499879157301326,15,35,30,-18,44,0,6,10
1499879157301326,-26,-25,-12,-16,-20,-3,0,-14
1499879157324328,5,-14,3,-24,3,0,-3,-11
1499879157324328,-13,-37,1,24,2,0,3,19
1499879157324328,7,-27,-13,-49,-9,2,-2,16
1499879157324328,-9,7,17,6,21,1,-6,-10
1499879157346372,-1,17,-11,-23,4,-1,3,-4
1499879157346372,11,62,16,72,-40,-2,-8,-1
1499879157347338,9,-50,-30,-24,15,4,12,31
1499879157347338,-8,-29,18,6,11,0,-2,-15
1499879157360339,-4,3,-21,3,-21,-6,-7,-19
1499879157360339,-4,-32,-37,31,14,1,8,5
1499879157369344,-6,-9,13,-13,-28,-3,8,12
1499879157369344,5,53,-14,2,-3,-2,-5,-1
1499879157384380,-9,4,6,-1,-8,-7,-37,-24
1499879157384380,3,-20,17,-4,10,-1,-3,4
1499879157384380,13,40,-2,20,-3,2,19,21
1499879157384380,-5,-2,-21,-23,-1,-4,-4,-12
1499879157406372,-3,14,58,52,-10,-2,3,-17
1499879157406372,12,-22,-55,-104,-12,-5,-4,10
1499879157407344,-31,-29,-38,7,-1,3,-10,-13
1499879157407344,20,38,48,26,1,3,12,8
1499879157420372,-7,-10,-13,16,-34,-9,1,11
1499879157420372,-16,-43,33,-21,80,10,0,-24
1499879157428378,14,53,2,-7,-11,-1,10,-10
1499879157428378,-13,-93,-37,0,-14,-5,-6,1
1499879157443377,-1,21,-8,-22,-1,2,-3,14
1499879157443377,-3,52,18,19,10,1,-6,-34
1499879157450401,1,-56,14,-1,-17,-3,1,-13
1499879157450401,-2,22,-1,-6,-4,-5,-12,5
1499879157466377,6,-49,-28,-18,31,1,20,19
1499879157466377,1,20,6,28,-38,-2,2,26
1499879157468335,-8,19,27,7,2,-1,-8,-3
1499879157468335,-7,-20,-15,-43,-14,3,11,-5
1499879157480377,14,27,-4,0,10,3,0,-5
1499879157480377,-4,-35,-19,0,-8,3,10,15
1499879157489351,-3,18,17,23,-16,-7,-25,-21
1499879157489351,-3,-40,48,14,-3,2,13,37
1499879157504373,-15,-25,-49,-17,-7,-4,-31,-56
1499879157504373,11,44,46,-7,14,-1,4,-18
1499879157505339,-10,-32,-42,-8,-10,-7,-18,5
1499879157505339,-8,25,13,2,3,-1,-1,-11
1499879157526337,5,35,19,-2,0,-2,0,7
1499879157526337,4,4,-1,7,-13,0,20,30
1499879157528341,3,18,11,16,4,-2,-13,-25
1499879157528341,-4,24,-9,-32,22,2,6,7
1499879157540347,-14,-47,-5,-17,0,-2,-23,-16
1499879157540347,1,7,1,-2,-11,-4,2,5
1499879157549341,2,-7,-15,2,14,-1,12,14
1499879157549341,2,-14,16,0,-3,1,-12,-13
1499879157564340,-4,-1,4,19,0,1,17,42
1499879157564340,-2,9,13,-15,0,-3,-11,-17
1499879157565342,-5,-45,16,10,8,1,2,-28
1499879157565342,2,27,-3,23,-18,-6,4,10
1499879157594342,7,16,-3,-29,4,8,10,17
1499879157594342,-3,0,-60,25,7,-4,-7,9
1499879157595354,0,-14,14,-30,-13,-3,-2,0
1499879157595354,1,-14,-14,-11,-16,-2,2,-5
1499879157600350,-6,-14,9,33,2,0,11,-4
1499879157600350,2,18,41,-29,4,-2,2,20
1499879157609375,11,15,-28,2,13,5,-8,2
1499879157609375,-9,-9,-43,-5,-16,0,-2,-10
1499879157624343,-1,-20,-5,20,12,-3,33,41
1499879157624343,-2,13,0,-7,-9,-5,-41,-49
1499879157625347,-10,-29,11,27,9,0,0,12
1499879157625347,5,0,19,-7,-6,-1,-6,-3
1499879157646383,-11,-4,6,5,-10,-1,-8,-20
1499879157646383,11,-5,-42,3,7,1,19,17
1499879157648359,-10,2,-10,-26,-10,1,7,0
1499879157648359,6,-22,9,13,14,-1,-14,-26
1499879157660389,0,-9,-15,-3,2,0,-13,-25
1499879157660389,1,1,14,22,-18,-1,4,12
1499879157669356,-3,14,4,-17,23,0,-13,-8
1499879157669356,0,17,-9,20,1,-3,8,-21
1499879157684358,15,36,23,-17,11,0,-6,-3
1499879157684358,-22,-36,-6,0,6,1,5,6
1499879157685349,9,8,-13,13,-19,-2,26,29
1499879157685349,-7,12,23,-7,11,3,-20,-53
1499879157706415,10,23,5,14,4,-5,-8,12
1499879157706415,9,30,17,-7,-6,1,3,2
1499879157708387,-11,-29,-7,-10,-3,-2,7,10
1499879157708387,6,13,-3,8,0,1,9,19
1499879157720422,-24,-56,-41,-13,-14,-3,-7,-34
1499879157720422,4,11,27,12,-6,-2,-10,5
1499879157729362,-1,20,-30,-11,8,-1,-1,-8
1499879157729362,13,10,7,25,-3,2,-1,21
1499879157744369,3,-2,2,-18,0,0,9,6
1499879157744369,-2,-7,1,-17,-12,-2,7,16
1499879157745352,4,26,17,56,-24,-3,-12,-16
1499879157745352,-13,-57,6,-49,31,3,-4,1
1499879157766392,13,14,-42,-12,7,-6,-4,-6
1499879157766392,-2,40,25,22,-5,-6,-1,-3
1499879157768370,-4,-15,-12,6,10,7,-3,-4
1499879157768370,-4,-6,11,-18,-8,-1,29,41
1499879157789370,0,30,9,16,-16,-5,-41,-69
1499879157789370,-9,-28,-10,-6,12,-3,-8,-6
1499879157790366,3,6,24,-65,18,2,3,19
1499879157790366,-1,27,-26,-16,-16,-6,9,4
1499879157804381,-10,-12,-23,-4,-3,7,4,-7
1499879157804381,-4,-12,5,6,-9,-7,-18,-26
1499879157805355,8,3,-9,7,22,3,2,22
1499879157805355,1,-14,-21,-1,12,1,0,16
1499879157826396,4,12,46,-3,-9,-4,7,0
1499879157826396,-8,-24,-10,-11,-4,5,7,0
1499879157828378,-5,-11,0,13,-12,-5,-2,-9
1499879157828378,1,-19,3,15,-8,-5,-4,17
1499879157849372,-4,-3,-26,-27,-15,-5,6,26
1499879157849372,-16,-15,-9,-10,3,10,4,-4
1499879157850357,-4,18,9,13,-1,-8,-16,-22
1499879157850357,8,19,13,26,-10,-1,-23,-7
1499879157864359,-7,4,12,2,15,-1,5,14
1499879157864359,9,-15,-1,0,-10,2,14,7
1499879157865359,-11,14,0,11,-12,-2,-8,-19
1499879157865359,9,20,8,1,7,-1,11,21
1499879157886401,-12,-42,-15,7,18,3,-4,1
1499879157886401,5,7,3,11,5,-5,1,13
1499879157888370,3,-13,-2,-28,-21,1,9,-4
1499879157888370,4,-2,-10,-2,-24,-3,-11,-30
1499879157909381,-4,5,8,-7,6,2,-1,-18
1499879157909381,-1,-31,6,8,22,-5,0,-9
1499879157910363,-2,20,32,-3,-15,-4,-4,5
1499879157910363,5,-31,-15,10,0,-1,28,33
1499879157923430,4,-14,-22,-16,-18,-1,-33,-19
1499879157923430,-5,0,7,-15,4,1,-9,-5
1499879157930402,2,6,-16,10,-1,-1,-7,-11
1499879157930402,-6,21,13,-8,-4,-1,3,-8
1499879157946402,3,16,-14,25,20,-1,13,18
1499879157946402,2,-9,12,14,-17,0,-1,-6
1499879157948363,3,-8,-14,-47,8,-1,0,14
1499879157948363,-5,17,15,50,-19,0,-10,-10
1499879157969363,-3,2,4,-45,13,0,11,15
1499879157969363,5,30,15,15,-16,-3,14,4
1499879157970365,-9,-98,-21,-38,32,-3,-9,1
1499879157970365,-16,-33,-43,1,-2,-3,-42,-43
1499879157983377,4,19,16,6,-21,-2,-3,14
1499879157983377,9,-5,-19,-14,6,0,1,-2
1499879157990408,-13,12,22,35,-32,-4,18,8
1499879157990408,-16,14,-2,-55,3,3,-12,-51
1499879158006385,14,-8,2,34,4,2,-4,22
1499879158006385,-1,4,-24,-29,8,4,-5,-11
1499879158008369,22,43,-12,-14,1,4,8,19
1499879158008369,-13,0,15,2,2,-6,-5,-29
1499879158029388,6,3,18,18,-20,-1,23,16
1499879158029388,-7,5,-10,-24,-7,-10,-22,-13
1499879158030369,8,-15,5,31,9,4,2,4
1499879158030369,1,-25,-3,-8,-6,0,3,43
1499879158043435,-8,40,18,-13,-44,-5,-21,-55
1499879158043435,-7,-83,-33,6,53,4,1,10
1499879158050435,-1,16,3,15,3,0,1,-1
1499879158050435,7,-1,-24,2,14,1,12,30
1499879158066409,-6,49,6,16,-33,-4,13,14
1499879158066409,4,-9,-1,-13,32,-1,-29,-18
1499879158068382,-1,3,-8,33,-4,-3,-7,-18
1499879158068382,3,-9,-10,7,-21,-5,9,19
1499879158089391,3,4,70,4,44,3,1,-15
1499879158089391,15,58,-27,-1,-14,1,8,20
1499879158090373,-7,-34,-4,4,-3,-2,7,23
1499879158090373,-5,17,26,8,3,-6,-20,-40
1499879158103445,24,64,14,-10,-27,5,15,17
1499879158103445,-22,-60,-9,38,13,0,-7,-5
1499879158110415,-5,-9,8,-7,-17,-6,-23,-22
1499879158110415,0,16,-14,-5,-12,-3,5,13
1499879158126416,1,-19,-16,0,20,6,8,-4
1499879158126416,3,11,42,1,-13,-2,6,3
1499879158128375,4,8,-32,20,-1,8,12,24
1499879158128375,-7,7,11,-28,6,8,32,2
1499879158149414,3,-35,-10,30,1,-12,-36,-34
1499879158149414,-4,-16,-22,-23,3,3,15,5
1499879158155419,-8,-6,40,-16,-15,-3,-18,-15
1499879158155419,2,44,3,19,17,0,7,19
1499879158163377,-10,-63,-8,-15,13,4,11,11
1499879158163377,6,14,2,13,-49,-7,1,-7
1499879158170417,-4,-24,-15,-9,32,4,12,17
1499879158170417,5,5,15,5,14,0,-11,-6
1499879158186418,-3,5,15,-3,6,0,4,12
1499879158186418,-5,-11,-17,-8,-25,0,-1,-9
1499879158188410,6,21,-31,16,-6,-1,7,-6
1499879158188410,-2,-31,-2,-21,-17,-3,-14,-12
1499879158209378,1,-1,-19,-2,2,-2,5,35
1499879158209378,0,36,41,17,2,-8,-16,-44
1499879158210381,-8,-19,-4,-32,-5,0,-2,-7
1499879158210381,4,-14,-6,6,13,4,8,11
1499879158223449,-10,9,-40,-17,-12,-3,-7,-11
1499879158223449,3,8,19,4,9,3,6,3
1499879158230418,8,25,-2,-2,25,-3,-10,-8
1499879158230418,-1,4,20,3,-8,-1,1,16
1499879158246425,-6,-15,-20,-12,24,4,3,6
1499879158246425,-4,9,-16,21,12,2,3,15
1499879158248381,2,11,49,-7,-22,-7,6,-14
1499879158248381,1,13,-76,-31,-20,1,-2,16
1499879158269420,-14,-46,4,-7,18,-4,-22,-43
1499879158269420,-1,15,-13,-7,2,-2,4,9
1499879158270383,-1,5,-11,13,-2,1,-8,-8
1499879158270383,2,-18,-4,-1,2,-3,-10,-6
1499879158282393,-8,10,12,14,-20,-5,-2,-3
1499879158282393,5,9,-15,-22,-1,0,-6,-1
1499879158291395,-14,-10,12,-10,-25,-2,-4,-13
1499879158291395,1,19,14,17,34,-5,5,5
1499879158306444,1,-14,7,10,-18,-4,1,0
1499879158306444,-1,10,-16,4,14,5,29,48
1499879158308383,1,13,-22,-47,-10,-4,-36,-35
1499879158308383,1,25,31,17,2,3,-5,-13
1499879158329403,-17,-63,-44,-12,2,-1,5,-12
1499879158329403,0,-18,18,5,-12,-4,-6,2
1499879158330386,0,-5,-10,22,5,-2,-4,-14
1499879158330386,0,29,6,-23,-14,-1,1,-8
1499879158342434,13,-18,18,30,1,3,11,16
1499879158342434,-19,15,-5,-8,13,-11,-13,-12
1499879158351387,7,22,-15,23,-12,13,16,22
1499879158351387,-14,-47,7,-35,27,-3,-15,-14
1499879158366458,18,87,31,12,-12,4,24,45
1499879158366458,-20,-89,-21,-6,-30,-9,-30,-87
1499879158368399,0,9,11,10,20,0,-2,16
1499879158368399,18,46,-26,-2,-8,0,10,26
1499879158389404,-18,-39,-6,-18,-6,-10,-24,-23
1499879158389404,2,29,20,-22,7,2,-2,-1
1499879158390389,-4,3,1,27,23,0,7,12
1499879158390389,4,-28,21,3,-31,3,21,-7
1499879158402396,-3,-20,-29,-31,-18,-1,-22,-15
1499879158402396,8,18,5,15,1,5,-5,12
1499879158411406,2,22,25,27,-2,-2,9,-12
1499879158411406,8,16,-25,0,4,0,9,37
1499879158426458,-2,-55,-1,-19,-17,-3,-5,28
1499879158426458,-7,39,26,-13,11,9,8,-23
1499879158428401,-5,-56,-13,-20,-18,-7,-4,7
1499879158428401,-1,-26,-15,9,-2,-6,-16,-19
1499879158449403,-5,23,-30,-3,7,0,-6,1
1499879158449403,14,2,24,3,-5,-2,11,28
1499879158450401,-3,13,8,9,4,6,16,-1
1499879158450401,-16,-15,-13,-42,-30,-5,-31,-21
1499879158462440,2,20,23,8,20,0,0,-7
1499879158462440,6,-1,-26,-14,30,2,6,23
1499879158471407,-2,-22,14,12,-13,-4,5,6
1499879158471407,-2,-18,-6,34,-8,3,-1,-19
1499879158486462,0,19,18,-35,-5,-1,8,7
1499879158486462,1,19,18,-11,-1,1,-1,-2
1499879158488406,5,-7,-58,16,-19,-8,0,3
1499879158488406,-9,17,22,-55,36,-4,3,19
1499879158509407,7,-1,-17,39,-7,2,-7,-22
1499879158509407,7,25,39,-1,12,-2,-4,2
1499879158510406,1,-28,12,-23,-10,4,4,14
1499879158510406,-14,-50,-4,42,24,1,-9,-15
1499879158522435,-4,32,5,8,-5,0,11,-2
1499879158522435,-3,-26,-14,-15,-16,-4,-1,6
1499879158531405,0,30,7,4,8,-1,0,-2
1499879158531405,13,31,13,33,-18,-2,8,5
1499879158546440,-5,-41,1,-41,15,0,-4,10
1499879158546440,1,-11,-5,9,5,4,2,6
1499879158548400,-3,18,-28,-21,1,-8,-4,7
1499879158548400,1,11,19,0,-20,4,-11,-23
1499879158569398,-2,2,-17,40,6,3,3,-3
1499879158569398,-4,-7,0,-14,-20,-5,2,-3
1499879158570410,-2,-9,-14,-9,11,-1,-6,-8
1499879158570410,2,0,28,-11,-12,0,3,17
1499879158582420,9,14,-2,15,-1,-3,6,-17
1499879158582420,-13,-22,-16,14,0,2,-1,-2
1499879158591438,-2,-5,13,-16,-5,-1,-7,2
1499879158591438,-4,-8,21,3,-14,-4,-3,-23
1499879158606470,0,24,-42,-9,15,0,1,4
1499879158606470,7,18,19,18,0,-2,3,-2
1499879158608412,2,-8,-6,-12,-2,-2,0,10
1499879158608412,-2,-15,-30,12,3,0,6,18
1499879158629419,-2,-4,52,0,-2,1,0,-5
1499879158629419,-5,-7,-45,7,-7,2,-8,-21
1499879158630415,2,13,10,-4,10,-2,-2,-3
1499879158630415,-2,1,-7,-22,-10,-3,-1,0
1499879158642450,-3,-3,-26,6,-6,-2,-2,-8
1499879158642450,-1,-5,4,6,-6,-5,-1,2
1499879158651404,-2,8,10,-2,-1,6,-2,-2
1499879158651404,1,0,18,14,6,-1,1,-2
1499879158666404,-2,-5,-27,-13,-2,-1,-2,-3
1499879158666404,-2,0,5,-2,-3,1,2,6
1499879158668407,0,-6,-10,-1,-5,-4,-3,0
1499879158668407,-4,7,15,-18,-3,-2,-4,-14
1499879158689425,-1,-6,-4,20,29,2,1,3
1499879158689425,2,-10,-18,-5,-11,-7,-4,11
1499879158690408,-1,-2,29,5,4,8,3,-6
1499879158690408,-3,-4,-59,0,-1,-2,1,3
1499879158711449,2,22,32,-14,-15,-4,-4,13
1499879158711449,-4,-20,2,1,2,1,4,0
1499879158713419,-2,-11,-13,4,-2,-3,-4,-4
1499879158713419,0,1,19,5,9,-1,-1,3
1499879158726408,-4,0,-19,-10,-9,-2,12,11
1499879158726408,-3,-11,-5,-18,-5,1,-12,-4
1499879158728410,1,5,-24,9,10,-1,-7,-3
1499879158728410,3,3,25,6,1,-3,-3,-7
1499879158749420,-1,3,-2,0,-6,0,6,11
1499879158749420,-1,21,16,30,-28,-5,-9,-5
1499879158750420,-8,-39,-25,-24,37,3,16,-22
1499879158750420,5,11,-20,-27,12,3,-7,0
1499879158771452,2,-4,-31,10,-1,-5,-6,-1
1499879158771452,8,-14,-2,3,-9,4,13,20
1499879158773414,-14,19,9,3,-4,-6,-25,-5
1499879158773414,-3,-5,-7,-7,-7,-2,4,-1
1499879158786472,1,-2,16,-6,-12,-1,1,-4
1499879158786472,2,20,13,-5,12,-1,17,14
1499879158788417,-1,-12,-10,4,-8,-4,-11,-2
1499879158788417,-6,-6,9,17,9,0,0,-3
1499879158809432,-3,1,15,-2,-19,-5,-11,-9
1499879158809432,-3,0,-19,1,18,3,9,5
1499879158810423,3,-19,11,-5,-11,1,20,31
1499879158810423,-1,4,-48,15,-48,-8,-19,-40
1499879158831462,0,-6,5,-2,67,3,-9,-10
1499879158831462,2,8,-14,0,-23,2,4,-15
1499879158833415,2,42,47,-18,32,5,-4,-17
1499879158833415,-14,-76,-51,10,-5,-1,-1,45
1499879158845482,0,23,31,-17,-7,-2,7,3
1499879158845482,-4,-9,-6,-1,-6,-3,-13,-20
1499879158852462,11,48,21,-4,-23,-4,18,16
1499879158852462,-6,-36,-16,7,13,0,-14,-22
1499879158869427,2,2,5,-3,-12,-1,-11,-2
1499879158869427,-2,-3,10,1,41,4,-2,2
1499879158870426,11,44,17,1,-31,-2,1,12
1499879158870426,5,38,16,6,-8,-4,5,10
1499879158891463,-14,-74,-24,-39,27,-1,-2,-1
1499879158891463,-6,-8,-10,-3,-13,0,-4,-2
1499879158893437,-5,-7,-10,16,11,-2,-5,-6
1499879158893437,7,40,37,-16,-1,1,7,11
1499879158905486,7,6,-48,17,-14,-4,1,1
1499879158905486,-5,-1,16,-13,-10,-12,3,-5
1499879158912488,-1,-31,-46,-17,-4,4,-6,7
1499879158912488,-4,8,54,20,18,4,1,-12
1499879158929419,-4,6,8,5,-19,0,-3,-12
1499879158929419,-1,-12,-28,-4,6,0,0,1
1499879158930422,-7,-19,-12,-1,-15,-7,4,13
1499879158930422,-1,30,5,-2,10,-2,-8,-30
1499879158951462,-5,-57,-4,-3,-5,1,-2,-16
1499879158951462,5,42,20,1,0,-2,-4,-7
1499879158953454,13,-22,-10,10,-6,-4,8,5
1499879158953454,-11,-19,-38,-33,-2,-1,-3,-17
1499879158965488,1,19,36,3,-7,5,2,8
1499879158965488,-6,-2,17,14,0,-2,-11,-4
1499879158972493,0,-9,-13,-4,8,2,0,-7
1499879158972493,3,11,11,3,-3,-3,9,6
1499879158989444,-3,10,-35,-4,-23,-2,-1,-9
1499879158989444,4,-8,-4,-3,17,3,-2,6
1499879158990424,-6,0,0,2,0,0,-1,-5
1499879158990424,2,-7,-1,-2,2,-6,2,8
1499879159011443,-2,13,11,17,-6,-5,-2,-3
1499879159011443,0,-3,1,-26,-6,7,1,4
1499879159013436,-7,-6,-5,-4,1,-3,-9,-13
1499879159013436,-1,-5,19,6,-2,4,2,4
1499879159025469,4,14,22,3,3,-2,0,3
1499879159025469,2,-5,-21,-6,-2,-5,-2,-2
1499879159032440,-6,0,13,-2,-1,1,-4,-10
1499879159032440,5,17,7,-5,-8,-1,4,5
1499879159049427,-5,-44,-20,11,5,-5,2,8
1499879159049427,2,4,-8,2,5,4,2,5
1499879159050428,-6,-10,-10,-11,-6,-1,-17,-41
1499879159050428,0,22,23,10,10,4,-1,-21
1499879159071467,-1,-2,-28,-3,-1,1,-1,10
1499879159071467,2,17,16,-6,-19,-4,10,30
1499879159073429,-7,-21,2,6,-12,-5,-2,6
1499879159073429,9,-11,18,30,-33,-5,4,5
1499879159085494,0,34,24,-35,63,3,21,36
1499879159085494,-11,-41,-18,1,2,-6,-57,-76
1499879159094429,4,23,-17,8,-8,3,3,7
1499879159094429,3,-20,-1,22,3,7,37,44
1499879159116430,-9,19,6,-22,-6,-6,-24,-28
1499879159116430,3,9,20,-7,-1,0,16,22
1499879159118434,1,-3,-23,5,-23,-5,17,21
1499879159118434,-11,-20,-26,-3,24,2,-6,-25
1499879159131470,9,33,1,-13,-37,1,-18,0
1499879159131470,6,28,-5,16,17,-2,-3,-6
1499879159133436,-6,-27,15,-22,6,-1,-4,0
1499879159133436,-4,18,-4,2,-50,-6,-1,0
1499879159145463,0,-6,52,-6,73,9,-3,-21
1499879159145463,2,-25,-89,2,-36,-6,-7,23
1499879159154434,-4,4,35,35,29,-1,8,-2
1499879159154434,14,-2,-19,-41,3,-6,10,49
1499879159169451,-12,8,21,49,-41,-4,-9,-61
1499879159169451,3,5,38,-39,2,2,5,37
1499879159170434,-14,23,-41,4,3,-9,-35,-54
1499879159170434,-2,-10,-30,-8,20,5,-7,-34
1499879159191434,18,49,0,24,-24,-4,3,24
1499879159191434,-1,-27,9,12,12,-6,19,1
1499879159193435,0,-28,5,-7,-19,1,-8,-17
1499879159193435,-15,25,28,-13,4,3,-1,42
1499879159205502,10,13,-74,-26,7,2,-6,-8
1499879159205502,-9,-6,8,10,-25,1,10,-8
1499879159214437,0,13,48,-23,55,-1,13,27
1499879159214437,0,-38,-25,1,-22,-6,-51,-59
1499879159229451,0,19,-23,-9,-6,-2,22,60
1499879159229451,-6,-12,-1,60,-28,-6,-28,-77
1499879159230449,0,-2,17,-75,-1,4,14,19
1499879159230449,1,-8,-33,-4,40,5,3,-14
1499879159251478,-1,-11,4,15,-15,-3,-1,1
1499879159251478,6,17,17,-26,2,1,13,26
1499879159253440,1,-14,-39,13,-1,0,-1,-9
1499879159253440,5,-13,9,-2,-1,-1,10,-17
1499879159265481,0,-64,-27,-37,-27,1,15,53
1499879159265481,-22,25,-25,0,23,-8,-38,-52
1499879159274442,4,-9,39,33,-20,4,-6,-4
1499879159274442,-3,17,7,7,22,-3,-1,7
1499879159289441,-3,-4,5,13,-20,-4,0,-28
1499879159289441,17,19,17,-24,1,4,20,40
1499879159290453,-17,-21,2,-2,-5,-4,-3,-15
1499879159290453,3,6,-51,47,-9,5,-1,15
1499879159311496,2,-19,36,-25,9,-2,3,-3
1499879159311496,-3,-14,4,2,20,1,-10,-32
1499879159313450,10,28,-19,2,0,0,-9,-1
1499879159313450,1,-18,41,27,-8,0,10,34
1499879159325448,-4,-14,-15,-22,1,-1,-3,-25
1499879159325448,3,21,0,-14,-1,-1,31,20
1499879159334445,-4,19,14,15,-35,-5,-22,-14
1499879159334445,2,-51,-6,-7,38,-3,-6,31
1499879159349448,14,84,49,21,-3,-3,20,58
1499879159349448,-18,-52,-23,-3,24,7,-6,-2
1499879159350457,9,21,-11,41,-22,1,15,15
1499879159350457,-8,3,28,-18,-2,-5,-5,-15
1499879159371491,-3,-1,-17,-19,-4,-6,2,-13
1499879159371491,7,-1,6,5,-24,0,9,12
1499879159373446,1,7,29,3,18,4,0,2
1499879159373446,3,28,-35,-13,-4,2,2,-2
1499879159385484,-1,7,18,26,1,-8,-16,-17
1499879159385484,2,-37,-18,-11,-1,2,3,6
1499879159394448,-3,-12,-1,0,2,-4,3,11
1499879159394448,2,39,15,-16,-23,-1,-3,-33
1499879159409466,-9,-43,-10,28,-8,0,2,-23
1499879159409466,-3,17,15,-11,20,-1,-12,-6
1499879159410449,-5,-22,1,-1,-1,-1,16,46
1499879159410449,12,33,-1,-18,-2,-3,-13,-23
1499879159431502,1,8,-8,6,-24,-2,-5,-19
1499879159431502,-12,-41,-25,-8,7,-3,0,-12
1499879159433448,13,-5,0,22,25,0,-6,21
1499879159433448,-10,-19,32,-14,-18,1,22,27
1499879159445460,0,27,-78,-12,2,3,-2,-2
1499879159445460,3,-1,25,17,-13,0,0,-19
1499879159454453,6,18,-32,0,0,-6,-3,1
1499879159454453,-8,3,2,-25,-1,-5,5,-2
1499879159469470,-1,-12,8,27,1,5,-16,-17
1499879159469470,7,2,7,-35,14,-4,3,34
1499879159470484,-4,-7,-1,11,-2,0,-3,-53
1499879159470484,6,-1,-9,-17,2,2,-6,-1
1499879159491462,-8,-24,3,-2,16,-2,-1,3
1499879159491462,-4,-6,28,12,-13,2,-1,-1
1499879159493453,-1,-4,-6,-9,-8,-2,3,20
1499879159493453,-9,-23,-44,2,-2,-4,-1,13
1499879159505492,0,-37,12,-31,1,3,26,9
1499879159505492,-11,-29,-10,8,12,-3,-49,-37
1499879159514454,10,12,-5,-19,-6,-3,-8,4
1499879159514454,-5,0,0,26,10,0,4,-3
1499879159529475,1,35,42,6,-2,-1,-14,-20
1499879159529475,2,3,-16,12,-15,-2,20,43
1499879159530471,-12,-30,-16,5,-5,0,2,-10
1499879159530471,-1,15,38,-60,-7,-6,-9,-2
1499879159551496,-3,-24,-21,22,26,9,-1,16
1499879159551496,6,39,-13,3,-10,-4,6,-46
1499879159553468,0,22,1,3,21,1,2,7
1499879159553468,8,33,12,24,-12,3,-2,7
1499879159565480,-14,-31,37,-7,-13,-4,-7,-19
1499879159565480,5,-1,-17,-1,3,0,15,30
1499879159574457,-7,-9,-12,-13,-14,-4,-24,-21
1499879159574457,12,21,-11,21,5,-1,-2,-19
1499879159589477,1,9,40,-35,0,-1,-6,8
1499879159589477,-10,-18,-35,51,-10,-5,0,10
1499879159590468,2,6,19,-35,4,2,10,16
1499879159590468,-2,-2,5,26,10,0,2,-2
1499879159611502,4,17,-17,-13,-16,-4,-4,5
1499879159611502,-5,4,36,-23,-4,-2,1,27
1499879159613459,-7,2,-13,15,-18,-1,8,-36
1499879159613459,-5,23,-14,2,23,6,-6,-2
1499879159634496,8,-13,-45,15,4,0,5,16
1499879159634496,5,-1,-6,4,-4,2,-3,-8
1499879159635462,-24,-27,13,-30,-40,-11,-29,-30
1499879159635462,10,-20,-6,30,30,2,6,32
1499879159649471,4,28,34,-10,7,2,-1,-4
1499879159649471,0,41,33,-8,-6,0,1,20
1499879159650464,6,-1,-43,5,11,8,16,33
1499879159650464,-9,-24,31,9,-22,-10,-11,-60
1499879159671507,-8,-26,-23,-44,4,-2,-8,-7
1499879159671507,6,7,8,-6,1,3,4,-3
1499879159673499,3,5,7,-10,-9,-2,-1,3
1499879159673499,-8,-7,6,6,11,-1,0,9
1499879159694475,3,-11,-23,25,-1,3,15,7
1499879159694475,4,63,5,-5,-7,-2,-14,-7
1499879159695464,-13,-44,2,-2,12,1,4,6
1499879159695464,7,15,0,-18,20,-1,2,3
1499879159709478,-8,-7,12,18,-4,-2,3,6
1499879159709478,1,29,-44,-13,-23,-4,5,21
1499879159710475,6,-8,44,-10,12,1,-4,-40
1499879159710475,9,-17,-42,32,-14,2,3,55
1499879159731513,-12,11,29,-20,21,-4,-9,-41
1499879159731513,-1,-24,9,15,4,-3,-5,-1
1499879159733467,9,38,-29,-18,-6,5,15,23
1499879159733467,-4,-26,19,5,-21,-2,-7,-18
1499879159754467,-14,-51,-67,9,-4,0,-7,-3
1499879159754467,0,7,6,-8,4,-7,-16,-31
1499879159755469,18,33,9,11,-15,-4,-5,-4
1499879159755469,-27,-48,-9,-59,9,-2,14,13
1499879159769496,-14,3,9,30,6,-4,-28,-30
1499879159769496,-7,-28,33,1,9,4,3,-20
1499879159770470,1,16,-4,17,-5,-3,-6,-15
1499879159770470,4,-28,-26,7,-12,-4,-1,4
1499879159791516,14,22,11,-22,-6,1,19,45
1499879159791516,-4,-42,-16,15,2,0,-4,-19
1499879159793470,-7,19,31,-42,-17,-4,-6,6
1499879159793470,-7,3,-12,8,28,4,1,0
1499879159814479,-2,7,-6,15,3,-4,-10,-17
1499879159814479,12,13,1,4,-27,3,25,46
1499879159815504,0,12,-14,19,5,-9,-28,-24
1499879159815504,-7,-30,13,-32,35,0,-11,-28
1499879159828512,1,20,27,18,-7,4,4,15
1499879159828512,-8,-20,-58,-12,8,4,7,14
1499879159835471,-2,-11,-2,14,-10,0,22,16
1499879159835471,5,-1,-5,-1,-24,-8,-24,-41
1499879159851492,1,-12,1,-10,1,-4,-6,-7
1499879159851492,4,11,43,-1,0,-6,-1,2
1499879159853474,-2,2,-8,8,15,9,17,12
1499879159853474,8,25,-35,-8,-21,-5,-14,-10
1499879159874495,-11,-16,-14,-20,-11,-2,22,13
1499879159874495,-7,-3,-2,-1,16,-6,-48,-28
1499879159875475,1,-14,-12,-9,1,-2,-3,7
1499879159875475,3,22,18,7,-1,1,4,15
1499879159888550,9,21,-18,15,-20,-1,1,14
1499879159888550,-5,-17,3,-8,-15,-3,15,-17
1499879159895477,-21,-66,-14,-11,41,-2,-17,-16
1499879159895477,2,17,5,-18,-16,3,-3,-22
1499879159911489,-2,-5,22,-8,-7,-10,-28,-10
1499879159911489,2,9,-28,5,1,2,19,0
1499879159913477,6,30,28,-5,-8,1,11,2
1499879159913477,-7,-26,11,15,-23,-2,5,-7
1499879159933495,0,-12,-26,5,37,0,12,28
1499879159933495,0,9,22,-24,-9,-5,-27,-30
1499879159935489,14,4,-6,2,20,2,-2,-2
1499879159935489,-14,-4,-23,1,-8,0,9,22
1499879159948542,-5,11,10,-7,-25,-6,-4,-12
1499879159948542,-10,-29,-4,11,3,-2,-2,0
1499879159955498,-2,14,2,-3,9,0,8,7
1499879159955498,15,46,7,1,-5,1,-2,-21
1499879159971525,-14,-82,-29,10,0,-1,3,5
1499879159971525,5,8,-3,-6,18,2,16,8
1499879159973480,-2,-14,26,10,-6,-1,-8,12
1499879159973480,6,33,34,1,-12,-4,-13,-9
1499879159993502,18,45,-27,22,6,4,2,-26
1499879159993502,-27,-19,-12,-18,3,-1,-3,27
1499879159995481,4,9,-8,14,-11,-4,2,-3
1499879159995481,-3,-16,49,-17,10,-1,15,38
1499879160008509,1,34,-6,-15,5,2,-5,-35
1499879160008509,6,-3,12,11,-6,-2,1,5
1499879160015508,0,4,-38,17,2,0,-7,-13
1499879160015508,2,1,-6,0,-5,0,5,21
1499879160031531,0,14,19,-1,-18,-4,6,-14
1499879160031531,5,-5,14,-3,-7,7,9,5
1499879160033489,-8,-46,26,14,10,-4,-8,13
1499879160033489,-4,-12,-85,-18,9,-2,-15,-41
1499879160054498,-3,15,1,14,3,-1,-8,-4
1499879160054498,13,12,0,-6,-3,-2,6,1
1499879160055486,5,35,24,1,-14,-2,9,6
1499879160055486,-20,-18,-18,-16,-4,0,-2,-18
1499879160068526,3,-22,9,-2,-3,-2,9,39
1499879160068526,-3,3,-5,7,17,4,-10,-3
1499879160075507,-6,-23,-28,-17,-47,-5,-2,-4
1499879160075507,3,22,7,13,26,-9,-10,-1
1499879160091530,-3,8,36,-8,-6,4,-1,-4
1499879160091530,4,-10,-37,6,-17,-4,3,8
1499879160093490,8,-6,7,-37,-6,4,7,35
1499879160093490,-14,-39,10,33,33,-1,-6,-61
1499879160113558,-3,13,34,-14,-4,1,-2,13
1499879160113558,-4,12,7,3,-1,-4,-7,-15
1499879160115491,-7,-27,-38,9,4,-3,-17,-9
1499879160115491,9,18,-4,-6,-23,-3,14,23
1499879160127530,-3,-5,10,6,11,-5,0,19
1499879160127530,14,20,9,1,1,5,3,-14
1499879160136492,-14,-38,-19,-3,18,-1,-8,-18
1499879160136492,4,14,29,6,-12,-1,6,3
1499879160151537,-2,0,-32,-10,-4,0,-10,-19
1499879160151537,0,21,12,20,-15,-4,1,17
1499879160153491,5,57,-12,-45,7,1,9,-1
1499879160153491,-1,-31,9,-2,2,-1,-2,12
1499879160174522,5,-17,6,16,-2,2,4,9
1499879160174522,-3,-10,-10,2,4,-1,5,1
1499879160175493,0,10,16,4,8,0,-17,-5
1499879160175493,9,17,-5,3,-2,0,-2,7
1499879160187535,-8,-14,-9,-9,-11,-1,2,-5
1499879160187535,-9,-7,-3,-13,15,-2,0,-1
1499879160196500,3,13,13,3,-7,-2,5,-4
1499879160196500,2,5,-17,-4,-17,-2,7,8
1499879160211539,5,25,-5,7,2,3,10,35
1499879160211539,-12,-48,-14,-12,20,-3,-24,-12
1499879160213495,-1,11,17,38,6,0,5,-1
1499879160213495,-4,1,-15,-48,-8,-1,-5,-13
1499879160234523,8,11,7,-7,0,1,-7,-16
1499879160234523,4,19,10,2,-3,-3,5,5
1499879160235513,13,-25,-17,-17,-9,-4,7,6
1499879160235513,-13,7,4,-1,-1,-1,-4,-5
1499879160247559,-7,-2,14,1,6,7,-2,-12
1499879160247559,5,32,-6,-20,-19,-2,2,-2
1499879160256505,6,-31,-12,36,7,-2,-6,-3
1499879160256505,-3,6,1,-5,0,-4,-4,26
1499879160271547,-2,-1,-3,-11,6,-2,-4,-41
1499879160271547,-4,-6,30,1,-13,0,1,-7
1499879160273533,-1,19,-48,-3,7,-1,-3,0
1499879160273533,8,9,8,21,-21,-1,3,11
1499879160294525,-13,-29,-15,-27,23,-3,-1,10
1499879160294525,2,10,6,-18,8,0,1,-2
1499879160295498,-6,0,5,-8,-7,0,3,-13
1499879160295498,2,-2,11,10,-5,1,-3,10
1499879160307572,3,-6,-44,8,-10,-7,-1,0
1499879160307572,-3,-2,0,5,-7,1,-5,-7
1499879160316507,-2,27,10,-10,-2,2,9,25
1499879160316507,-5,-38,-20,17,7,1,2,-60
1499879160331546,2,-5,23,-11,4,-2,-2,9
1499879160331546,-6,7,-8,5,-2,-1,-3,-14
1499879160333500,-2,-20,18,-19,-2,0,-3,1
1499879160333500,-1,-9,-28,-2,-5,-4,6,33
1499879160353572,1,-6,10,8,-3,2,-8,-10
1499879160353572,5,-6,-6,24,-4,-3,13,35
1499879160355505,-16,7,-22,-5,-5,-5,-22,-57
1499879160355505,0,4,5,-32,24,1,1,15
1499879160367572,4,-1,-3,-8,-2,-4,-2,0
1499879160367572,12,36,4,10,5,6,18,34
1499879160376536,-21,-64,-2,-7,-7,-8,-11,-37
1499879160376536,3,36,3,10,-23,-2,-12,4
1499879160391550,2,-30,-9,8,24,-2,0,16
1499879160391550,-3,40,7,-31,0,-2,-5,-18
1499879160393505,3,13,5,12,-3,-2,19,18
1499879160393505,5,9,12,21,11,7,-19,-14
1499879160413585,0,24,-2,-27,-34,-6,6,23
1499879160413585,-8,-40,3,31,4,-6,-12,-35
1499879160415507,0,37,-19,-13,15,4,-1,9
1499879160415507,-1,6,16,2,-12,0,8,5
1499879160427576,-5,-7,19,33,-15,0,9,6
1499879160427576,-3,-34,-13,-44,-5,-5,-16,-2
1499879160436541,-1,12,13,10,3,-4,-10,-8
1499879160436541,6,8,-12,-15,-13,2,-1,8
1499879160451554,-11,11,-8,7,-5,-2,-2,-11
1499879160451554,5,0,-3,10,38,3,-1,-4
1499879160453533,3,17,17,-27,-5,3,9,19
1499879160453533,-11,-28,1,5,-7,-3,4,-2
1499879160474526,6,-9,-6,-27,3,-1,-5,1
1499879160474526,-5,-16,28,15,-11,0,0,0
1499879160475513,6,15,-18,10,14,-1,2,29
1499879160475513,-5,-14,-2,12,-4,-4,2,-4
1499879160487574,-2,25,-28,5,0,1,-9,1
1499879160487574,11,24,9,-2,-19,-4,-5,-25
1499879160496538,-16,-18,-5,-5,-10,0,3,-5
1499879160496538,4,17,16,13,12,2,-1,7
1499879160511565,-1,-43,2,13,11,-3,-16,-23
1499879160511565,8,29,-31,-22,-7,-1,8,28
1499879160513513,4,20,15,-25,-6,4,12,8
1499879160513513,-8,-14,-27,-34,-46,-12,-23,-38
1499879160534550,-7,-14,15,44,65,6,3,1
1499879160534550,-7,-33,16,19,-7,-5,-6,-8
1499879160535521,3,-13,-20,-4,-8,3,3,13
1499879160535521,-2,16,39,8,-7,0,8,-8
1499879160547579,-2,-4,-36,-14,-23,-6,0,-4
1499879160547579,-4,-14,-26,-9,4,3,15,16
1499879160556527,-5,10,17,20,2,-5,-13,-23
1499879160556527,15,40,4,-13,1,-3,-6,-7
1499879160571559,-1,-54,24,-4,-11,-2,-6,-3
1499879160571559,-7,-24,-22,6,15,6,10,24
1499879160573514,6,17,11,26,-9,-2,2,9
1499879160573514,-3,-2,-3,-31,16,2,5,11
1499879160593556,-2,2,10,-4,-9,-5,3,-14
1499879160593556,9,27,-19,4,-10,-4,-1,10
1499879160595526,-7,-42,20,16,-20,-8,-7,-16
1499879160595526,-5,-21,-4,1,34,6,4,16
1499879160616584,5,15,-7,5,-2,0,7,3
1499879160616584,-7,4,5,-7,-5,0,-12,-10
1499879160618518,9,4,7,-5,-10,-3,2,9
1499879160618518,-9,-40,-9,12,-9,-3,-3,-10
1499879160631522,8,38,20,18,14,2,3,25
1499879160631522,-4,-27,-25,-24,3,1,-11,-29
1499879160633520,8,9,-10,-18,-3,-7,-2,-1
1499879160633520,-7,-7,-30,28,-1,3,26,15
1499879160653585,-12,-12,26,-44,-10,-4,-29,-30
1499879160653585,1,12,15,27,-2,-9,-14,-21
1499879160655530,-12,-1,-13,-29,13,5,0,8
1499879160655530,2,-9,-3,-9,15,4,2,10
1499879160676566,1,21,-4,22,-19,-2,7,1
1499879160676566,1,17,12,-7,0,0,1,12
1499879160678520,2,22,-6,16,-3,-1,0,-7
1499879160678520,-3,-47,-11,-11,15,0,-9,-32
1499879160690563,2,12,-29,-8,-5,3,13,1
1499879160690563,-7,2,23,-6,-14,-7,-16,-15
1499879160697545,9,15,31,27,-16,0,23,15
1499879160697545,-11,4,-21,-9,22,-1,-23,-3
1499879160713523,7,11,3,2,-7,0,-1,-7
1499879160713523,-2,-7,-38,-3,2,-2,4,4
1499879160715523,1,8,5,9,-4,7,13,2
1499879160715523,0,-13,-18,-4,-20,-9,-12,-6
1499879160736588,0,8,21,-4,11,-5,-2,4
1499879160736588,-6,16,-11,-11,-1,5,0,4
1499879160738539,13,-22,0,-1,4,-6,2,10
1499879160738539,-33,-85,-17,0,-7,0,-15,-25
1499879160750565,0,8,-20,-47,-19,-3,-8,-23
1499879160750565,5,-12,12,1,27,5,5,8
1499879160757588,-9,-2,-21,28,9,-2,-6,-11
1499879160757588,22,50,57,-6,-33,-2,2,32
1499879160773599,-5,-20,-17,0,28,1,1,4
1499879160773599,-11,-2,8,11,-13,-5,-3,-17
1499879160780537,2,-16,-13,-21,4,-3,-4,-2
1499879160780537,9,35,4,35,6,5,18,24
1499879160796579,-2,1,14,-5,-19,-4,-9,-20
1499879160796579,7,51,-18,-3,-3,4,7,16
1499879160798529,0,-50,15,-11,0,-3,-11,-25
1499879160798529,-1,2,-8,-8,-5,-1,11,6
1499879160810567,-2,0,14,39,-4,-6,2,10
1499879160810567,6,2,22,-30,-9,5,0,-13
1499879160817573,-11,7,6,8,6,-2,-14,-9
1499879160817573,4,7,12,3,-12,-8,1,12
1499879160834553,-1,6,-24,2,2,5,17,9
1499879160834553,-4,-14,7,33,-5,-4,-9,5
1499879160835540,-8,3,-17,-16,10,2,-4,0
1499879160835540,10,21,15,-1,1,-3,5,17
1499879160856530,-7,-10,15,-3,-9,-1,0,-10
1499879160856530,-2,-1,-18,3,-4,-3,1,8
1499879160858532,2,-11,12,-21,-23,3,2,-11
1499879160858532,3,-2,2,37,32,3,-4,13
1499879160870565,2,17,-16,-15,-5,1,2,8
1499879160870565,-2,-26,30,-1,10,-4,-4,-8
1499879160877544,-1,2,-18,8,-9,-1,10,26
1499879160877544,-3,23,7,-13,-2,0,-5,-23
1499879160893573,8,1,-11,-10,-9,0,-3,2
1499879160893573,-2,-24,-32,6,-12,-12,1,7
1499879160895544,-6,11,28,-11,19,10,-5,-5
1499879160895544,3,-10,-18,-3,-2,5,6,-5
1499879160916575,-3,-5,-9,4,9,-3,-1,4
1499879160916575,-5,-15,-3,-4,-7,0,-1,-4
1499879160918534,1,-1,-23,2,4,-6,-3,8
1499879160918534,-8,-4,-12,-12,-6,-4,-12,-20
1499879160930576,3,10,-7,3,-10,-1,-6,-5
1499879160930576,6,8,48,1,9,-1,3,7
1499879160937598,-5,-34,-26,-4,-1,-2,-5,6
1499879160937598,-4,5,11,-5,-7,1,2,-23
1499879160953600,1,-3,-24,7,1,0,3,2
1499879160953600,-5,6,34,-17,1,0,1,-5
1499879160955547,3,11,7,3,-2,-11,-9,-8
1499879160955547,-1,-5,-11,-7,-4,6,7,10
1499879160976543,0,7,22,2,0,-3,0,2
1499879160976543,-4,-27,-10,-2,0,7,0,-4
1499879160978538,-1,5,-11,18,-2,-4,-6,-8
1499879160978538,-1,-6,-20,-31,-4,-9,0,4
1499879160990578,1,-3,5,-2,-2,2,-2,-1
1499879160990578,-3,4,-36,-3,0,0,-2,-2
1499879160997604,0,8,36,3,1,-2,1,-4
1499879160997604,-4,-3,-10,-4,-9,-5,-5,2
1499879161013607,9,15,16,2,8,6,0,3
1499879161013607,-17,-47,-33,-4,-2,-1,6,2
1499879161015542,-2,6,0,-6,-8,0,-3,-10
1499879161015542,0,7,3,8,4,-1,-1,12
1499879161036583,5,-8,19,-6,-7,0,4,6
1499879161036583,1,21,-18,3,12,-2,-1,-9
1499879161038547,3,-15,-19,-7,-6,-3,-1,12
1499879161038547,-2,-5,11,9,-2,-3,-4,-5
1499879161050581,3,41,15,-4,-11,5,6,29
1499879161050581,-1,-37,-2,4,1,-5,-6,-25
1499879161057608,-5,-18,-8,12,14,5,10,2
1499879161057608,-2,-5,-7,-29,-1,-1,-10,4
1499879161073593,-6,-8,-22,22,-10,-6,9,-4
1499879161073593,7,17,16,-16,6,0,-14,-5
1499879161075579,1,10,12,-16,8,1,3,7
1499879161075579,-1,3,14,15,-2,-2,-10,-25
1499879161096585,-2,-6,-3,2,-7,0,12,15
1499879161096585,-1,9,-17,-1,-3,-3,-14,0
1499879161098550,-7,-10,1,-5,-16,-4,-10,-16
1499879161098550,0,6,13,-6,11,5,25,50
1499879161110557,-6,3,-36,-3,1,-4,-28,-46
1499879161110557,2,-7,11,34,-2,0,3,9
1499879161119580,2,-9,-6,-38,4,-2,-2,8
1499879161119580,-6,1,0,-6,-15,4,-2,-9
1499879161133548,-3,-21,2,-4,11,-3,-7,-1
1499879161133548,2,26,31,0,-6,2,4,6
1499879161135557,-2,-4,-31,19,-5,-1,-1,-17
1499879161135557,7,15,10,-8,7,-2,6,-2
1499879161156614,-8,-26,-13,-15,-1,-2,-2,-13
1499879161156614,-3,11,18,-9,-14,-3,0,0
1499879161158549,12,14,1,22,-1,3,8,-27
1499879161158549,-10,-46,-9,1,-1,-8,-10,31
1499879161170554,1,1,4,-4,3,2,-3,-1
1499879161170554,-1,-2,-29,1,-1,0,2,14
1499879161179552,-1,20,22,3,17,-1,5,-5
1499879161179552,0,3,-12,0,-8,-1,-3,-27
1499879161193612,-3,-11,6,6,1,-5,0,6
1499879161193612,-1,-4,-8,-9,-15,0,7,3
1499879161195551,0,9,17,-2,-4,-2,-3,6
1499879161195551,3,20,15,13,0,-2,-6,-4
1499879161216601,-7,-21,-2,-5,-2,7,3,13
1499879161216601,5,-11,5,-1,5,-2,-2,-21
1499879161218552,-6,-37,-35,8,-2,-2,-9,0
1499879161218552,-3,11,13,-7,-10,-8,-2,-8
1499879161230557,3,15,3,15,4,-1,4,8
1499879161230557,1,-6,-17,-13,-5,-6,1,3
1499879161239555,1,0,26,-3,4,5,3,25
1499879161239555,1,2,-15,5,-4,4,10,-16
1499879161253626,0,4,5,-2,-19,-6,-10,-10
1499879161253626,-1,-11,-24,2,16,5,14,22
1499879161255554,-1,28,14,32,-9,-9,-10,-18
1499879161255554,-4,-24,-29,-47,8,2,-9,-15
1499879161276617,-1,-8,-9,-10,-22,-4,0,-4
1499879161276617,-2,3,-8,2,12,-2,-9,-10
1499879161278556,1,11,16,1,-1,1,11,11
1499879161278556,2,4,-6,20,3,3,4,4
1499879161290556,-1,6,-4,2,2,-1,0,-9
1499879161290556,3,6,-5,-2,1,0,-2,5
1499879161299557,-4,-10,3,-11,10,4,-4,-2
1499879161299557,1,3,-20,10,5,-5,-2,3
1499879161313626,-6,-10,13,-14,8,1,-2,-9
1499879161313626,1,12,6,7,-10,-1,3,2
1499879161315559,0,3,-6,-1,2,1,-4,-4
1499879161315559,4,13,-3,-4,-10,-4,-1,6
1499879161336630,-2,-21,-6,-3,-2,-2,3,7
1499879161336630,-4,21,16,-7,-17,-2,-3,-15
1499879161338561,-5,-32,-19,3,9,-2,-10,-6
1499879161338561,2,-5,-4,12,-7,-1,9,9
1499879161350576,6,15,-2,-15,17,4,3,8
1499879161350576,-8,-5,14,-1,-9,-11,-15,-17
1499879161359561,4,8,-9,-30,-21,9,1,15
1499879161359561,-6,1,9,26,13,0,1,-2
1499879161373625,-2,-10,5,-20,-7,-5,-1,-7
1499879161373625,1,-6,6,-3,-1,-1,-2,3
1499879161375572,0,14,-10,0,-6,1,1,0
1499879161375572,-8,-8,10,-1,-5,-1,-3,-9
1499879161396604,3,3,13,7,4,1,-3,2
1499879161396604,-2,4,6,-7,-12,-2,5,3
1499879161398562,-3,-11,-3,-1,4,-3,-3,-7
1499879161398562,-1,5,12,1,-3,2,-1,1
1499879161410579,-3,-1,-20,7,-7,-8,-2,2
1499879161410579,-1,-18,1,-6,6,3,2,-3
1499879161419565,0,15,-8,-15,-7,0,1,-1
1499879161419565,4,-21,-4,0,1,1,-5,-3
1499879161433631,-5,16,16,6,6,-4,-6,-3
1499879161433631,3,9,-20,15,-12,0,5,12
1499879161435575,-3,-21,5,-22,10,-2,-3,-21
1499879161435575,1,10,9,-16,-4,1,4,-4
1499879161456565,-5,-18,-15,0,-2,-3,-5,-8
1499879161456565,0,2,5,6,6,1,6,14
1499879161457568,-2,1,-3,4,-4,-2,-4,6
1499879161457568,1,17,6,-1,-2,2,-6,-19
1499879161470568,-1,4,1,-3,1,-4,-2,-3
1499879161470568,3,8,1,12,16,3,-1,-8
1499879161479569,-6,-5,14,1,-11,-3,1,10
1499879161479569,-2,-5,10,-4,2,-2,-1,6
1499879161493607,0,-4,-20,4,3,2,-2,0
1499879161493607,0,-6,-11,-4,1,2,0,-6
1499879161495569,-1,16,3,0,-3,-4,1,1
1499879161495569,-3,-16,10,1,-2,-3,-3,2
1499879161516582,0,-4,17,2,-5,-7,-3,-5
1499879161516582,0,19,-14,-11,-1,4,-1,0
1499879161518572,0,-30,-11,3,13,0,1,-1
1499879161518572,0,20,-14,-6,-12,-5,-6,-1
1499879161538604,0,-21,1,12,10,0,8,11
1499879161538604,-5,-16,-16,-10,-12,-1,-11,-13
1499879161540572,-1,10,25,8,8,2,-2,-7
1499879161540572,-2,-5,-15,2,-5,-8,-3,0
1499879161553637,4,11,16,-6,4,5,-1,2
1499879161553637,-1,-3,10,8,0,-5,1,6
1499879161555582,-1,4,-3,-6,-5,-2,0,1
1499879161555582,0,2,-7,6,8,3,4,0
1499879161576576,-5,-12,-8,1,-13,0,-1,0
1499879161576576,0,-2,18,-3,9,-2,0,-4
1499879161578573,2,-8,-3,-4,-7,-2,2,9
1499879161578573,-3,4,-35,-2,-1,-2,-8,-5
1499879161598631,-1,8,4,-3,-2,1,-5,-6
1499879161598631,-4,-11,4,-4,-1,-5,-2,1
1499879161600591,6,13,-4,2,-6,5,10,14
1499879161600591,-6,-18,9,5,0,-8,-21,-37
1499879161614620,-4,5,13,-5,4,4,-3,-4
1499879161614620,-4,-1,-21,2,0,0,-4,-5
1499879161615574,1,3,29,6,-5,-3,1,5
1499879161615574,2,-9,-37,-4,12,4,9,12
1499879161636642,-6,7,17,16,-7,-6,-4,-10
1499879161636642,-1,-7,-32,-12,-9,3,2,1
1499879161637576,-1,-1,-3,7,16,0,-3,-8
1499879161637576,-1,-15,5,-1,-6,2,2,9
