timestamp,emg1,emg2,emg3,emg4,emg5,emg6,emg7,emg8
1499893846876237,15,-14,-2,-60,-8,1,0,10
1499893846876237,-30,21,-19,-31,12,-3,-5,0
1499893846881289,-3,52,-6,75,-2,-2,-2,-39
1499893846881289,-21,-32,-16,-38,0,-8,-13,-5
1499893846882247,-6,-3,1,14,-10,-2,-1,-5
1499893846882247,14,11,10,2,-9,-1,5,6
1499893846883260,9,-9,0,-45,0,5,0,20
1499893846883260,19,31,8,11,4,4,3,3
1499893846884229,-6,45,6,16,5,0,-2,-16
1499893846884229,-7,-54,-6,28,-1,-4,2,13
1499893846888233,4,61,4,-31,0,5,3,16
1499893846888233,13,83,-20,23,-7,-6,-11,-12
1499893846903269,0,-58,0,3,3,2,6,38
1499893846903269,2,-8,-7,10,-2,-1,9,-39
1499893846909272,-19,-7,19,-8,6,-8,-14,-5
1499893846909272,-2,39,19,-24,-17,6,4,-3
1499893846917233,26,-3,-38,-31,-6,-4,-6,-7
1499893846917233,-33,-70,-18,-71,30,4,-4,8
1499893846939272,-15,-11,18,22,-8,0,-1,-50
1499893846939272,0,-8,4,-14,-7,-3,2,9
1499893846940237,1,12,1,70,-19,-9,3,20
1499893846940237,16,10,2,-10,-15,0,0,20
1499893846986302,7,43,9,31,22,4,12,26
1499893846986302,20,95,16,9,-24,-3,7,25
1499893846987234,-10,-5,-1,42,31,5,-9,-25
1499893846987234,60,35,9,-29,12,8,9,19
1499893846988272,-41,-23,-53,-8,-15,-13,-7,-21
1499893846988272,-9,9,11,-14,19,17,7,45
1499893846991300,18,73,30,24,-12,-2,12,22
1499893846991300,-23,-84,-15,37,-14,-10,-17,-28
1499893846998291,26,18,41,0,-10,3,4,-18
1499893846998291,-8,-44,-10,5,7,-7,-2,-3
1499893847007265,13,30,8,-38,18,3,6,44
1499893847007265,-26,-51,-32,-35,-13,-2,-9,-38
1499893847013256,27,51,-14,-15,-19,7,13,30
1499893847013256,-76,-120,-10,40,20,-12,-29,-91
1499893847028255,-15,-80,8,-29,-13,1,-2,29
1499893847028255,18,124,-1,33,2,-7,-1,-10
1499893847036257,-21,-68,-28,-110,4,0,-6,17
1499893847036257,12,49,-2,33,-19,-3,-6,-21
1499893847059279,26,-46,-16,-39,-13,3,9,-3
1499893847059279,23,44,-4,23,-48,-5,17,95
1499893847060252,-11,-59,-15,65,87,3,-16,-76
1499893847060252,10,-43,32,-42,15,8,-7,-31
1499893847082281,-23,-29,-9,55,1,1,4,-4
1499893847082281,-21,-2,-4,-34,-31,-7,-1,-11
1499893847083287,-2,3,-22,-13,-37,-4,10,33
1499893847083287,43,-19,-13,-3,13,1,7,52
1499893847097285,-18,-36,-8,44,13,-5,-19,-77
1499893847097285,-35,6,11,-17,-8,-3,-10,-28
1499893847098247,-22,-90,-8,4,-9,-9,-1,-4
1499893847098247,3,72,0,-20,0,4,13,-25
1499893847121246,-3,12,9,16,-6,-7,-20,-13
1499893847121246,11,3,-13,-20,29,12,7,43
1499893847121246,22,81,36,29,-7,-4,-14,-19
1499893847121246,-33,51,-19,-1,16,-13,-2,16
1499893847134279,2,41,18,8,-16,2,15,-5
1499893847134279,-41,15,25,-55,23,11,6,2
1499893847135251,6,-108,0,38,13,3,-3,-8
1499893847135251,17,102,-17,25,-35,-11,-9,-18
1499893847157251,-16,-34,-13,-27,-10,-2,8,-11
1499893847157251,16,37,12,46,1,-3,-11,-2
1499893847158246,12,95,11,-36,26,8,6,31
1499893847158246,3,-41,3,-43,-76,-6,-5,-2
1499893847179287,12,-7,-5,-38,58,-1,-5,-19
1499893847179287,-4,9,11,44,-6,-4,2,-23
1499893847180259,-12,-22,-15,-30,-26,-12,-10,-32
1499893847180259,6,-24,-2,6,10,4,6,24
1499893847194288,-14,31,-24,-31,-18,-7,-7,-14
1499893847194288,18,-39,9,-50,-3,-5,0,-31
1499893847195258,-27,43,0,26,-10,-3,-2,22
1499893847195258,-7,-5,-3,-4,6,1,8,-18
1499893847217262,0,31,9,9,-7,-7,-17,20
1499893847217262,9,-16,-29,45,38,3,4,27
1499893847217262,8,32,22,-32,-35,-1,-1,-35
1499893847217262,3,0,-5,37,18,3,8,32
1499893847239290,7,8,5,-9,-6,-4,-2,10
1499893847239290,6,-19,-8,-4,17,7,1,-11
1499893847240262,-27,-22,2,22,-6,-5,-4,2
1499893847240262,16,32,17,-5,18,6,7,20
1499893847256253,0,-68,-27,17,-18,0,4,18
1499893847256253,-22,-26,10,22,-2,-1,-14,-20
1499893847256253,15,20,-6,15,-4,0,7,4
1499893847256253,-6,9,-6,-78,3,-5,-11,3
1499893847277282,-1,-28,-20,60,-7,-7,-4,-4
1499893847277282,-10,30,-1,-26,-6,-2,-3,-4
1499893847277282,6,7,29,23,-3,2,3,16
1499893847277282,-8,24,-17,36,6,-5,-13,-13
1499893847299293,9,51,-10,-69,11,-1,9,16
1499893847299293,-10,-83,-21,12,-8,4,0,-5
1499893847300266,10,18,15,-23,6,-2,2,17
1499893847300266,-9,-54,-3,-13,-13,-1,-2,-29
1499893847316256,5,-7,9,-5,-13,-1,-3,13
1499893847316256,-1,14,10,24,11,-6,6,19
1499893847317257,-3,3,-16,-43,-19,-4,1,-5
1499893847317257,17,-3,-1,22,6,7,3,22
1499893847337283,-24,-22,-14,-9,25,1,-5,-14
1499893847337283,10,83,31,12,-1,-5,11,3
1499893847337283,16,-47,-22,0,-2,9,3,24
1499893847337283,0,-26,4,-6,-4,-3,0,-9
1499893847359300,-4,52,6,-18,-17,0,2,-1
1499893847359300,0,22,8,14,-7,-2,-2,1
1499893847360270,12,18,17,-8,6,1,13,42
1499893847360270,-11,-1,-6,7,15,1,-14,-38
1499893847376261,8,7,-3,6,-21,-2,-2,22
1499893847376261,2,56,26,-50,-16,-1,-4,-23
1499893847377259,-18,-41,-63,45,8,-3,-3,5
1499893847377259,14,-11,20,-20,-16,-2,4,30
1499893847397283,-16,1,3,12,3,2,-1,-18
1499893847397283,4,-2,0,4,19,2,3,12
1499893847397283,-7,2,31,52,1,-3,-10,-5
1499893847397283,-4,15,-17,-20,10,4,18,33
1499893847419301,11,-11,2,-15,-57,-3,-17,-35
1499893847419301,-5,-26,-12,29,21,0,2,19
1499893847420273,-13,1,5,-44,16,-1,-8,-27
1499893847420273,6,-22,-8,16,-5,-1,4,13
1499893847442302,7,43,21,-6,-7,-6,6,7
1499893847442302,-6,-5,-13,-3,-7,3,-9,-25
1499893847443301,2,28,-2,-11,-5,-1,3,22
1499893847443301,-7,3,3,-53,-9,-3,-2,-8
1499893847457289,5,19,4,25,27,4,18,55
1499893847457289,-18,-37,-10,-11,-23,-8,-36,-84
1499893847457289,13,-2,1,36,20,-3,-1,5
1499893847457289,-7,-9,3,-9,-14,2,-4,-2
1499893847479304,-1,-7,9,20,31,7,8,14
1499893847479304,0,21,-41,-54,-12,-3,1,-5
1499893847480277,-12,-32,0,-11,-19,-9,-13,-21
1499893847480277,-6,5,-8,24,14,7,-2,-10
1499893847494274,16,43,-4,-12,-2,-4,2,29
1499893847494274,10,11,33,49,-4,2,12,26
1499893847502329,0,-14,-5,6,-3,1,-8,-39
1499893847502329,-12,-38,-21,-40,0,-9,-14,-7
1499893847517272,6,4,2,1,2,2,1,-12
1499893847517272,6,48,13,1,17,4,6,14
1499893847517272,-4,-18,-20,4,-20,-6,-3,18
1499893847517272,4,26,5,26,10,1,5,-24
1499893847539307,-1,-21,1,-36,16,1,-8,-20
1499893847539307,1,-5,-20,-2,-2,-3,6,42
1499893847540280,-4,38,11,18,2,0,-10,-43
1499893847540280,1,-17,4,21,4,-1,3,5
1499893847554281,2,-47,-1,12,-34,-4,-6,-29
1499893847554281,0,-32,-26,-12,25,3,7,8
1499893847562288,1,55,15,-7,0,0,4,17
1499893847562288,0,-23,0,25,-20,-7,-3,1
1499893847577283,0,18,-5,9,10,3,-2,-18
1499893847577283,6,3,27,-14,-29,-1,4,33
1499893847577283,-9,-57,-20,-5,18,2,-3,-5
1499893847577283,-10,38,15,10,-15,-6,-2,-19
1499893847599311,-3,9,12,23,18,-2,5,18
1499893847599311,11,14,-14,9,-7,-5,-3,-14
1499893847600284,-4,-50,17,-14,-8,-1,-11,-2
1499893847600284,-16,-37,-4,8,-5,-3,2,13
1499893847614282,-1,8,14,15,-4,4,-7,-5
1499893847614282,-5,-12,-14,16,6,-4,-2,-1
1499893847622289,12,30,9,-12,8,2,6,13
1499893847622289,-4,-25,-28,-56,-17,-3,-1,2
1499893847637284,-9,3,-12,58,-34,-10,-2,-2
1499893847637284,-7,-25,-9,-88,6,1,-10,-5
1499893847637284,13,15,20,41,13,9,8,29
1499893847637284,-3,16,-1,-1,-13,-7,-4,-2
1499893847659314,7,12,-11,-6,38,6,10,17
1499893847659314,-11,-41,-3,21,-11,-8,-8,-32
1499893847660287,-4,15,-22,-19,4,-2,0,-15
1499893847660287,18,12,32,20,-14,3,1,8
1499893847674279,-12,-43,-41,-44,-3,-5,-3,0
1499893847674279,1,-9,15,14,9,-1,0,9
1499893847682278,-2,20,-1,-18,-12,2,2,-26
1499893847682278,9,8,7,16,9,-3,-12,-39
1499893847705340,-16,-35,4,3,-10,-3,-4,3
1499893847705340,2,15,5,-21,26,3,5,7
1499893847706277,4,-55,-20,-10,-34,-1,-1,-3
1499893847706277,-8,-3,-3,3,5,-3,1,6
1499893847719318,7,24,1,-33,14,6,-5,-12
1499893847719318,-12,-16,11,34,-15,0,7,37
1499893847720291,2,33,5,17,-9,-2,-14,-38
1499893847720291,4,13,-20,-19,5,-7,-8,28
1499893847734281,2,-9,2,-42,-8,1,-4,-31
1499893847734281,1,2,3,20,6,-1,-6,17
1499893847742290,-1,25,3,3,2,1,9,27
1499893847742290,1,0,4,5,-7,1,2,-3
1499893847757293,-8,8,5,-14,-15,-6,-1,-5
1499893847757293,23,45,6,7,-22,-1,3,5
1499893847757293,-7,26,24,-4,37,0,0,1
1499893847757293,9,-39,-13,9,-14,1,2,34
1499893847779322,-26,-52,-17,31,23,3,7,-51
1499893847779322,0,12,14,-20,-21,-9,-33,-22
1499893847780294,-5,-13,-16,-24,-12,-2,-4,-5
1499893847780294,-3,49,2,-10,23,5,3,5
1499893847794317,14,43,12,23,0,2,0,-11
1499893847794317,-3,-39,-7,10,10,3,9,3
1499893847801323,-13,-57,-24,-14,-24,-6,-9,-25
1499893847801323,9,19,15,13,25,3,3,8
1499893847817283,3,22,-2,9,-3,3,1,12
1499893847817283,-10,-20,-12,-29,-12,-2,-1,-4
1499893847817283,12,-42,6,13,2,-6,-1,9
1499893847817283,-16,6,4,5,-6,-1,-9,-34
1499893847839326,0,-23,-30,-27,-20,-4,-3,18
1499893847839326,3,38,10,11,25,2,7,5
1499893847840298,4,20,-7,-4,-6,2,4,3
1499893847840298,9,40,6,-3,-1,1,3,15
1499893847862350,-21,-35,-2,-7,-3,-9,-9,-25
1499893847862350,5,0,-2,4,-1,5,0,20
1499893847863298,-7,4,4,6,19,2,6,14
1499893847863298,-1,11,1,-3,-3,0,-4,-36
1499893847877298,9,27,23,33,8,-1,2,27
1499893847877298,-6,-15,-20,-57,-24,0,1,0
1499893847877298,-13,-6,17,12,11,-2,-16,-49
1499893847877298,3,-13,-6,13,-18,-1,3,1
1499893847899330,1,3,5,8,6,-4,-3,21
1499893847899330,-12,4,5,1,28,-1,4,-3
1499893847900301,13,70,7,9,-34,2,0,26
1499893847900301,1,-64,-15,-20,32,4,2,22
1499893847922352,-3,-27,2,18,-21,-3,-9,-66
1499893847922352,-2,-29,4,19,-4,-3,6,24
1499893847923294,1,44,4,-34,11,4,7,15
1499893847923294,11,39,11,7,-10,-2,-2,5
1499893847937305,0,-20,-5,-23,3,2,6,32
1499893847937305,-2,-30,-3,32,11,-1,-7,-29
1499893847937305,1,-10,5,-30,-8,-4,5,10
1499893847937305,-1,-18,-16,34,-5,0,-1,5
1499893847959333,11,63,2,-87,10,3,2,3
1499893847959333,-9,-82,-17,13,-17,-1,-2,-2
1499893847960305,1,55,9,10,28,-8,-7,-13
1499893847960305,-3,-40,-13,-15,-4,3,6,5
1499893847982341,-13,-3,2,22,-1,-3,-9,-26
1499893847982341,18,35,-13,1,-12,-2,3,6
1499893847983293,-26,-60,-10,-12,-14,-7,-1,-25
1499893847983293,-6,52,4,-19,10,3,-7,-2
1499893848005339,2,-66,-16,12,1,-1,2,32
1499893848005339,3,-3,4,-8,-5,-5,-7,-14
1499893848006297,-13,-21,-21,-1,4,6,3,-12
1499893848006297,-1,19,12,-7,-7,-6,3,14
1499893848018334,-4,-54,-3,-1,-5,2,1,-19
1499893848018334,-12,32,-8,1,-7,-2,-4,-20
1499893848027306,14,42,7,14,-4,-1,-4,18
1499893848027306,-7,-52,0,-25,3,-5,-2,-20
1499893848042362,-8,30,-9,-6,-11,1,3,16
1499893848042362,23,87,35,11,-7,1,-1,2
1499893848043310,-2,-80,-12,15,11,-1,-3,1
1499893848043310,-29,-44,-3,-4,21,-1,-7,-12
1499893848065367,22,67,14,3,-15,-7,-9,-14
1499893848065367,-6,1,3,-24,-13,11,6,3
1499893848066303,11,14,-6,17,16,-2,2,-1
1499893848066303,0,-24,-10,-11,-11,-2,4,13
1499893848087363,4,-2,9,23,3,-3,-9,-29
1499893848087363,-15,-17,-21,-12,1,-1,2,6
1499893848088307,-1,10,-2,-30,-25,-5,-6,-11
1499893848088307,12,-1,-3,39,15,4,-2,-15
1499893848102368,-10,48,6,-37,12,1,9,30
1499893848102368,-4,-9,-6,8,-3,-7,-7,5
1499893848103300,22,4,1,-11,-18,5,8,-4
1499893848103300,-23,2,-8,21,13,-6,-4,2
1499893848125319,-6,-34,-7,-13,-21,-1,-9,-11
1499893848125319,9,-23,5,9,1,-1,2,12
1499893848126303,-3,43,1,1,15,-1,2,2
1499893848126303,9,4,3,4,-23,1,3,-7
1499893848148380,0,-3,7,-3,4,0,0,17
1499893848148380,4,19,-10,11,-5,-2,-1,-9
1499893848149305,-10,1,8,-17,-28,-6,-4,16
1499893848149305,-1,-63,-7,15,23,2,3,4
1499893848162345,5,86,8,-6,-6,5,4,16
1499893848162345,-2,-62,-2,-10,7,1,2,-30
1499893848163310,0,22,-9,5,-7,-1,-12,-12
1499893848163310,-2,23,-13,-23,19,-2,0,-3
1499893848185379,10,46,10,27,-7,-2,4,22
1499893848185379,-20,-21,-4,-4,-5,-11,-13,-6
1499893848186316,-9,-28,-4,-1,12,6,-8,7
1499893848186316,4,5,-2,-1,-23,-3,1,-2
1499893848199307,5,7,-10,9,9,-5,-1,-10
1499893848199307,-6,53,27,-14,4,0,8,14
1499893848207308,-4,-50,-13,12,-16,-4,-6,-26
1499893848207308,5,22,-6,-5,-6,-2,-6,-6
1499893848222307,-12,-50,-6,1,-2,-2,2,-4
1499893848222307,13,23,3,0,3,3,6,31
1499893848223310,-7,10,-3,-4,7,-3,-5,-14
1499893848223310,-13,-29,16,-1,-15,-3,-10,-30
1499893848245351,-1,1,-18,24,18,0,-1,5
1499893848245351,11,14,-12,-54,-31,0,0,-12
1499893848246311,-14,-2,-1,18,23,0,8,24
1499893848246311,5,16,8,-9,25,4,7,22
1499893848259350,0,51,18,-4,-11,-4,-9,-35
1499893848259350,12,23,-10,14,6,3,2,-2
1499893848267314,-11,-46,-7,-7,-11,-2,-9,-8
1499893848267314,-1,-28,-14,-12,-14,-2,-3,9
1499893848282311,-14,-67,7,15,0,1,3,-2
1499893848282311,7,53,-7,-26,-9,1,8,3
1499893848288355,11,-17,12,9,12,-3,4,18
1499893848288355,5,59,-7,2,-3,2,-6,-14
1499893848305381,4,-21,-8,-12,1,-1,2,14
1499893848305381,-9,-15,5,5,2,-1,-6,-50
1499893848306326,-9,-66,17,16,7,1,8,12
1499893848306326,-6,-25,17,-34,-34,-4,-5,-18
1499893848318348,-3,-23,-14,-9,28,3,4,27
1499893848318348,7,38,-2,10,22,2,-9,-11
1499893848327330,-18,37,-11,0,-12,-8,-1,-5
1499893848327330,0,-16,2,9,-9,-2,4,-10
1499893848342316,9,-7,4,12,-19,-2,2,23
1499893848342316,-11,-29,-15,5,7,-4,-7,-18
1499893848348382,14,38,-6,-14,-9,5,4,25
1499893848348382,-2,36,6,-12,13,3,3,-42
1499893848365386,5,-12,-7,-2,-1,-5,-5,2
1499893848365386,-15,-18,3,11,5,-10,-24,-37
1499893848366318,17,5,-11,-8,-7,0,8,15
1499893848366318,-8,-20,1,4,2,1,-3,5
1499893848387358,8,0,3,0,1,3,0,3
1499893848387358,-3,-12,7,0,-19,3,9,20
1499893848389328,1,-17,-7,19,6,-2,-6,-30
1499893848389328,-1,-14,-3,-6,21,2,7,19
1499893848402338,7,49,7,-3,-7,-8,-11,-7
1499893848402338,-13,-56,-7,-4,-7,-2,-6,-8
1499893848408362,-1,23,9,-12,-5,0,4,-2
1499893848408362,4,19,11,25,-3,-1,2,18
1499893848425324,9,8,-4,8,-1,1,1,-23
1499893848425324,1,3,-4,-4,4,-4,-1,8
1499893848426321,-3,-12,5,0,-12,3,4,1
1499893848426321,-1,-9,-8,10,9,1,-4,1
1499893848447364,-10,-19,-10,-17,-2,0,3,18
1499893848447364,-2,-33,18,19,-21,-5,0,-26
1499893848449323,-3,-35,11,17,42,7,8,28
1499893848449323,0,57,-2,-18,-14,-7,-21,-11
1499893848461334,2,18,3,17,-14,-1,-2,-12
1499893848461334,-1,-9,2,6,20,5,5,11
1499893848470334,11,37,-9,-16,-7,-1,5,20
1499893848470334,-2,-20,10,1,-18,-2,0,4
1499893848485364,1,29,1,-6,7,2,-1,13
1499893848485364,4,7,-18,5,6,0,1,9
1499893848486325,0,-22,-7,-11,5,0,-5,-7
1499893848486325,3,1,-11,12,-6,-2,2,9
1499893848507365,-9,-7,-4,-11,-17,-4,2,-4
1499893848507365,-5,-47,-12,-5,1,-2,2,23
1499893848509339,3,12,11,-7,10,-2,-6,-21
1499893848509339,7,25,-7,6,-9,-2,3,5
1499893848522344,-22,-71,-6,-14,8,2,-7,0
1499893848522344,0,28,13,4,2,-3,2,-1
1499893848528351,6,21,-13,5,-3,1,2,6
1499893848528351,-3,-23,5,-19,-2,0,-6,-22
1499893848545398,2,-12,7,8,-3,-4,2,-2
1499893848545398,-3,29,7,3,-1,1,-3,-23
1499893848546346,-19,15,-23,-16,-11,-4,-6,-15
1499893848546346,16,43,-1,0,-10,2,14,33
1499893848567348,-9,8,0,-1,17,0,-13,-29
1499893848567348,18,-10,-1,5,-10,-5,2,13
1499893848569364,-1,33,15,2,2,-1,-4,-17
1499893848569364,-7,37,4,-7,-2,1,0,8
1499893848581370,-2,-59,-17,-22,-8,0,3,15
1499893848581370,-1,21,12,-2,3,1,2,1
1499893848590341,9,38,-22,4,-13,-1,3,1
1499893848590341,-7,-70,-2,13,12,-3,-16,-6
1499893848605399,14,122,12,10,1,5,3,1
1499893848605399,-9,-90,-19,-28,1,-4,-3,13
1499893848606344,-4,13,20,9,12,-4,-8,-27
1499893848606344,-7,-27,5,-7,-23,1,6,15
1499893848627408,25,66,3,-3,-3,-3,0,-8
1499893848627408,-13,14,-7,19,19,4,-5,0
1499893848629339,2,-9,-2,-15,-19,-1,1,5
1499893848629339,-4,26,8,6,14,-1,4,0
1499893848642347,-6,-55,-1,6,1,-6,-6,-8
1499893848642347,8,14,10,-2,-4,4,8,10
1499893848648393,-10,-53,-17,4,-8,-2,-4,-1
1499893848648393,1,25,-1,2,-8,0,1,-10
1499893848665399,-8,-9,3,6,8,-3,-1,-17
1499893848665399,8,9,3,8,-4,0,3,19
1499893848666344,-11,-18,-14,5,11,0,-4,-17
1499893848666344,-3,-25,-9,-35,-2,4,8,19
1499893848687376,7,-30,-1,5,18,2,-6,-6
1499893848687376,-13,-16,-4,-2,-13,-3,-6,-16
1499893848689348,6,23,16,13,18,3,-1,8
1499893848689348,3,-3,-24,11,0,-2,4,-9
1499893848702353,-6,27,5,-16,-24,-1,4,12
1499893848702353,-6,-1,-4,-19,-14,-2,-3,-32
1499893848708379,7,-39,-9,17,10,1,2,29
1499893848708379,-8,-9,-1,-5,2,-5,-8,-14
1499893848725388,-3,-14,-2,-3,2,3,5,6
1499893848725388,0,4,1,12,-12,-5,-2,-6
1499893848726339,-3,6,12,1,-18,-1,2,15
1499893848726339,18,63,11,2,8,-3,1,11
1499893848747363,-15,-60,-10,-20,-13,1,-9,-23
1499893848747363,-9,-15,-14,-2,21,0,2,25
1499893848749340,-7,-12,3,3,13,-5,-4,-24
1499893848749340,10,18,8,-34,-18,1,2,22
1499893848762355,-7,-1,-5,3,-2,-2,7,8
1499893848762355,2,31,-6,6,16,7,-10,-22
1499893848768380,-5,-24,8,-18,-27,-4,-4,18
1499893848768380,-6,-40,-8,17,5,1,-5,-8
1499893848785394,11,9,6,-2,-6,-1,9,14
1499893848785394,-3,49,17,-6,4,-4,-11,-5
1499893848786341,-2,9,-19,-1,-10,0,1,-5
1499893848786341,2,-25,7,16,6,-2,-4,-10
1499893848807381,-5,13,-14,-4,-6,-5,1,26
1499893848807381,-10,-22,1,-6,7,-2,-10,-70
1499893848809357,5,-7,0,7,-7,1,-1,-3
1499893848809357,-14,0,-4,6,-3,-4,1,6
1499893848822360,8,-29,13,-22,27,8,1,1
1499893848822360,-9,-72,-29,-4,-6,-6,-2,13
1499893848828384,-3,32,14,-7,-9,-2,-7,-8
1499893848828384,6,56,-10,14,7,3,1,-11
1499893848845412,-3,40,27,17,-7,-2,-2,3
1499893848845412,3,-22,-47,-19,-1,-3,3,5
1499893848846343,4,29,13,-9,-11,-5,3,18
1499893848846343,0,-27,-3,14,9,-1,-2,-2
1499893848867344,7,16,7,-1,-3,-3,-3,-14
1499893848867344,-8,-63,-10,18,9,2,5,21
1499893848869345,5,-2,-3,-17,-25,-4,-2,0
1499893848869345,-5,-17,-7,-19,3,-3,-4,-9
1499893848881408,-8,-27,-1,11,6,1,4,-5
1499893848881408,9,14,10,5,-16,-1,2,26
1499893848890360,2,19,-1,2,15,-1,-1,-16
1499893848890360,-2,-18,9,27,5,3,-2,-9
1499893848905415,5,35,-8,-39,-19,-3,-3,-3
1499893848905415,11,22,13,22,30,-3,11,25
1499893848906348,-9,-29,-8,-21,-20,0,0,-21
1499893848906348,-5,-3,1,-18,-5,-3,-14,0
1499893848927417,-3,3,-20,4,12,2,3,2
1499893848927417,4,48,11,9,-23,-5,-3,-10
1499893848929349,3,8,-17,-14,19,0,4,21
1499893848929349,-3,-59,-3,3,-15,-2,10,-6
1499893848941426,-11,12,2,5,-17,1,-14,-19
1499893848941426,-6,-5,8,0,-1,-1,-3,10
1499893848950349,1,12,-3,9,-2,2,-4,-7
1499893848950349,4,26,7,-9,7,3,5,8
1499893848965400,-9,-66,-15,9,4,-3,4,13
1499893848965400,-1,65,13,-7,-9,1,-1,-16
1499893848966353,5,-31,5,7,10,2,2,1
1499893848966353,-15,0,0,1,-1,-8,-9,7
1499893848987395,3,37,3,5,0,-5,0,-7
1499893848987395,7,-27,-8,13,5,5,-1,8
1499893848989352,-8,5,-12,-50,-17,1,-5,-15
1499893848989352,-2,-21,-1,6,9,1,3,17
1499893849001352,5,-5,8,8,-2,-1,2,-9
1499893849001352,-1,22,-3,-8,-8,-4,-3,-1
1499893849010354,3,-18,-1,29,13,0,2,1
1499893849010354,1,11,-5,-14,-8,1,2,3
1499893849025355,-4,-18,-3,-16,-2,3,0,-4
1499893849025355,6,38,12,-3,7,-1,4,5
1499893849026355,-7,-37,-18,-9,-26,-1,-14,-19
1499893849026355,-4,25,-9,13,20,-3,-3,-15
1499893849047404,-1,-32,3,10,1,-2,6,19
1499893849047404,0,3,-4,-6,-13,-3,-8,-9
1499893849049356,5,26,16,-10,0,-3,-1,6
1499893849049356,-3,-6,-4,5,-8,-4,-2,-23
1499893849061363,5,36,-1,1,-6,0,2,4
1499893849061363,-3,-26,0,-5,12,1,-5,-18
1499893849070359,-10,15,-1,17,1,-7,-5,21
1499893849070359,1,-7,1,-8,-17,-3,-6,-26
1499893849085393,3,2,2,8,13,-3,-4,-3
1499893849085393,-11,-13,-1,-1,-2,3,4,1
1499893849086359,13,1,5,2,13,1,6,28
1499893849086359,-3,-33,-12,-10,-12,2,0,-6
1499893849107401,-4,25,-4,7,6,-3,-6,-12
1499893849107401,4,-5,13,1,-1,0,6,19
1499893849109360,1,18,-2,7,1,0,-1,-27
1499893849109360,4,9,14,14,-4,-2,-1,14
1499893849121401,-3,-15,-19,-23,-4,1,-1,-11
1499893849121401,-1,-4,-5,-4,-1,-2,-3,-6
1499893849130373,-4,11,5,-4,14,2,0,3
1499893849130373,9,50,12,9,-20,2,6,26
1499893849145405,2,-52,-23,-3,13,-8,-6,-22
1499893849145405,-12,-32,-2,-20,-2,0,3,12
1499893849146362,-4,-5,1,-4,8,5,0,0
1499893849146362,-6,-17,3,5,0,0,-2,-14
1499893849167362,9,49,2,8,-6,-1,-2,10
1499893849167362,7,18,2,-1,-13,-4,-1,5
1499893849169363,-7,-44,-8,9,0,-3,4,5
1499893849169363,3,-11,-8,-13,8,-3,-6,-8
1499893849181406,-7,9,12,-18,-16,3,-3,1
1499893849181406,-1,-4,-11,-4,0,-2,-3,-15
1499893849190376,5,35,15,7,10,0,10,15
1499893849190376,1,31,6,3,10,-1,-15,-20
1499893849205400,-8,-88,-22,-4,-8,-2,-2,8
1499893849205400,-4,5,-9,4,6,-1,-2,-5
1499893849206366,5,11,8,-7,-12,-2,4,4
1499893849206366,-5,18,-5,-7,-5,0,1,-10
1499893849227369,-3,17,13,14,16,0,-5,-1
1499893849227369,-3,-9,2,-7,-17,0,8,13
1499893849229367,7,-12,-3,29,7,-5,-14,-33
1499893849229367,2,-17,-3,-9,4,3,11,10
1499893849241368,-6,40,-7,7,-9,-3,-12,-7
1499893849241368,1,6,1,2,2,-2,3,1
1499893849250368,-8,-30,0,1,-6,-6,-3,1
1499893849250368,0,1,1,8,6,1,1,6
1499893849265375,4,26,10,-12,-16,3,10,14
1499893849265375,-3,-10,-2,0,10,-2,-12,-29
1499893849266368,-4,20,-2,4,0,0,-8,-3
1499893849266368,-1,-38,-14,-4,4,-2,-2,3
1499893849287370,3,29,23,-7,-9,2,6,3
1499893849287370,-7,-30,-14,1,0,-6,-6,-11
1499893849289371,-8,-11,-2,-31,-13,3,4,18
1499893849289371,-2,2,-1,2,15,-5,-2,-12
1499893849310371,-8,-26,-3,2,-4,0,-3,-13
1499893849310371,2,12,-3,5,-4,-1,-2,-20
1499893849311372,3,-3,-2,15,-6,0,2,3
1499893849311372,2,32,4,-38,-8,0,12,18
1499893849325374,-15,-36,0,22,22,-4,-20,-44
1499893849325374,4,13,-18,-9,-6,-1,-1,20
1499893849326373,-3,10,0,4,-7,-5,-7,-14
1499893849326373,-3,-16,-1,9,-6,-5,-1,2
1499893849347411,-2,-9,-3,-9,-3,0,4,3
1499893849347411,9,11,13,1,1,4,4,18
1499893849349374,-2,32,8,-3,5,0,-1,-40
1499893849349374,-9,-8,-14,4,-11,-3,-5,1
1499893849370408,7,-19,-12,-8,6,0,6,3
1499893849370408,1,27,17,11,-13,0,7,32
1499893849371375,-3,2,-21,-8,15,0,-4,-26
1499893849371375,0,-10,-2,-33,6,1,-7,-21
1499893849385415,-3,0,-4,4,-10,-6,1,7
1499893849385415,-2,3,8,-6,-2,1,-2,-5
1499893849386377,-1,-15,-13,-1,-9,-3,7,16
1499893849386377,2,-2,-8,20,-12,-1,-5,2
1499893849407416,2,19,1,-14,7,-3,0,-5
1499893849407416,-4,-20,3,5,3,1,-5,-10
1499893849409377,-1,-31,7,-6,1,-1,1,15
1499893849409377,-3,1,-1,8,-8,-2,-5,-5
1499893849430444,5,0,4,-4,0,0,4,19
1499893849430444,-6,13,-13,-3,-3,-2,-4,-13
1499893849431389,-1,2,-7,-7,-9,-1,-1,3
1499893849431389,-1,-22,0,2,2,0,1,6
1499893849444423,-4,0,0,10,-4,0,1,-16
1499893849444423,3,2,0,-15,5,-1,3,17
1499893849451418,1,10,-5,-2,1,2,-1,-7
1499893849451418,4,48,21,11,6,1,-3,-8
1499893849467422,-5,-51,-13,2,-20,-4,-1,13
1499893849467422,-2,7,-3,3,6,1,-1,-14
1499893849469383,1,-3,1,-7,-2,1,7,19
1499893849469383,-4,2,8,7,-4,0,0,9
1499893849490444,11,36,-9,-6,6,-1,1,-11
1499893849490444,-6,-17,-3,-1,-4,-1,-3,-7
1499893849491383,0,-26,4,11,7,1,-6,-9
1499893849491383,-3,-1,-9,-13,-2,0,-1,-2
1499893849504443,2,17,7,8,-5,-3,-3,8
1499893849504443,5,12,18,-4,-3,0,0,-14
1499893849511425,-3,-16,-16,0,9,-7,-9,-13
1499893849511425,-3,-8,-12,2,-10,4,1,2
1499893849527424,2,16,1,-34,13,2,8,30
1499893849527424,-2,-26,-2,8,-4,-3,-8,-22
1499893849529385,-1,1,12,9,-11,1,-1,-3
1499893849529385,-1,-11,-11,5,9,0,0,0
1499893849550443,0,51,5,-5,7,-1,2,11
1499893849550443,-11,-55,-14,1,10,0,1,5
1499893849551386,-6,6,-9,-7,-10,-2,-2,1
1499893849551386,-1,-8,-16,-16,-5,-5,0,1
1499893849564450,-2,-9,5,18,-5,1,5,8
1499893849564450,4,43,9,-5,15,-1,-11,-23
1499893849571430,-6,-45,-4,1,0,-1,5,18
1499893849571430,-9,-15,7,8,0,-6,-5,-19
1499893849587429,4,-17,-6,-4,-3,4,-11,4
1499893849587429,-2,7,2,7,-4,-2,1,4
1499893849589398,-2,24,4,-9,-11,2,2,-19
1499893849589398,10,10,5,1,16,1,5,9
1499893849610444,-6,-20,1,13,-11,-7,-4,-11
1499893849610444,2,9,-4,-4,-10,1,0,12
1499893849611398,3,3,2,-14,13,3,-1,6
1499893849611398,-1,-2,9,2,-10,-2,-1,-12
1499893849624428,-3,-25,-16,0,-4,-6,-5,-14
1499893849624428,2,-14,5,0,-6,2,-2,9
1499893849631432,0,31,-7,4,1,-3,-1,13
1499893849631432,2,-6,4,2,1,1,3,7
1499893849648433,1,6,4,8,-1,-2,-4,-6
1499893849648433,-11,-16,-21,-6,6,2,4,2
1499893849650392,-3,-11,7,0,1,-3,0,9
1499893849650392,-1,6,5,1,-2,-3,-3,1
1499893849670459,1,22,4,6,1,-1,1,9
1499893849670459,-2,7,-2,-12,-23,2,4,-4
1499893849672393,8,-3,5,11,20,1,3,7
1499893849672393,-2,-11,-9,5,2,-1,-7,-13
1499893849684431,-4,22,4,11,-7,-4,2,3
1499893849684431,5,6,-1,-8,8,-4,-1,-3
1499893849691403,-3,-11,1,-7,-10,-1,4,28
1499893849691403,4,-4,2,2,10,4,6,-3
1499893849707434,-4,-16,-19,1,-1,1,-1,2
1499893849707434,3,11,12,10,-5,-1,1,5
1499893849709410,-7,34,0,-14,-20,-6,-10,-22
1499893849709410,-2,2,-5,1,6,-4,-4,-4
1499893849730455,-3,-13,3,-1,-1,-2,-5,-8
1499893849730455,3,0,-3,-6,-6,1,3,-9
1499893849731394,1,30,1,1,1,1,-1,2
1499893849731394,-6,-28,0,-9,-7,-1,-1,-8
1499893849744458,-10,-6,-16,-10,-12,-6,3,3
1499893849744458,0,21,3,6,29,1,-14,-30
1499893849751436,0,-11,3,0,-11,-1,-1,4
1499893849751436,2,6,12,46,3,-6,1,22
1499893849767397,-6,-35,-3,-84,-3,7,5,-4
1499893849767397,-8,0,-10,11,-2,-2,-2,-1
1499893849769398,5,0,7,8,2,1,-3,-26
1499893849769398,-5,-26,-26,-28,-13,-2,-2,3
1499893849790417,-4,3,8,26,4,1,2,-4
1499893849790417,3,-9,5,-4,-1,-2,2,7
1499893849791398,-1,7,-8,-3,2,-2,2,19
1499893849791398,5,25,10,0,-4,0,-6,-15
1499893849803432,2,-2,-2,3,1,-3,-2,1
1499893849803432,-5,2,1,-7,-7,-3,1,-10
1499893849812426,5,17,3,4,-4,0,1,-5
1499893849812426,1,23,-2,-11,-4,-1,5,9
1499893849827444,-6,-19,1,5,1,1,-4,-17
1499893849827444,9,14,16,10,5,-3,-3,15
1499893849829402,-3,-26,-20,0,-3,-2,-1,2
1499893849829402,1,31,-8,-12,6,3,-2,-2
1499893849850402,-8,-47,3,-10,-11,2,2,4
1499893849850402,5,21,0,4,-10,-2,-3,0
1499893849852402,0,-1,4,9,-1,-5,-1,0
1499893849852402,-9,-41,-7,-1,4,-3,3,5
1499893849863465,6,29,8,9,3,-3,-3,-10
1499893849863465,-1,-6,3,-2,-3,0,-2,-1
1499893849872430,-9,-31,-7,-8,-5,0,-1,-7
1499893849872430,5,21,5,3,-3,-1,-3,-3
1499893849887446,0,7,0,10,1,0,2,3
1499893849887446,0,9,-3,-7,0,-3,3,23
1499893849889404,-3,-23,-8,-6,-6,-2,-5,-21
1499893849889404,-10,-46,0,11,-1,-2,-5,-40
1499893849910416,-4,6,-9,-20,6,3,-2,3
1499893849910416,0,-11,-4,-15,3,-5,-5,3
1499893849911421,3,40,3,1,8,-1,-4,0
1499893849911421,2,-6,-11,-22,-7,1,6,15
1499893849923408,-4,-46,-3,12,-3,-3,-5,-22
1499893849923408,-4,26,0,3,-6,1,3,-1
1499893849932418,5,29,11,-1,-2,-3,-1,-1
1499893849932418,-4,-37,-13,5,13,2,-1,19
1499893849947474,5,26,6,5,1,-1,-1,1
1499893849947474,-3,-32,-16,-22,-5,0,4,4
1499893849949418,1,-5,10,-2,-2,0,-2,-5
1499893849949418,3,32,5,-3,-14,-2,0,6
1499893849970444,7,-7,-7,-7,2,-3,-1,13
1499893849970444,-5,4,-1,10,2,4,5,2
1499893849971421,-9,-49,-3,6,9,3,-5,-5
1499893849971421,8,18,-12,-19,-9,-1,1,10
1499893849983449,-1,23,6,10,-1,-3,-3,-4
1499893849983449,-1,-16,-1,5,-2,-1,2,11
1499893849992442,-4,4,-5,-11,1,-3,-7,-8
1499893849992442,-3,8,7,17,20,5,0,0
1499893850007454,5,-1,7,3,-11,1,1,3
1499893850007454,1,6,-10,-5,0,-1,0,5
1499893850009427,-7,-8,-5,0,-10,-5,-1,-5
1499893850009427,-6,-31,-1,-8,-7,-2,2,-12
1499893850030455,6,22,11,12,10,-2,-2,15
1499893850030455,-1,-14,-24,-29,-8,4,-5,-15
1499893850031413,5,-2,-2,1,-7,1,8,13
1499893850031413,-4,1,4,-7,0,0,-1,-13
1499893850043453,0,-5,-1,10,-4,-2,-1,-3
1499893850043453,0,-5,1,8,3,-2,-1,1
1499893850052444,-2,5,-4,-4,5,1,1,-2
1499893850052444,2,11,2,-5,-6,2,6,17
1499893850067416,-3,11,-1,-2,1,-4,-8,-12
1499893850067416,-2,-17,5,4,-10,-5,-7,-9
1499893850069416,0,7,-3,0,5,4,6,35
1499893850069416,2,50,15,31,9,0,-7,-77
1499893850090455,-4,-28,-24,-40,-4,-3,-6,2
1499893850090455,-2,-14,0,17,-3,-3,-5,-6
1499893850091419,0,9,-4,-9,1,-2,1,9
1499893850091419,1,-6,-8,-10,-7,-5,-2,11
1499893850103456,5,22,8,12,-3,-2,1,-1
1499893850103456,-8,10,17,11,-3,5,3,-3
1499893850112442,5,5,-2,0,11,0,0,-8
1499893850112442,3,6,-2,3,-6,-1,1,27
1499893850127463,-6,28,9,-3,-4,2,3,-3
1499893850127463,-3,-14,-3,2,13,-7,-6,-2
1499893850129417,-3,-12,1,8,-5,4,1,-8
1499893850129417,-5,-14,-3,-12,-4,-3,-5,-4
1499893850150456,-2,-9,-1,4,0,2,4,14
1499893850150456,13,49,5,-8,-5,-1,3,5
1499893850151422,-16,-35,-4,11,-3,-4,-10,-45
1499893850151422,0,-21,-4,-21,-13,-5,-1,13
1499893850163467,-3,-14,-6,15,20,4,0,-6
1499893850163467,-1,13,-11,1,-4,0,1,4
1499893850172444,5,9,4,-12,-1,-1,-2,-7
1499893850172444,2,5,0,0,-14,1,-4,18
1499893850187466,-2,-14,6,11,9,-2,-2,5
1499893850187466,-7,-16,2,-8,-7,-1,1,-5
1499893850189435,4,-12,-2,30,16,-1,3,11
1499893850189435,-1,-6,-8,-23,-2,0,-6,-8
1499893850210443,0,38,0,-23,-8,-2,-5,-23
1499893850210443,1,-6,-5,-12,-9,-3,-5,13
1499893850211428,0,-5,-3,-13,-9,-1,1,-9
1499893850211428,-5,-2,7,12,-1,-3,1,15
1499893850223493,-3,2,2,6,-1,0,3,-9
1499893850223493,-4,-17,-4,7,9,-1,5,12
1499893850232450,-1,6,-4,-2,-3,-3,-3,-5
1499893850232450,-1,-8,-1,8,10,3,0,-7
1499893850247468,3,3,-1,0,-16,-3,0,6
1499893850247468,-5,-25,-4,4,7,-1,-2,-16
1499893850249442,0,1,-2,-3,-1,0,1,17
1499893850249442,3,17,2,-5,-2,-2,-4,-5
1499893850270444,-3,-47,-11,2,-6,-2,1,3
1499893850270444,-6,9,3,-10,-4,-4,2,7
1499893850271429,0,13,4,-5,1,2,-6,-23
1499893850271429,0,2,2,9,5,0,7,10
1499893850292469,-2,-7,0,-6,-6,-1,-9,-9
1499893850292469,4,16,4,11,2,-2,2,17
1499893850294434,-5,-33,-10,-24,5,-5,2,4
1499893850294434,-6,1,-1,-2,-15,-5,-4,-19
1499893850307473,-1,-8,-5,-21,12,4,4,12
1499893850307473,1,-1,3,2,-3,3,4,2
1499893850309429,2,-2,13,9,0,-5,-9,2
1499893850309429,1,9,-3,0,0,4,1,-3
1499893850330457,-6,-5,-20,-2,-10,-6,-3,-2
1499893850330457,0,-5,-2,-1,5,0,-7,-20
1499893850331431,-1,15,12,2,-1,-4,0,10
1499893850331431,2,-7,-13,-25,-7,-1,1,14
1499893850352497,1,15,8,15,2,3,-2,-17
1499893850352497,1,7,7,3,-12,0,7,-4
1499893850354432,3,15,-11,7,5,1,-8,8
1499893850354432,-8,0,8,-7,-4,-3,-4,4
1499893850367432,4,12,1,9,10,3,3,5
1499893850367432,-8,-19,-10,-4,-1,-3,-5,-3
1499893850369434,6,-7,3,-28,-16,0,7,18
1499893850369434,-1,9,0,8,7,-3,-3,-8
1499893850390451,-7,-22,3,-2,-5,-2,-3,-11
1499893850390451,5,12,9,12,-2,0,3,8
1499893850391434,-1,31,-8,-6,0,1,-5,-16
1499893850391434,-5,-30,-9,1,6,2,2,16
1499893850412500,0,-8,3,-1,4,-2,0,-1
1499893850412500,2,6,6,-3,3,-1,3,-13
1499893850414436,0,-33,-8,-30,-6,0,-1,-1
1499893850414436,-6,-3,-2,6,11,3,-5,1
1499893850426510,2,-4,6,2,-5,-1,2,8
1499893850426510,-10,-6,-2,-8,-12,-2,-4,-1
1499893850433480,-5,-7,-9,5,9,2,4,-1
1499893850433480,5,1,5,12,-6,-8,-5,-23
1499893850450453,3,-9,-9,-8,-6,0,1,5
1499893850450453,-2,-6,1,-11,-3,-3,-2,0
1499893850451447,2,39,23,21,-15,0,6,15
1499893850451447,-4,-91,-41,-4,28,-5,-8,-11
1499893850472437,-4,12,3,7,-7,4,0,-17
1499893850472437,-2,-16,-2,-2,-1,2,-1,-2
1499893850474440,-2,14,4,-3,-2,-2,-5,-10
1499893850474440,3,9,14,19,-14,-3,3,7
1499893850486488,-6,7,-2,-8,5,-3,-4,4
1499893850486488,10,29,2,1,-5,0,-3,-1
1499893850493479,-2,-32,-15,11,11,3,4,3
1499893850493479,1,2,8,-13,-1,-1,1,2
1499893850510456,6,-1,-8,-3,-8,-2,-3,7
1499893850510456,-8,11,3,9,6,-1,-2,-4
1499893850511442,2,-12,-9,-19,-10,-1,5,7
1499893850511442,0,35,10,5,1,0,-5,-6
1499893850532505,-5,-12,-2,1,8,-2,0,12
1499893850532505,1,-5,-2,1,0,-1,-1,-22
1499893850534443,-7,-39,-4,-15,-6,0,-3,1
1499893850534443,-4,23,7,0,1,2,0,-5
1499893850546502,-1,-23,-7,8,-13,-10,1,20
1499893850546502,-2,1,-5,-5,20,2,-8,-25
1499893850553480,3,20,3,-2,-11,1,-1,-5
1499893850553480,-1,3,3,-1,-8,1,3,1
1499893850570464,-2,7,12,3,5,0,1,18
1499893850570464,1,-37,-18,3,-7,-5,-8,0
1499893850571445,-4,6,-3,11,4,-1,-2,-12
1499893850571445,4,-2,-6,6,3,4,3,8
1499893850592514,-1,5,1,-4,-1,1,0,-24
1499893850592514,3,-2,4,-3,4,-1,-3,23
1499893850594444,-1,-4,-4,1,-12,-3,-2,-4
1499893850594444,-4,8,4,10,-1,-3,0,3
1499893850606515,1,9,-3,-26,-6,0,4,-1
1499893850606515,2,15,4,3,10,1,0,-2
1499893850613491,-1,-2,-1,7,-5,-6,-3,31
1499893850613491,-1,-1,-6,2,-7,-4,-1,-23
1499893850630463,4,12,-2,-3,3,0,-1,19
1499893850630463,-7,14,1,2,-8,0,0,-14
1499893850631448,0,-7,-10,-17,-4,-4,-4,-10
1499893850631448,-1,-4,5,-2,-4,-1,-1,8
1499893850652519,-3,6,0,6,-10,-3,-3,-10
1499893850652519,6,6,-1,-6,-2,-2,3,11
1499893850654448,-4,9,6,25,23,3,0,-3
1499893850654448,-2,-36,-11,-5,-21,-8,-9,-28
1499893850667450,-6,-37,-9,-13,26,7,1,1
1499893850667450,-5,-11,-5,-19,-13,-3,-8,-16
1499893850673491,1,11,13,6,8,4,2,-1
1499893850673491,-2,11,-2,-13,-6,-3,0,-1
1499893850690460,5,2,-4,17,-5,-7,-7,-8
1499893850690460,-5,-29,0,-2,-6,4,3,11
1499893850691450,-5,14,-3,-9,2,-2,0,-5
1499893850691450,5,11,7,-6,-2,2,2,19
1499893850712519,-3,7,-6,1,-9,-4,-6,-38
1499893850712519,-2,1,1,9,7,0,10,12
1499893850714453,-3,10,3,-5,-4,-4,-10,-26
1499893850714453,2,-5,3,-7,-9,0,-7,19
1499893850726523,-7,-4,0,3,5,-1,0,8
1499893850726523,-4,-19,-6,5,-5,0,-1,-2
1499893850733492,1,18,8,-11,1,-1,5,2
1499893850733492,1,0,-12,-5,-3,2,4,1
1499893850750469,1,18,7,14,3,-2,-1,-3
1499893850750469,1,-17,-12,-15,-5,-4,-3,23
1499893850751456,-7,-2,8,8,-22,-3,-3,-32
1499893850751456,2,13,-4,5,32,1,0,2
1499893850772517,2,23,-1,7,-9,0,-2,3
1499893850772517,-1,19,2,-7,7,3,4,-26
1499893850774456,2,-26,-12,-7,-4,-3,-7,5
1499893850774456,-4,7,4,-6,4,1,1,-7
1499893850786506,0,-7,3,8,-1,-2,2,13
1499893850786506,2,16,-1,-2,-2,1,2,-11
1499893850795466,-5,0,-3,0,-8,-3,-3,-3
1499893850795466,-4,-32,-8,7,5,-2,-3,-20
1499893850810473,4,3,-6,-6,-14,2,7,19
1499893850810473,2,21,0,-12,8,-3,-10,11
1499893850811459,1,-21,-2,12,17,-1,3,10
1499893850811459,2,11,5,0,-5,2,4,16
1499893850832502,-8,-13,6,-17,1,4,-1,-33
1499893850832502,-4,-31,-4,12,8,0,5,12
1499893850834461,4,19,-3,4,-8,-1,-2,-10
1499893850834461,3,23,7,-6,2,-2,-2,17
1499893850846531,-7,-44,-10,8,0,-5,-4,-19
1499893850846531,2,28,11,-8,-2,6,4,-10
1499893850855460,2,-67,-13,-27,0,-1,-5,17
1499893850855460,-2,13,-4,0,-10,-5,1,10
1499893850870479,-1,-2,9,1,-1,-2,-4,-9
1499893850870479,-3,-4,0,5,4,-2,-3,-2
1499893850871462,6,18,5,0,-2,2,6,10
1499893850871462,-6,-13,-5,-10,-9,-4,-3,-7
1499893850892504,-9,-21,-1,2,5,1,-6,-6
1499893850892504,2,-4,-1,5,-5,2,3,5
1499893850894464,0,45,1,1,13,1,-6,-10
1499893850894464,-3,-4,0,2,-8,-3,0,5
1499893850906510,5,42,4,-5,-8,-6,0,-1
1499893850906510,0,-42,-9,3,3,-4,-4,1
1499893850915477,6,12,8,0,-9,3,8,18
1499893850915477,-6,6,-1,0,-7,-2,-4,-6
1499893850930480,0,-10,-4,8,16,2,-4,-2
1499893850930480,2,28,-8,-14,-22,-5,-2,1
1499893850931464,-1,4,-3,15,11,1,0,-3
1499893850931464,0,2,3,-11,4,1,3,-1
1499893850952539,4,34,5,7,-4,0,1,4
1499893850952539,-9,-66,-14,-5,1,-1,-7,-9
1499893850954467,-2,5,5,-5,-6,-3,6,11
1499893850954467,-2,-12,-14,7,5,-1,4,-2
1499893850975481,6,22,5,5,-8,0,-7,17
1499893850975481,-1,11,1,3,-2,-6,0,-11
1499893850976480,-4,11,6,7,3,0,-5,9
1499893850976480,-6,-36,-9,-9,1,6,-3,-32
1499893850990525,1,-8,-3,1,-11,-6,-3,-8
1499893850990525,-2,5,5,9,5,0,1,22
1499893850992471,-4,11,2,-16,6,-1,-8,-1
1499893850992471,1,20,6,7,-14,-1,-2,0
1499893851012511,-1,-28,-15,-11,17,-3,8,11
1499893851012511,-5,2,4,1,-13,-2,-17,-23
1499893851014472,2,18,1,12,-3,-3,3,-2
1499893851014472,3,7,-2,1,14,3,7,15
1499893851035492,-9,-26,-5,-9,0,-1,-11,-39
1499893851035492,7,38,14,2,-3,-2,4,10
1499893851036477,-5,-12,-9,8,-3,1,0,-3
1499893851036477,5,-1,-3,-2,-1,-3,-1,15
1499893851050488,-2,9,2,-5,5,2,4,10
1499893851050488,-2,-2,5,22,7,1,-2,-12
1499893851051472,0,-12,-5,-28,-21,0,0,-8
1499893851051472,5,24,-3,8,8,0,-1,-6
1499893851072515,3,-43,1,-21,-12,-2,3,22
1499893851072515,-12,5,-10,-12,2,-1,-1,-25
1499893851074474,0,10,4,13,-2,-4,1,11
1499893851074474,-5,-13,12,14,7,-1,-3,-10
1499893851086514,2,21,-13,-17,1,-2,0,-12
1499893851086514,1,-17,1,3,-17,-3,6,19
1499893851095475,-2,-22,-3,1,9,-1,2,4
1499893851095475,-7,-18,-4,-5,2,0,-1,-14
1499893851110474,4,38,6,7,-10,-4,-3,1
1499893851110474,0,-18,1,18,10,4,3,19
1499893851111473,2,14,-4,-11,-1,1,0,-18
1499893851111473,-1,2,-9,-8,-8,-6,-6,-6
1499893851132475,-1,-36,-3,3,-4,0,4,5
1499893851132475,-4,-13,-9,-10,-12,-2,5,12
1499893851138515,5,21,6,23,17,2,-8,3
1499893851138515,-5,-6,5,-5,-5,-3,-1,15
1499893851146543,-2,-16,0,2,-5,-2,2,-14
1499893851146543,-1,19,-7,2,8,-1,1,0
1499893851155491,-5,18,0,-3,-11,0,4,-7
1499893851155491,0,-12,8,6,-4,-6,-5,1
1499893851170496,-2,3,-2,-24,2,3,3,9
1499893851170496,-1,-17,-5,5,1,-4,-16,-14
1499893851171480,6,33,2,-3,-8,1,6,15
1499893851171480,-2,-4,1,-4,-8,-4,-9,-39
1499893851192531,0,-3,7,1,1,-1,2,24
1499893851192531,0,27,3,-9,0,-3,-7,-20
1499893851194483,3,-10,-12,-5,2,1,5,18
1499893851194483,1,33,-1,-2,-7,0,0,-5
1499893851215492,-7,-58,-1,19,11,1,-3,-2
1499893851215492,-2,18,2,-12,-13,-1,2,-1
1499893851216492,0,-27,5,11,12,-3,-2,-8
1499893851216492,1,18,0,-8,-3,3,2,9
1499893851230482,-1,16,-6,7,-6,-2,-4,-13
1499893851230482,2,-21,2,0,4,1,4,11
1499893851231489,-2,-17,-7,-5,2,-6,-4,-6
1499893851231489,-1,-2,4,-24,-12,-2,-6,14
1499893851252549,1,12,5,9,4,-1,4,6
1499893851252549,-1,-21,-6,15,8,-5,-10,-8
1499893851254483,-7,-8,3,-9,-12,2,1,-6
1499893851254483,7,11,3,3,6,0,1,-2
1499893851275485,-4,-1,-5,-4,-3,-2,-2,20
1499893851275485,-1,-36,-2,-6,-7,2,4,6
1499893851276483,-6,-20,-5,-1,5,-1,-2,-7
1499893851276483,-12,-53,-6,15,-4,-2,1,1
1499893851288495,-6,7,-2,-25,18,1,-2,-8
1499893851288495,7,58,5,-20,-25,-4,1,-8
1499893851297515,-4,-28,-10,3,10,4,-9,4
1499893851297515,6,9,11,12,2,3,10,18
1499893851312529,-3,-24,-11,8,-6,-7,-13,-33
1499893851312529,-8,28,-7,-13,3,1,4,-20
1499893851314487,-4,-5,1,-4,-8,-4,-5,-9
1499893851314487,17,91,12,-1,-11,-4,-7,-11
1499893851335511,-16,-30,-16,9,21,2,0,-5
1499893851335511,11,2,11,9,7,1,3,18
1499893851336489,-18,-78,-23,-10,-24,-7,-2,-14
1499893851336489,0,-24,-4,-23,-3,1,1,-8
1499893851349511,15,62,10,11,12,2,2,15
1499893851349511,-11,-31,-8,6,5,0,-4,8
1499893851356539,5,48,12,-2,3,0,4,-26
1499893851356539,-1,20,-3,1,-5,0,2,45
1499893851372539,-1,13,-5,-20,-16,-7,-15,-79
1499893851372539,1,-9,-12,-1,2,3,1,3
1499893851374492,2,2,15,9,2,-1,-5,-5
1499893851374492,-14,-32,-17,9,-2,-3,6,9
1499893851395511,11,88,4,1,-17,-2,1,20
1499893851395511,-10,-83,-6,-22,14,4,-11,-20
1499893851396493,1,-38,-10,6,-3,1,-1,2
1499893851396493,-4,-18,0,2,-9,-2,-5,-20
1499893851409530,-3,15,4,1,13,-2,3,19
1499893851409530,7,45,11,12,-6,-5,1,11
1499893851417495,-4,4,-2,-10,-10,1,4,5
1499893851417495,2,-41,-1,11,7,-1,-7,-12
1499893851432534,-3,-5,4,3,-5,0,4,23
1499893851432534,3,42,6,1,2,-2,-2,-14
1499893851434494,1,-4,-2,5,-7,-3,0,8
1499893851434494,-6,-57,-13,-15,7,-1,2,-2
1499893851455503,-8,2,10,7,-14,2,-1,-9
1499893851455503,5,25,-1,-22,-2,-1,-6,9
1499893851456494,3,4,-2,4,-6,-4,-3,7
1499893851456494,0,48,1,-13,-2,2,-3,-24
1499893851469534,-4,-52,-4,4,5,0,0,17
1499893851469534,-5,-12,-6,12,1,0,10,5
1499893851476570,-2,24,0,-3,0,0,-10,-23
1499893851476570,7,13,-2,4,1,-3,5,22
1499893851492505,-11,-24,-5,-3,6,1,-15,-41
1499893851492505,-2,0,6,4,-8,-3,-1,-1
1499893851494499,3,2,-11,2,5,-4,0,2
1499893851494499,0,10,1,-12,12,-1,-1,2
1499893851515509,5,-21,0,11,-13,-1,5,17
1499893851515509,3,-5,-1,0,11,3,2,1
1499893851516499,-6,-33,-10,-6,-11,-3,-5,-6
1499893851516499,-10,5,2,13,15,-7,-3,10
1499893851529538,10,23,3,-7,-11,3,1,-21
1499893851529538,-8,-15,0,-1,4,-1,2,4
1499893851536540,7,26,8,-1,2,9,5,6
1499893851536540,-7,5,-7,3,-9,-3,1,8
1499893851552507,0,1,-4,-17,-2,-5,-6,-13
1499893851552507,7,12,6,18,-8,-2,4,2
1499893851554500,1,25,8,-5,-10,-4,-5,-17
1499893851554500,-14,-70,-12,-24,31,6,-4,-4
1499893851575513,7,12,4,-1,-3,-2,6,24
1499893851575513,-4,-16,-7,-2,-4,3,-1,-7
1499893851576503,-3,-26,3,2,-3,-4,-5,-9
1499893851576503,7,40,5,12,-1,2,-2,-12
1499893851589541,-2,-2,1,-2,4,0,1,5
1499893851589541,13,30,2,-5,-5,0,6,18
1499893851596506,-11,-29,2,4,8,-1,1,13
1499893851596506,-6,2,3,-1,-11,-3,-2,-13
1499893851612545,-1,6,-5,6,6,-1,0,-13
1499893851612545,-4,4,0,-23,-8,1,-2,4
1499893851614503,1,6,0,5,-6,-2,-1,-9
1499893851614503,4,3,0,8,-3,-1,3,12
1499893851635534,-7,-37,-7,-13,-9,-2,-6,0
1499893851635534,1,17,1,5,-2,-3,-3,-7
1499893851636506,4,19,4,-11,13,1,3,11
1499893851636506,-9,-34,-2,12,-8,4,1,-9
1499893851649545,8,41,-5,-5,1,-1,6,15
1499893851649545,-10,-42,-11,1,-13,-3,-13,-8
1499893851656570,1,14,2,-1,12,-5,1,-5
1499893851656570,4,-1,-2,-7,1,2,0,-11
1499893851672577,1,25,9,1,-3,3,9,31
1499893851672577,-10,-29,-14,-3,0,-6,-9,-49
1499893851674510,6,35,4,4,4,0,-1,13
1499893851674510,1,-11,0,-10,-2,-1,0,2
1499893851695521,-1,5,0,0,0,1,1,-7
1499893851695521,3,45,11,4,-1,-3,-1,7
1499893851696510,-9,-39,-13,12,3,0,3,24
1499893851696510,0,16,-1,10,8,-6,-5,-10
1499893851717512,1,-11,-5,-13,-8,1,0,9
1499893851717512,0,19,11,3,-4,-4,1,16
1499893851719514,-1,-9,-7,-1,2,1,-4,-25
1499893851719514,-3,-34,-10,1,-4,-2,-3,-1
1499893851732554,-2,4,-1,11,-7,-5,1,-3
1499893851732554,3,-12,-5,-10,15,4,-6,-2
1499893851734514,-2,13,-4,-4,-6,1,1,3
1499893851734514,4,12,5,-1,-8,-6,-3,1
1499893851755513,3,-4,-6,1,-5,2,5,8
1499893851755513,-3,-16,-2,-6,6,-4,-4,-5
1499893851756512,-1,10,2,-2,-10,3,8,-4
1499893851756512,4,-16,6,0,-6,0,-4,4
1499893851768521,-2,11,1,-3,-7,-3,0,-1
1499893851768521,-5,-6,-14,5,1,-1,1,1
1499893851777551,-1,2,3,-10,6,-1,-1,-1
1499893851777551,2,11,-7,-17,-16,-1,1,5
1499893851792557,-2,-6,3,5,13,0,-4,-10
1499893851792557,4,-2,-2,0,-1,2,7,8
1499893851794514,-5,-8,3,-2,-8,-5,-2,21
1499893851794514,6,52,5,0,1,-1,-10,-35
1499893851815527,-6,-36,-4,18,-1,-2,-5,12
1499893851815527,-3,-2,-1,-24,17,4,1,-5
1499893851816533,6,6,2,1,-6,-2,2,5
1499893851816533,0,3,10,4,-8,-4,2,1
1499893851828542,-4,-4,-6,-16,5,4,1,-3
1499893851828542,1,1,-3,9,-16,-8,-4,-3
1499893851837530,2,20,1,2,8,3,-1,1
1499893851837530,-6,-19,-15,-20,2,1,2,7
1499893851852585,3,9,5,3,-9,-4,-5,1
1499893851852585,-4,-20,-2,5,10,0,-2,-31
1499893851854518,0,5,4,-8,3,-2,-2,-4
1499893851854518,1,19,7,8,6,2,-1,-10
1499893851875534,-3,-2,-5,-1,-1,-2,0,2
1499893851875534,1,1,3,7,-4,4,8,19
1499893851876530,2,-6,-5,5,-6,-2,-6,-11
1499893851876530,-5,-17,-1,0,-3,-2,0,9
1499893851888564,-1,5,2,3,5,0,-4,-36
1499893851888564,4,-8,-2,-12,-9,0,3,10
1499893851897524,-5,2,-2,5,11,1,4,4
1499893851897524,-1,-7,-11,0,-7,0,-2,2
1499893851912581,-1,1,0,-9,3,-3,-5,-5
1499893851912581,1,11,6,13,5,1,0,5
1499893851914521,-7,-55,-12,-7,-9,-4,-1,6
1499893851914521,1,18,1,-4,-9,-3,1,-2
1499893851935550,-3,-39,-5,-4,7,2,-8,-11
1499893851935550,-5,4,-4,5,0,-1,-5,-8
1499893851936524,7,14,10,-6,2,3,3,17
1499893851936524,-6,-24,-1,-5,1,0,-2,-7
1499893851948588,-2,-6,-4,4,-8,-5,1,5
1499893851948588,-3,-7,4,1,6,-1,-4,5
1499893851957533,-2,-1,-6,-2,-5,-1,0,-10
1499893851957533,-2,12,3,6,-4,-4,2,8
1499893851972599,3,8,2,-5,-6,-1,2,-5
1499893851972599,-3,-13,-7,-5,-3,-3,-5,0
1499893851974525,0,13,10,18,8,0,-5,2
1499893851974525,-2,-23,-10,-12,-6,1,-2,-5
1499893851995536,4,14,5,-4,5,-2,2,17
1499893851995536,1,5,3,4,-6,2,2,4
1499893851996536,-4,-4,-4,-2,-7,-4,-6,-14
1499893851996536,-1,9,-2,0,6,-2,0,13
1499893852008591,1,3,3,-4,-5,-2,0,-23
1499893852008591,-8,-39,-16,-2,-6,-4,-4,-8
1499893852017528,-3,-13,-6,-7,-3,-1,-2,-6
1499893852017528,0,0,2,-3,3,3,2,7
1499893852032527,2,11,-2,5,-7,-1,1,10
1499893852032527,5,16,4,-5,10,1,0,-4
1499893852034528,0,7,-4,-7,-15,-6,-1,-1
1499893852034528,-5,-10,-4,7,7,1,4,-4
1499893852055542,-3,9,5,15,9,3,-3,13
1499893852055542,-4,-27,-15,-37,-8,-3,-2,-24
1499893852056532,5,1,-1,0,3,-3,2,15
1499893852056532,2,15,4,11,-10,-5,-4,-14
1499893852068578,0,-6,-1,-5,3,4,0,4
1499893852068578,0,19,4,8,-7,-2,-1,6
1499893852077571,-1,-2,1,1,4,0,2,2
1499893852077571,6,35,3,4,4,1,0,12
1499893852092538,-14,-55,-16,-2,-4,-2,-10,-40
1499893852092538,1,15,11,-7,4,-2,-2,11
1499893852094532,0,2,-2,-7,-17,2,0,-11
1499893852094532,0,17,5,22,17,0,2,12
1499893852115562,6,16,2,11,-3,-2,3,17
1499893852115562,1,27,2,-24,-1,0,-4,0
1499893852116533,-8,-43,-7,-3,-2,1,-7,-22
1499893852116533,-2,-3,2,2,-1,-2,-5,-15
1499893852137578,4,12,5,-10,-16,-1,5,18
1499893852137578,-4,-19,-4,16,4,-2,0,-2
1499893852139534,0,19,6,17,6,-2,-2,7
1499893852139534,-2,-16,-9,-43,-19,-1,-2,5
1499893852152601,-2,8,-3,1,10,3,0,-17
1499893852152601,0,8,1,13,-25,-4,-2,14
1499893852154536,0,13,-5,-8,21,-2,-3,-15
1499893852154536,0,-12,2,14,-7,-3,-1,-8
1499893852175570,-8,-6,-6,-23,-1,-5,-6,4
1499893852175570,4,14,5,6,4,0,4,5
1499893852176537,-5,-12,-9,-7,-9,2,1,-1
1499893852176537,1,-6,-4,0,-2,-1,1,1
1499893852197579,0,7,1,-1,-2,-3,-6,4
1499893852197579,0,-4,-3,5,-2,-1,-1,-6
1499893852199538,6,19,7,14,9,-5,-4,2
1499893852199538,-4,-29,-14,-15,-3,3,6,5
1499893852212580,-7,-19,-3,2,-1,-2,-1,-24
1499893852212580,-3,-9,-2,-3,-7,-3,0,-3
1499893852214545,2,23,0,-9,-7,-1,0,6
1499893852214545,0,11,4,9,17,2,0,-3
1499893852235567,0,-10,-4,16,6,-2,0,0
1499893852235567,-4,-16,-4,-12,-13,-3,-3,-1
1499893852236542,-5,1,-1,-2,5,2,5,4
1499893852236542,0,13,5,2,-11,-6,-10,-31
1499893852257581,0,-9,-7,-11,15,8,3,9
1499893852257581,2,-22,-8,-3,-1,-4,0,3
1499893852259542,-6,-5,-2,-3,-6,-1,-1,10
1499893852259542,1,-16,0,-2,-3,-4,-1,8
1499893852272604,-4,13,-3,-4,0,-1,-4,-22
1499893852272604,1,6,2,-7,-5,2,2,1
1499893852274542,1,-10,0,7,-4,1,0,-6
1499893852274542,-4,-3,-4,1,0,-1,1,16
1499893852295572,6,31,5,3,-7,-4,-4,11
1499893852295572,-7,-35,-5,4,0,-4,-5,-13
1499893852296546,1,-8,2,-11,-4,1,-2,0
1499893852296546,-5,4,0,15,12,1,0,-7
1499893852317545,1,0,-3,-12,5,1,-2,17
1499893852317545,0,13,-2,4,-5,1,1,3
1499893852319545,3,20,3,11,6,-5,-5,-8
1499893852319545,0,-15,8,-28,-10,5,1,7
1499893852331545,-5,10,-5,-5,0,-3,4,-6
1499893852331545,-1,0,-8,11,7,-1,-3,4
1499893852338587,-3,-16,1,-4,-4,-6,-1,10
1499893852338587,2,32,-3,-14,-12,5,-1,-11
1499893852355569,2,7,6,10,-5,-4,2,0
1499893852355569,1,1,4,-6,-5,-1,-3,-3
1499893852356550,-2,-4,0,-2,6,3,-1,-8
1499893852356550,-6,7,-6,8,-3,-1,1,9
1499893852377591,1,-11,-2,-14,-9,-2,0,-3
1499893852377591,-3,1,3,8,13,-1,-5,-7
1499893852379552,-2,-3,-2,1,-9,-1,0,4
1499893852379552,6,45,3,5,5,-6,-4,-8
1499893852391591,-9,-64,-13,-4,-15,0,3,18
1499893852391591,4,16,6,13,14,-2,2,0
1499893852398592,-6,-2,0,-6,-5,2,-5,1
1499893852398592,-3,-15,-6,0,0,-5,0,-20
1499893852415550,2,9,3,13,-6,-3,-3,5
1499893852415550,1,11,-1,-22,1,3,3,-3
1499893852416559,4,9,-4,-2,0,0,-2,-3
1499893852416559,-3,-23,0,11,-2,2,-2,5
1499893852437596,-4,10,5,-6,-2,-1,-1,-11
1499893852437596,-1,8,-1,2,-3,1,1,-10
1499893852439552,-2,-4,1,-8,2,-5,-3,-7
1499893852439552,6,24,5,-3,2,-3,4,20
1499893852451590,-4,-29,-8,7,5,0,-10,-24
1499893852451590,3,3,4,-6,-12,2,3,13
1499893852458617,-3,-14,-5,-5,1,1,4,1
1499893852458617,-2,4,7,5,-1,-2,-3,-7
1499893852475571,5,11,0,11,0,-1,3,17
1499893852475571,0,-1,-7,-8,4,5,0,-8
1499893852476584,-1,-30,-3,0,-10,-4,-2,-10
1499893852476584,-1,-1,-2,-21,2,1,-2,24
1499893852497597,1,0,4,17,10,-1,3,-32
1499893852497597,-7,-7,-2,2,-10,-3,-6,-10
1499893852499556,-3,-6,-12,-6,20,3,3,8
1499893852499556,-3,-4,-3,-2,-6,-5,-6,-16
1499893852511599,0,-4,5,1,-7,-1,-3,9
1499893852511599,1,9,2,-11,-4,-3,0,2
1499893852518611,-2,10,3,2,-8,-2,1,-2
1499893852518611,-2,-26,-7,3,0,1,1,-4
1499893852535585,-1,11,0,-9,-1,0,2,17
1499893852535585,-4,-7,-8,4,-1,-4,-2,-29
1499893852536559,4,18,5,9,2,2,0,18
1499893852536559,-5,-14,-2,0,-2,1,0,-6
1499893852557601,0,7,1,-7,-1,-2,0,6
1499893852557601,0,-2,-1,-15,-6,0,-1,2
1499893852559561,0,-1,2,4,-4,0,-2,-9
1499893852559561,1,-1,-1,-3,9,-1,-1,-2
1499893852571602,-5,-11,-5,4,8,5,1,-5
1499893852571602,2,11,-1,7,3,-5,0,7
1499893852578633,2,-6,-14,-5,-7,-6,-5,-6
1499893852578633,-2,-22,-1,0,-1,-1,-1,-4
1499893852594626,5,13,-3,-5,-6,1,-1,27
1499893852594626,-4,-4,3,4,7,-1,5,-29
1499893852596563,-4,2,-1,2,2,-2,-12,-16
1499893852596563,-1,5,-1,5,-9,-4,-2,-7
1499893852617562,0,-2,1,-8,-6,-4,3,9
1499893852617562,3,-1,-4,-17,-1,3,0,28
1499893852619571,-2,-1,-2,-13,1,-3,0,10
1499893852619571,-2,-6,2,8,2,-3,-3,-21
1499893852631573,-4,17,4,-2,-11,-4,-7,-18
1499893852631573,2,3,-2,14,3,1,1,6
1499893852640563,-7,3,0,-14,-7,-2,1,-5
1499893852640563,0,-26,-5,-4,-5,-1,-8,10
1499893852654623,4,13,1,3,1,1,3,-1
1499893852654623,-1,8,4,12,13,-1,-1,0
1499893852656574,2,-4,0,-1,-7,0,3,9
1499893852656574,2,25,3,11,6,0,4,8
1499893852677565,-4,-10,-5,-16,-6,0,-2,-8
1499893852677565,-4,-28,-4,4,4,-1,-2,-4
1499893852679566,0,4,4,0,-11,-2,-1,-2
1499893852679566,-1,-11,-2,0,4,1,-3,-7
1499893852691577,1,1,-4,-5,8,-3,0,7
1499893852691577,-2,0,1,-22,-9,-2,0,5
1499893852700567,2,4,1,11,-4,-1,1,2
1499893852700567,3,13,4,-4,-7,-2,7,20
1499893852714583,-6,-45,-12,9,7,-4,-9,-16
1499893852714583,0,10,0,4,-10,4,0,13
1499893852722567,-4,-7,-1,4,10,0,-2,-27
1499893852722567,0,18,1,-5,4,-3,-2,9
1499893852737614,0,0,1,2,-7,-4,1,8
1499893852737614,-4,1,-1,6,-3,-1,-4,-14
1499893852739571,3,3,2,10,3,0,-5,-5
1499893852739571,2,31,-8,-4,-12,-1,-1,4
1499893852751581,-5,-13,-5,5,17,-3,-1,-15
1499893852751581,0,-1,2,6,-5,-3,1,-4
1499893852760572,2,0,1,-1,-1,1,-1,21
1499893852760572,-6,-7,-12,-2,-1,-1,-6,-45
1499893852774635,1,-2,-1,-4,-6,-2,-1,14
1499893852774635,-2,7,0,20,4,0,0,-5
1499893852776604,1,-15,-3,-3,4,2,-2,-6
1499893852776604,2,-8,4,-9,2,-2,1,17
1499893852797630,-3,7,-7,-23,-38,2,-2,-13
1499893852797630,-4,-14,1,-2,42,-4,-1,3
1499893852799573,-2,13,2,13,-15,-1,4,5
1499893852799573,-1,-24,-3,-11,22,3,-2,1
1499893852811584,-1,-4,4,-9,-4,0,1,4
1499893852811584,-1,-2,-1,2,-9,-2,-3,-13
1499893852826574,-1,8,0,-5,0,-1,2,6
1499893852826574,-1,-9,0,12,2,-1,1,-2
1499893852834575,3,24,10,5,-4,-1,1,4
1499893852834575,2,-51,-9,4,-4,-4,1,17
1499893852836574,-9,-17,-4,-25,-6,0,2,-19
1499893852836574,2,13,2,7,2,1,6,24
