timestamp,emg1,emg2,emg3,emg4,emg5,emg6,emg7,emg8
1499875903882879,-28,16,-11,10,-14,-14,-16,-26
1499875903882879,45,41,26,48,-5,-1,-14,115
1499875903883878,-13,-9,-15,-92,-13,-7,23,-44
1499875903883878,-4,-48,-7,-1,-4,-1,15,-7
1499875903905878,2,16,21,0,0,-4,-4,-41
1499875903905878,-37,-100,-1,-42,12,1,-3,-16
1499875903906879,3,19,-19,66,-18,-8,-22,16
1499875903906879,6,27,-1,-24,-5,-1,0,10
1499875903919879,-1,8,2,-14,-1,-2,2,-7
1499875903919879,12,-8,-15,8,8,1,1,-12
1499875903927883,12,10,5,-28,-8,4,-1,6
1499875903927883,-16,-5,7,2,-4,-2,4,24
1499875903942880,-1,-49,-38,-57,0,4,3,20
1499875903942880,2,32,22,24,1,-4,-1,-16
1499875903943881,-4,-11,13,-58,4,2,1,-10
1499875903943881,10,-6,-24,78,-5,-4,-10,24
1499875903964882,-8,36,7,-27,-3,-1,2,17
1499875903964882,-23,-40,-5,9,3,2,2,-6
1499875903965885,-4,0,-11,0,2,2,3,2
1499875903965885,5,36,25,-50,4,5,3,-6
1499875903979888,17,46,0,39,8,-5,-14,-20
1499875903979888,-10,-67,-43,-10,3,-7,5,-8
1499875903987882,4,68,16,-14,-9,2,4,2
1499875903987882,25,-12,-12,55,9,1,-7,-25
1499875904002884,-23,-11,35,19,-19,-7,-5,-7
1499875904002884,-28,-68,-22,13,17,8,6,-25
1499875904002884,29,-7,1,61,6,-3,-7,25
1499875904002884,-61,31,14,-68,-16,1,17,34
1499875904024885,38,65,-14,-23,9,4,-5,19
1499875904024885,-25,-22,31,59,6,2,-17,-76
1499875904025885,-13,17,-100,-60,-48,-22,-21,-19
1499875904025885,-12,74,9,55,11,-3,14,-5
1499875904039889,66,41,15,-14,14,11,25,105
1499875904039889,-37,-18,-25,-35,-30,-18,-5,-25
1499875904047888,-28,5,-11,-67,13,2,-12,0
1499875904047888,28,17,-12,12,0,0,-3,-49
1499875904063888,14,49,36,22,5,10,24,3
1499875904063888,31,109,2,-41,2,10,-14,94
1499875904064889,6,-95,5,106,5,-5,30,-23
1499875904064889,17,-46,-11,-102,-15,-9,3,35
1499875904084890,16,3,-15,32,3,3,2,-34
1499875904084890,7,21,31,6,-13,-8,-34,-34
1499875904085888,-17,-11,2,39,16,10,3,-51
1499875904085888,17,59,-38,4,8,9,19,67
1499875904099892,-7,-54,-8,-6,-18,-15,36,41
1499875904099892,37,97,-15,72,88,10,-57,-70
1499875904107890,-56,-11,1,-75,-21,-18,-53,-48
1499875904107890,-32,14,43,92,26,10,-1,-67
1499875904122893,1,-76,1,38,77,7,-18,11
1499875904122893,-3,-35,-59,-103,-101,-11,48,68
1499875904122893,32,20,21,48,24,8,9,-22
1499875904122893,44,47,-10,-48,-15,0,7,6
1499875904144893,-37,-49,-14,-57,-21,-1,8,-5
1499875904144893,14,34,9,2,3,-15,-15,-11
1499875904145892,-9,-44,28,41,14,4,9,15
1499875904145892,-10,-55,24,-46,-32,-3,11,46
1499875904159899,-34,-12,-18,38,-10,0,-25,-40
1499875904159899,56,113,15,22,4,5,28,28
1499875904167893,-21,-18,-6,-20,-18,-5,-15,13
1499875904167893,-48,-87,-47,-19,8,-2,1,16
1499875904182895,39,109,41,23,23,1,-13,-14
1499875904182895,29,-128,-17,11,-14,-7,-18,-35
1499875904182895,-26,-22,-4,-10,-32,1,19,28
1499875904182895,33,68,7,44,32,4,-3,11
1499875904204897,-33,27,-40,-37,-17,-7,-9,-20
1499875904204897,-4,111,-2,-1,-16,0,11,27
1499875904205896,13,-48,40,63,15,8,16,42
1499875904205896,19,-36,-4,-28,20,-4,-18,-5
1499875904220896,10,-10,2,19,-9,7,3,-16
1499875904220896,-22,-22,-56,-45,-30,-17,6,33
1499875904227897,15,26,-4,-70,1,-5,-11,16
1499875904227897,-23,-10,14,19,-3,-1,-9,-2
1499875904242901,19,5,16,-64,24,-3,-8,-4
1499875904242901,-33,19,47,86,9,15,11,-40
1499875904243905,25,62,20,-16,10,6,14,48
1499875904243905,-9,-56,-25,-9,-8,-25,-38,-51
1499875904264901,-67,-43,-3,15,-2,-2,-6,-41
1499875904264901,20,54,39,-40,-39,-2,18,23
1499875904265899,14,-79,-41,48,33,-2,-7,-3
1499875904265899,-5,28,28,6,-3,-2,-4,9
1499875904295902,36,15,-13,20,-12,6,57,124
1499875904295902,-16,-63,-23,-56,17,-6,-66,-60
1499875904296900,-36,-45,39,79,30,0,-10,-19
1499875904296900,13,-6,-43,-63,-35,0,-3,-2
1499875904302903,-57,-105,-9,-10,4,-5,-25,-74
1499875904302903,49,-1,14,9,-2,4,62,127
1499875904302903,-1,10,0,-3,-28,-15,-34,-51
1499875904302903,-21,-70,0,6,17,3,-5,-107
1499875904324903,12,27,-21,-7,15,8,1,-12
1499875904324903,-18,-35,28,-32,19,8,15,25
1499875904325902,-2,93,-30,17,-33,-13,-14,-2
1499875904325902,8,22,-6,42,3,1,0,-20
1499875904347904,6,6,3,-38,-9,-2,-16,-1
1499875904347904,-34,-63,16,5,-11,-2,-1,-37
1499875904348903,35,97,-4,-17,15,12,29,13
1499875904348903,-28,17,-11,43,-19,-6,1,86
1499875904362905,5,13,44,-18,-31,-9,-34,-82
1499875904362905,-14,2,-7,15,34,4,-5,-30
1499875904362905,9,-6,-30,-24,-24,1,5,12
1499875904362905,54,69,25,-2,-15,-1,34,45
1499875904384906,-47,-86,-32,7,9,-4,-45,-74
1499875904384906,-20,-10,-3,10,6,-5,13,47
1499875904385906,3,-43,-29,-75,19,4,-23,-20
1499875904385906,11,43,27,62,-12,-11,-21,-30
1499875904407913,-10,81,-3,-94,-24,-1,2,-6
1499875904407913,37,-68,-19,63,15,8,14,-30
1499875904408910,-30,64,-10,31,28,-4,8,18
1499875904408910,-20,-27,0,-7,23,6,-5,-4
1499875904422910,31,11,-31,-53,-54,-14,7,3
1499875904422910,-17,127,34,30,16,2,-5,-13
1499875904422910,78,66,14,92,3,11,44,101
1499875904422910,-40,-67,14,-92,-18,0,-29,-78
1499875904444910,-15,-29,2,114,20,0,11,26
1499875904444910,20,19,4,-44,-9,-4,3,-6
1499875904459912,-9,-16,8,25,4,6,4,16
1499875904459912,7,35,-11,-26,-8,-4,-8,19
1499875904467910,35,48,27,22,7,5,19,58
1499875904467910,-28,-57,-15,-38,15,1,-11,-57
1499875904468912,18,88,28,-4,-15,0,20,25
1499875904468912,-20,-92,-41,-24,-4,-11,-37,-61
1499875904482914,4,14,-22,-76,-26,-4,-7,19
1499875904482914,10,52,-35,59,-13,6,24,87
1499875904482914,-12,-95,-12,-64,7,1,-24,-61
1499875904482914,-3,49,38,8,4,-5,2,0
1499875904504911,-6,3,17,40,30,2,2,0
1499875904504911,-11,-71,-4,-48,-40,-1,6,-9
1499875904505912,6,21,3,-4,-26,-15,-16,-22
1499875904505912,12,1,15,11,35,17,16,59
1499875904527915,-59,-32,-2,-8,-35,-13,-35,-42
1499875904527915,-4,-11,26,24,22,-3,-3,-12
1499875904528915,9,88,1,-49,-43,0,-1,-5
1499875904528915,7,-6,-37,-48,0,-8,-5,-48
1499875904542916,7,-103,5,79,23,-1,9,4
1499875904542916,13,83,-37,-32,-15,-6,-6,21
1499875904543923,-5,-128,-20,17,-14,3,42,39
1499875904543923,-27,57,22,52,9,-7,-57,-87
1499875904564917,-1,63,-20,-97,-52,-1,9,3
1499875904564917,-4,-11,-8,-10,44,-3,-17,-2
1499875904565917,9,13,36,19,-9,-2,-4,-8
1499875904565917,16,-8,1,78,19,14,27,70
1499875904587917,-12,-59,-23,-48,-25,-10,-3,-30
1499875904587917,21,20,20,27,16,2,0,8
1499875904588918,-41,-21,-17,-59,-14,-9,-14,-22
1499875904588918,16,-17,-17,0,-10,9,44,54
1499875904602920,-11,74,10,72,33,-3,-26,5
1499875904602920,11,-5,-1,-97,-45,-9,-8,1
1499875904602920,-13,-22,19,20,21,3,-22,-70
1499875904602920,-3,34,13,23,10,-1,5,7
1499875904624920,28,54,-12,-17,-14,4,40,105
1499875904624920,-11,-10,-43,-8,32,0,-10,-40
1499875904625925,-12,-52,50,-9,-8,0,-5,42
1499875904625925,1,43,-3,8,-6,0,18,-30
1499875904647922,-13,59,-23,-63,-31,-10,-17,62
1499875904647922,-9,-27,43,93,-14,-1,6,-18
1499875904648922,-9,48,-34,-41,40,7,6,-2
1499875904648922,8,-24,-11,-14,-20,-7,-3,32
1499875904662922,25,-54,27,74,2,-3,14,-24
1499875904662922,-15,12,-21,-17,-2,10,1,46
1499875904662922,23,-25,-2,50,9,-9,-3,1
1499875904662922,-45,-49,-13,-34,23,3,-14,-17
1499875904684924,12,9,11,-2,-14,-5,-19,-48
1499875904684924,-13,-35,31,23,-29,-7,-15,-20
1499875904685925,35,103,-13,-9,67,11,14,14
1499875904685925,-18,-88,-69,1,-34,-6,6,7
1499875904707925,-10,-7,44,-3,-8,-3,1,-19
1499875904707925,13,56,-18,-27,43,14,21,10
1499875904708924,5,49,-7,51,-39,-11,-9,55
1499875904708924,-18,-52,-27,-77,-30,-5,-17,-43
1499875904722927,-11,-11,7,-9,87,10,-6,3
1499875904722927,-10,17,-5,8,-17,-2,-9,-15
1499875904722927,-4,57,6,-1,1,2,24,54
1499875904722927,28,39,-5,34,-23,-16,-37,-63
1499875904745927,-32,-87,-2,19,6,1,1,-18
1499875904745927,13,35,27,20,20,4,16,19
1499875904746929,-44,-65,-27,-10,-2,-6,-30,-65
1499875904746929,22,-10,24,-14,-3,7,11,25
1499875904767929,19,32,-9,-3,13,-2,5,-11
1499875904767929,-13,-63,25,36,-48,-12,-5,16
1499875904768928,0,47,-10,-45,38,3,9,-8
1499875904768928,-14,-25,-5,-1,17,2,15,52
1499875904782946,11,-44,-10,37,3,6,10,36
1499875904782946,6,46,-9,-43,-11,-4,0,-19
1499875904783929,-7,21,3,23,-42,-9,-18,-34
1499875904783929,12,113,27,-72,21,6,13,-5
1499875904804932,-36,-74,-15,60,31,-1,-4,-2
1499875904804932,3,52,-14,-7,-12,-6,0,10
1499875904805930,-5,2,13,-21,-33,-6,5,-17
1499875904805930,17,60,-24,-49,19,0,-12,-12
1499875904827933,12,-2,-4,-23,-25,2,25,71
1499875904827933,-22,-44,12,17,11,-7,-30,-49
1499875904828936,-4,-38,16,-17,14,0,-15,-56
1499875904828936,3,0,-15,31,-18,-3,5,10
1499875904842933,2,92,31,-25,-3,2,6,26
1499875904842933,0,-26,-2,3,36,-3,-21,-7
1499875904843938,14,34,12,31,-7,1,8,-1
1499875904843938,-31,76,-21,-54,-26,-3,2,-6
1499875904864936,32,90,-17,3,3,2,-1,19
1499875904864936,-18,-12,-18,7,-11,-3,4,-26
1499875904865937,2,22,11,86,16,-3,-8,-56
1499875904865937,14,51,19,-38,5,5,10,-15
1499875904887936,-12,-78,-27,7,-40,-5,-15,-15
1499875904887936,-5,57,-3,-11,25,-2,15,31
1499875904888935,-11,22,4,-26,-20,-5,-10,6
1499875904888935,14,-29,-10,50,-11,0,-3,13
1499875904901937,35,125,-11,-47,-18,4,6,-79
1499875904901937,-18,-53,-46,21,7,3,3,31
1499875904909937,-14,-23,-6,-7,-5,-1,-5,37
1499875904909937,-5,-74,20,14,27,-5,3,17
1499875904924936,7,45,4,9,-31,1,8,13
1499875904924936,11,40,14,-36,2,2,-5,-13
1499875904925937,3,-65,-8,15,17,-1,12,19
1499875904925937,-6,-1,16,-10,-19,-6,-15,-56
1499875904947939,25,2,-8,-41,6,2,-4,-20
1499875904947939,-37,13,-14,-7,-25,-1,4,-12
1499875904948940,-12,-93,9,-4,-6,-4,-11,4
1499875904948940,25,27,42,-10,-2,9,22,45
1499875904961939,-10,9,-25,43,25,-3,-8,-2
1499875904961939,-1,25,6,-2,-5,-6,-5,-44
1499875904969941,5,45,-6,-94,-32,-2,7,14
1499875904969941,8,-50,-7,61,24,-2,-13,-24
1499875904984942,-1,121,15,54,10,4,19,21
1499875904984942,-13,-15,-3,24,-9,6,-13,-10
1499875904985941,0,38,-10,-21,-6,-7,-24,-57
1499875904985941,4,42,2,28,9,-2,7,51
1499875905007943,-18,-30,7,2,-17,0,-4,-54
1499875905007943,41,55,27,-70,5,-2,1,26
1499875905008942,-5,-33,5,15,-14,2,18,54
1499875905008942,-20,13,-24,20,7,-2,-12,-43
1499875905021944,-8,-63,-12,46,0,2,11,15
1499875905021944,15,59,4,-31,9,-3,-9,-55
1499875905029944,-10,-6,26,45,19,-3,-12,-41
1499875905029944,-13,-53,13,-25,-31,-7,-8,21
1499875905052947,-1,4,8,-41,5,-6,-6,15
1499875905052947,35,61,14,40,11,3,7,-9
1499875905053946,-44,13,-86,-44,-9,-12,-4,6
1499875905053946,3,99,7,19,-5,12,25,17
1499875905067946,-2,1,-13,-12,-20,-10,-21,27
1499875905067946,2,3,35,39,-44,-6,-11,-26
1499875905068945,30,-15,-12,17,61,16,12,18
1499875905068945,-13,5,-11,-22,-39,-13,-12,19
1499875905081946,-9,-73,14,-14,38,5,0,-9
1499875905081946,-3,-36,-8,-40,-43,-1,10,22
1499875905089950,32,120,15,58,30,4,-10,8
1499875905089950,-43,-99,11,-26,-7,-9,-15,-30
1499875905113948,-4,54,-18,-6,-22,-2,-2,-11
1499875905113948,7,13,6,11,4,-10,-13,-9
1499875905114948,-1,-1,4,-50,-11,3,2,27
1499875905114948,-4,-52,-4,52,15,3,0,-25
1499875905127964,0,17,34,10,2,-4,-12,-18
1499875905127964,-9,-40,-22,24,41,7,20,31
1499875905128949,-13,-73,9,-35,-41,-1,1,3
1499875905128949,5,6,-29,-29,6,-3,1,17
1499875905141949,-7,-22,6,15,-1,-3,-11,13
1499875905141949,-3,28,9,31,10,2,17,4
1499875905149954,24,-7,-16,0,1,3,3,36
1499875905149954,-7,-43,-2,43,5,1,0,13
1499875905164950,-12,-17,19,8,18,-4,-14,-35
1499875905164950,-3,-20,-31,-18,-33,-4,-11,-5
1499875905165951,-13,89,13,27,11,0,-7,-23
1499875905165951,-3,61,7,36,19,2,5,24
1499875905187953,40,72,-10,-19,-21,-4,16,30
1499875905187953,-22,-52,25,10,20,1,-19,-11
1499875905188954,9,-12,-8,-7,11,-1,15,1
1499875905188954,-11,-53,-9,-41,-5,-3,-10,-20
1499875905210956,15,-3,16,13,-4,1,13,18
1499875905210956,-13,-61,-35,14,-27,-4,2,13
1499875905211954,-10,-56,11,-19,-7,2,-2,-21
1499875905211954,18,80,4,51,16,4,11,32
1499875905224955,11,62,6,31,12,8,6,3
1499875905224955,-13,-43,-4,-66,-27,-7,-5,-3
1499875905225956,-9,-9,-1,8,8,0,2,22
1499875905225956,6,-11,14,-37,-49,-3,-3,-4
1499875905247956,1,80,-5,15,40,-1,-9,-30
1499875905247956,-22,-74,-33,-2,6,0,-1,-2
1499875905248956,6,57,22,-8,-26,1,0,5
1499875905248956,15,61,4,-15,7,2,8,-2
1499875905270959,-9,-46,-30,-44,8,2,16,47
1499875905270959,9,76,40,24,15,3,-11,11
1499875905271958,-7,-112,-10,-61,-26,-9,-6,-17
1499875905271958,-8,-30,3,20,12,6,2,13
1499875905284958,-1,-33,-44,-31,-29,-5,6,5
1499875905284958,6,98,10,7,11,5,-2,4
1499875905285959,-13,-84,19,15,-15,-9,-23,-56
1499875905285959,18,46,-26,-37,11,3,9,12
1499875905307959,-13,-13,13,21,7,-1,4,64
1499875905307959,4,-26,-2,-42,-9,-7,-1,3
1499875905308959,-2,4,-12,29,3,-7,-12,-14
1499875905308959,-6,11,42,48,-3,0,2,13
1499875905330961,-21,-51,-17,-17,-8,-3,-15,-24
1499875905330961,3,-34,-12,-12,3,-5,-10,2
1499875905331963,13,50,12,-22,-9,13,27,11
1499875905331963,-6,-43,-41,-49,-20,-9,-7,-2
1499875905344980,2,-12,-6,50,29,-2,-18,-85
1499875905344980,2,-47,38,-3,-8,-1,10,11
1499875905345962,5,36,14,54,-9,9,7,7
1499875905345962,-5,22,-34,-8,24,-5,-9,-34
1499875905368969,17,39,27,-56,1,-1,8,-1
1499875905368969,-21,-11,-25,3,-6,-2,-10,-2
1499875905368969,1,-17,0,-24,-11,-3,14,31
1499875905368969,5,66,14,53,35,-1,-25,-49
1499875905390966,5,-6,24,-5,-12,5,0,6
1499875905390966,-7,-89,-33,-14,8,-2,5,-13
1499875905391966,-6,11,-1,1,-5,-3,-8,2
1499875905391966,1,16,5,13,-10,3,11,52
1499875905404983,-15,-4,5,-10,0,-3,3,-23
1499875905404983,31,42,3,14,-7,6,9,12
1499875905405966,-5,46,9,1,15,0,-8,23
1499875905405966,19,61,1,-47,-14,-1,11,34
1499875905427983,-12,-15,-8,67,2,-1,-7,-31
1499875905427983,7,18,36,-42,-28,-6,-9,11
1499875905428966,-26,-77,-63,-32,0,-4,0,-15
1499875905428966,1,24,9,29,11,0,3,21
1499875905450968,-2,18,8,-20,-9,3,10,21
1499875905450968,11,79,6,89,27,-4,-16,-31
1499875905451967,34,63,22,-9,2,0,-1,-16
1499875905451967,-21,-68,-28,10,-12,-6,-3,-6
1499875905464970,-17,-21,4,-12,-26,-3,3,9
1499875905464970,19,36,-11,-34,17,14,9,2
1499875905465969,-18,-11,-38,8,-11,-7,5,17
1499875905465969,-10,1,11,27,7,-2,-19,-25
1499875905487970,8,6,3,-17,-41,-3,1,0
1499875905487970,9,30,32,27,12,5,26,65
1499875905488970,6,41,-16,-19,6,-12,-38,-64
1499875905488970,-5,-20,5,29,-13,2,7,3
1499875905510971,-36,-116,-24,-56,6,-3,-13,-20
1499875905510971,21,100,21,24,7,4,20,29
1499875905511971,-8,-88,-43,-43,22,-3,-2,23
1499875905511971,4,-74,4,-2,-14,-3,-1,-17
1499875905524971,13,63,16,46,27,-3,-24,13
1499875905524971,4,69,-38,-73,4,-2,-3,-85
1499875905525972,-18,-53,4,5,-26,-4,9,19
1499875905525972,-1,14,1,16,25,0,-19,-36
1499875905547974,25,32,21,-1,0,0,5,33
1499875905547974,-7,-37,-29,-15,-9,-1,10,21
1499875905548973,2,66,37,54,37,0,-5,-29
1499875905548973,3,-27,-3,-27,-11,0,4,36
1499875905570975,-7,-24,-6,5,-21,-9,0,-23
1499875905570975,22,71,16,72,8,3,-10,8
1499875905571976,-21,21,-14,-65,-7,0,5,-45
1499875905571976,18,27,22,-48,-48,1,12,16
1499875905584976,4,25,-60,7,61,0,4,14
1499875905584976,-29,-24,11,26,5,-3,4,45
1499875905585977,10,-17,34,19,-11,-2,-20,-38
1499875905585977,-17,-50,-8,25,0,-2,-5,-23
1499875905607978,6,13,-20,-99,-2,2,5,11
1499875905607978,-3,61,7,14,-7,-4,-5,-27
1499875905608977,8,-74,1,-24,5,5,22,63
1499875905608977,-33,6,13,-2,5,-6,-32,-51
1499875905630978,0,-71,-27,20,-53,-5,-3,-27
1499875905630978,-5,-18,-6,-6,25,-8,0,26
1499875905631978,2,18,6,-9,-6,6,-1,-18
1499875905631978,11,47,-2,20,0,-1,19,4
1499875905644978,-8,-44,22,43,-3,5,-5,5
1499875905644978,-13,-45,-22,-69,-3,-1,-18,-43
1499875905645981,14,34,11,7,-16,-8,3,21
1499875905645981,20,79,18,20,0,6,12,12
1499875905667982,11,-23,2,14,70,4,-6,12
1499875905667982,-35,-29,-33,-12,-31,-5,-4,-13
1499875905668979,7,28,14,16,4,2,0,21
1499875905668979,-7,-11,-14,-2,25,-3,1,-15
1499875905690982,20,18,19,5,-40,1,4,3
1499875905690982,-3,-40,9,61,-3,1,7,-1
1499875905691983,-15,46,-9,-37,-27,-11,-20,-8
1499875905691983,-10,-50,16,6,12,5,12,46
1499875905704983,-10,24,14,44,24,2,-3,-32
1499875905704983,17,-8,4,20,-6,1,-7,-5
1499875905705984,3,81,-4,-29,-16,2,14,8
1499875905705984,12,-62,-24,26,-1,-3,-8,26
1499875905727984,-4,41,-1,-38,-5,3,1,17
1499875905727984,-23,-72,2,31,1,-10,-8,-46
1499875905728983,28,68,21,-42,-44,1,-1,20
1499875905728983,-10,33,-14,-3,39,3,2,-10
1499875905750986,4,24,0,12,-1,0,7,13
1499875905750986,6,11,-5,-30,-20,-4,-5,11
1499875905751985,-34,-84,-20,87,10,-7,-18,-38
1499875905751985,19,34,3,-41,6,2,-5,0
1499875905764985,-10,58,8,40,-22,1,2,20
1499875905764985,-5,17,-2,-49,-17,-3,3,-15
1499875905765989,7,18,5,47,38,0,2,5
1499875905765989,3,-83,-12,-28,-21,3,4,-3
1499875905787988,-27,-14,2,47,14,-6,-3,-43
1499875905787988,12,47,20,-43,-30,1,-3,17
1499875905788987,-9,-98,-26,55,31,6,7,11
1499875905788987,19,110,43,-3,-17,-1,4,5
1499875905810989,-10,-44,-27,-19,-45,-4,-4,0
1499875905810989,-1,-60,-19,-10,29,-5,-3,26
1499875905811990,-7,4,8,22,-3,-1,8,-13
1499875905811990,17,34,-17,-31,5,-3,-2,-10
1499875905823990,-1,55,28,21,12,3,-1,-6
1499875905823990,-1,-51,-6,33,23,2,-6,-14
1499875905832990,-16,-5,15,97,18,-2,-17,-16
1499875905832990,16,54,-12,-97,-33,-1,26,35
1499875905847991,-13,-100,-16,1,-12,-7,-17,-14
1499875905847991,7,-20,-9,-44,9,5,6,20
1499875905848990,-15,32,2,-34,25,4,-3,0
1499875905848990,28,-19,15,6,-14,-2,-3,14
1499875905870991,-2,48,8,20,-3,-3,10,28
1499875905870991,-9,37,-28,-10,-26,-4,-17,-35
1499875905870991,8,0,-9,-54,17,0,13,11
1499875905870991,-38,-97,-15,-6,-7,-7,-19,-44
1499875905883994,13,51,0,2,11,-7,-10,6
1499875905883994,19,3,42,-17,2,7,18,29
1499875905892993,0,18,-59,-13,-15,-2,6,-9
1499875905892993,-23,27,6,26,15,-4,-8,-24
1499875905907995,26,-26,-3,3,-7,3,7,4
1499875905907995,-2,-5,13,-25,-17,-5,-4,6
1499875905908994,7,-3,12,22,0,-4,4,8
1499875905908994,-14,-25,-2,57,-16,-6,-1,2
1499875905937996,-9,-98,-33,-87,12,-5,-13,10
1499875905937996,17,127,16,43,26,4,11,-3
1499875905938999,-17,-84,4,-15,-4,2,1,18
1499875905938999,7,9,-34,22,-1,-1,18,40
1499875905944007,9,92,23,11,-5,-3,-12,-36
1499875905944007,-5,-48,-7,11,-10,1,-18,-18
1499875905952998,1,76,16,-21,3,-7,-10,-34
1499875905952998,15,-58,13,44,6,3,1,5
1499875905967999,-14,57,6,-51,-35,-2,15,55
1499875905967999,4,67,-3,-57,38,3,-11,-38
1499875905969000,-18,-66,43,52,-9,-2,-6,-1
1499875905969000,2,-1,-31,-45,3,2,8,4
1499875905990000,11,-5,-9,36,-2,-1,-4,-13
1499875905990000,-3,-63,-5,28,4,-2,9,11
1499875905998002,4,65,-3,-89,-21,0,0,25
1499875905998002,-8,33,19,26,14,7,-8,-19
1499875906005006,22,16,14,16,-3,0,7,-9
1499875906005006,-17,-42,9,3,-12,1,10,11
1499875906013001,24,55,-23,41,7,0,-4,-29
1499875906013001,-18,-42,4,-82,-10,-5,-12,7
1499875906028003,-41,-63,-47,-13,9,-8,-2,-15
1499875906028003,11,-6,16,26,0,3,20,34
1499875906029002,2,-7,-21,-8,-15,1,7,-4
1499875906029002,14,-34,-5,14,-12,-6,-18,19
1499875906058004,-25,-44,19,-92,2,3,-11,-52
1499875906058004,7,-33,13,39,8,-2,-7,-36
1499875906059002,-23,-77,-27,-13,-7,-8,8,21
1499875906059002,18,91,9,5,-69,-4,-2,-39
1499875906064005,-10,-25,-39,-23,53,2,-5,0
1499875906064005,-6,19,-4,11,-28,-3,3,15
1499875906073004,28,-57,24,29,21,6,10,36
1499875906073004,-11,55,0,-26,-1,-4,-24,-36
1499875906088006,4,-41,9,7,-35,-8,-11,-14
1499875906088006,-9,44,-16,38,50,3,0,-10
1499875906089005,0,18,5,-6,-10,0,8,64
1499875906089005,-13,40,17,4,16,1,-15,-84
1499875906111007,17,83,7,29,-21,1,8,7
1499875906111007,-16,-62,-35,47,0,-10,-6,17
1499875906111007,6,40,19,-36,19,5,-7,-16
1499875906111007,0,75,-19,41,12,4,23,27
1499875906124008,-5,-15,1,4,-8,-2,-16,2
1499875906124008,-8,-5,-5,-27,-14,0,-3,-15
1499875906133008,23,61,9,-23,-7,4,19,36
1499875906133008,-41,-101,-3,21,2,-11,-34,-63
1499875906148009,-8,37,-14,23,6,0,4,-2
1499875906148009,4,-39,-6,6,7,-3,2,34
1499875906149008,0,6,9,9,4,-1,-9,-36
1499875906149008,5,-5,21,32,12,3,13,22
1499875906171012,10,14,-11,-67,-17,2,11,7
1499875906171012,-10,38,3,-17,-21,-10,-27,-30
1499875906172009,7,10,11,32,-35,-6,-3,-17
1499875906172009,-13,-116,-24,-51,32,3,6,3
1499875906192011,9,37,18,37,29,8,10,17
1499875906192011,-3,52,-15,-58,-26,-5,-4,9
1499875906200012,6,28,24,11,-20,-1,6,4
1499875906200012,4,54,9,79,57,8,0,-12
1499875906216013,4,-4,6,-88,-22,-3,5,13
1499875906216013,2,-69,-19,-27,-9,1,6,31
1499875906216013,-16,21,-3,21,-15,-1,-10,-44
1499875906216013,9,11,11,-4,6,3,12,34
1499875906231015,-15,-29,2,10,9,-2,-2,-12
1499875906231015,3,31,15,9,-24,-2,-14,-22
1499875906231015,-5,17,-21,2,22,-4,2,13
1499875906231015,-1,18,-2,-23,-7,5,-4,-9
1499875906253016,13,-28,-4,22,-3,-3,4,32
1499875906253016,-5,-13,31,3,-22,-6,-2,-34
1499875906255014,-5,-72,-28,22,44,4,5,22
1499875906255014,14,40,-4,-31,-44,-8,-3,-11
1499875906269016,-10,-100,-23,20,22,3,3,27
1499875906269016,-5,-2,6,-20,-4,-3,2,-16
1499875906269016,25,127,8,62,38,9,-9,-14
1499875906269016,-20,-97,-13,-82,-34,-7,-2,7
1499875906291017,15,70,14,26,-10,-5,-7,8
1499875906291017,12,47,2,4,47,11,25,54
1499875906291017,-18,-47,17,-14,-14,-8,-33,-75
1499875906291017,2,38,-9,17,5,-6,-13,-13
1499875906312018,-4,-7,3,-9,-14,-1,-6,-34
1499875906312018,-1,60,3,-6,9,4,15,20
1499875906321018,-1,-45,-8,-19,-22,-1,4,-17
1499875906321018,13,53,17,18,7,-2,2,39
1499875906327019,-1,25,-2,-2,4,1,4,-19
1499875906327019,-6,-29,-7,20,-34,-9,-5,-12
1499875906336022,-7,-7,-18,-55,20,5,8,4
1499875906336022,-2,12,14,27,-8,-1,4,14
1499875906358021,-2,-38,-25,-20,12,-4,-4,2
1499875906358021,-4,45,-1,37,3,0,5,5
1499875906360021,-6,-59,0,-72,-38,-12,-27,-16
1499875906360021,-15,-74,-3,46,5,-3,0,6
1499875906373022,1,68,20,-33,-3,7,19,-2
1499875906373022,20,18,-24,9,29,-3,-19,-16
1499875906375022,-23,-88,-11,-26,-9,-12,-5,-13
1499875906375022,21,27,15,1,0,0,-6,-15
1499875906387023,-18,27,-7,-13,-12,-2,7,20
1499875906387023,-13,-93,-6,3,-16,-5,-10,-28
1499875906396022,4,71,12,31,5,3,-3,17
1499875906396022,4,-53,-20,-2,22,5,12,34
1499875906411038,-9,6,-13,-6,-14,0,-11,-26
1499875906411038,25,96,19,-3,3,6,16,28
1499875906412023,-15,6,-21,-35,2,-2,-5,-10
1499875906412023,10,-61,2,20,37,-4,-3,26
1499875906433026,-19,-67,27,43,17,2,1,-30
1499875906433026,0,49,5,-36,-19,0,1,4
1499875906435026,-8,-33,-10,12,-14,-2,6,4
1499875906435026,9,30,-1,36,-10,3,12,12
1499875906447026,-2,10,-7,-71,-9,-4,-12,-25
1499875906447026,-15,-16,21,18,1,-5,-21,-28
1499875906456026,30,103,8,11,8,4,15,12
1499875906456026,-25,-86,-17,-1,-26,-4,-3,-8
1499875906471029,24,68,28,54,6,-1,-2,11
1499875906471029,4,-43,-5,-15,-2,1,14,48
1499875906472028,-14,13,3,-19,2,-7,-18,-33
1499875906472028,-1,44,13,-6,-3,0,7,-13
1499875906494036,4,-14,-6,-9,5,3,13,14
1499875906494036,9,53,-13,23,-25,-4,-8,-20
1499875906495029,1,-18,14,4,12,7,1,28
1499875906495029,12,31,-3,13,7,-3,10,16
1499875906507030,-15,-66,-11,-27,-20,-1,-27,-45
1499875906507030,-5,-45,-9,17,-7,0,6,27
1499875906516029,20,0,16,38,18,1,10,23
1499875906516029,-12,72,2,13,-20,-2,-2,-31
1499875906531031,2,35,-6,-27,27,-13,-11,-4
1499875906531031,-3,-13,-12,-55,12,9,4,13
1499875906532040,-1,18,-4,23,1,-2,-1,-6
1499875906532040,6,-10,-6,-68,-5,-3,-5,-1
1499875906553033,-7,-71,1,49,-21,0,4,22
1499875906553033,-15,5,33,11,6,-10,-22,-42
1499875906555032,0,-3,-13,10,1,3,5,21
1499875906555032,-6,-33,-18,-70,-8,3,13,1
1499875906567034,4,30,21,30,-12,-7,-12,-9
1499875906567034,-8,-26,3,11,1,4,2,1
1499875906576035,7,1,-16,13,-15,-4,11,29
1499875906576035,-1,-12,-16,52,8,9,9,27
1499875906591037,5,45,14,2,-2,-8,-14,-17
1499875906591037,-20,-42,-19,-5,21,1,1,-17
1499875906592033,-2,-26,0,-1,-26,-3,-4,-4
1499875906592033,-6,60,13,19,16,-3,-2,7
1499875906614035,11,78,1,23,34,11,22,52
1499875906614035,-5,-38,-26,-41,-51,-8,-7,-36
1499875906615035,7,-42,-2,16,35,0,-4,33
1499875906615035,-19,-19,12,-1,-12,-12,-17,-8
1499875906627047,2,1,-7,-14,7,6,9,11
1499875906627047,6,19,-11,-9,-18,-3,-6,-48
1499875906636036,7,-5,-9,-67,29,8,2,13
1499875906636036,2,50,19,9,-14,-7,-11,-47
1499875906651054,1,-53,7,13,-11,-1,2,6
1499875906651054,0,-62,-15,18,9,6,27,37
1499875906652039,-12,60,-2,-2,-37,-8,-31,-28
1499875906652039,18,-19,-13,-49,18,3,-3,11
1499875906673038,-7,22,-5,4,-9,2,-1,-11
1499875906673038,5,31,0,-11,-6,-2,7,13
1499875906675039,-14,19,-18,7,4,2,17,20
1499875906675039,-4,-54,-12,-22,-25,-4,-10,-4
1499875906687039,-5,-39,-16,49,16,-2,-10,-10
1499875906687039,-8,7,8,-57,14,-1,4,8
1499875906696039,1,-34,-2,19,2,-12,-39,-40
1499875906696039,-27,38,-5,-32,-23,-2,6,-11
1499875906711041,10,-11,4,-36,-15,-1,4,15
1499875906711041,1,52,7,59,21,-4,-16,3
1499875906712043,-2,5,12,-15,-35,-2,2,-9
1499875906712043,3,-5,1,26,46,6,1,-9
1499875906733043,2,-13,11,-10,-18,-2,-4,-3
1499875906733043,-10,-18,-7,-16,20,1,15,3
1499875906735043,14,37,-12,-12,-10,-2,-2,-4
1499875906735043,-10,-35,8,26,-25,-9,-14,-17
1499875906747044,-8,10,-12,-28,-5,0,3,-14
1499875906747044,10,46,9,40,24,1,-1,21
1499875906756043,-3,1,9,-21,-12,3,16,11
1499875906756043,1,-29,-11,-15,11,-1,-7,-13
1499875906771045,10,35,-3,19,33,0,-1,-9
1499875906771045,-7,-56,7,71,-7,5,-2,0
1499875906772044,-8,59,18,-40,-23,-2,19,40
1499875906772044,27,37,-14,-2,-6,-7,-19,-13
1499875906793045,-8,-29,-3,-2,-15,-1,-5,6
1499875906793045,1,-3,-6,-2,-5,0,-4,-7
1499875906795044,8,43,15,66,29,2,10,-2
1499875906795044,1,11,12,-21,21,6,11,24
1499875906807047,-2,-21,-10,-4,-16,-4,-4,10
1499875906807047,7,8,9,-8,-3,-3,-6,24
1499875906823046,-2,22,-6,27,-21,-1,4,-45
1499875906823046,-12,9,-6,-19,-3,0,-3,-6
1499875906831056,-4,1,0,-1,9,2,-2,-12
1499875906831056,-5,-14,5,0,-9,-3,-3,-8
1499875906832055,-1,-29,-7,4,18,0,4,-7
1499875906832055,8,4,-4,-22,-21,2,10,23
1499875906853049,-10,-15,1,18,5,-2,-7,-37
1499875906853049,12,63,4,10,17,1,13,11
1499875906856050,-1,-84,-6,18,-6,-5,-18,-14
1499875906856050,-11,-5,8,-44,-4,-2,-4,-22
1499875906867049,0,-8,-1,-2,-5,-2,6,19
1499875906867049,2,22,1,9,-12,-2,1,4
1499875906876050,-3,10,0,-35,19,3,-2,-12
1499875906876050,-4,-54,1,56,21,-1,9,-12
1499875906891052,16,102,-2,-33,-9,-1,-7,22
1499875906891052,-21,-81,-16,-6,-17,-6,-15,-47
1499875906892051,-10,-28,-8,-1,-6,0,-5,7
1499875906892051,10,35,7,17,3,3,12,28
1499875906921053,1,17,6,-11,-14,-5,-1,-38
1499875906921053,9,28,-2,-18,13,2,-2,10
1499875906922055,-12,-38,6,4,-6,2,-6,9
1499875906922055,-21,-35,5,16,-12,-7,-6,-14
1499875906927068,-6,-12,-10,22,-1,-6,0,-4
1499875906927068,-10,-14,-18,-8,-1,1,-6,-2
1499875906936053,3,-18,-3,-52,11,-4,-8,-20
1499875906936053,11,116,11,27,-2,2,7,16
1499875906951056,-5,-122,-38,-10,0,-1,6,22
1499875906951056,-7,-3,3,-2,-13,-3,-13,-31
1499875906952055,21,65,3,17,20,2,9,12
1499875906952055,-11,-5,-8,3,-2,-2,-5,-3
1499875906973056,4,-6,9,16,-16,6,8,25
1499875906973056,7,20,-10,-32,19,2,4,-8
1499875906975056,7,-24,2,29,-3,1,3,-10
1499875906975056,-23,-71,-21,-23,-3,-4,-1,8
1499875906987056,-4,2,7,20,-1,3,1,-7
1499875906987056,-3,-66,-17,-22,-7,-8,-8,-13
1499875906996058,-7,2,2,3,7,-1,7,8
1499875906996058,25,58,6,4,-6,-2,-1,29
1499875907011058,-8,-47,-12,0,6,4,1,-6
1499875907011058,-5,-8,-7,16,13,0,13,23
1499875907012059,-7,6,2,-48,-37,-7,-22,-17
1499875907012059,-1,-6,11,5,0,1,-1,-13
1499875907033060,28,126,26,36,24,3,5,27
1499875907033060,-28,-73,-13,-16,-23,5,2,23
1499875907035060,-10,-18,-12,14,7,-5,5,5
1499875907035060,3,42,-3,17,12,1,-2,5
1499875907047060,-9,13,5,4,-18,-5,-6,-34
1499875907047060,12,8,18,-6,7,-1,-6,-17
1499875907056060,1,-16,-4,34,-4,-1,-8,7
1499875907056060,-17,-28,-31,-68,-14,0,-6,-39
1499875907071063,3,31,6,-4,-8,-5,2,10
1499875907071063,8,1,9,-19,11,0,6,22
1499875907072062,-12,-50,2,7,-4,-2,3,6
1499875907072062,14,19,18,24,1,1,-9,-8
1499875907100064,-11,-16,6,20,-20,-3,-2,-21
1499875907100064,-4,17,-28,-74,12,-2,-2,2
1499875907118064,-10,-6,-14,-1,-39,-3,1,17
1499875907118064,4,0,3,-5,24,7,11,-13
1499875907119065,-6,-20,-15,-4,7,-5,2,2
1499875907119065,8,83,28,39,-34,-3,-18,-16
1499875907122065,10,-49,-17,-25,16,2,9,7
1499875907122065,-9,29,10,15,-1,-1,2,4
1499875907131067,-12,-62,-8,-36,-11,0,-11,-17
1499875907131067,8,97,0,28,1,2,-1,-15
1499875907132065,-18,-70,-6,-2,5,-4,-1,-10
1499875907132065,10,-2,13,-2,-34,-6,-1,22
1499875907153068,-4,50,-17,-48,24,5,4,15
1499875907153068,5,-56,5,31,-8,-9,-2,18
1499875907155066,-4,72,12,19,-8,0,-7,-16
1499875907155066,8,-37,-13,-13,-7,-1,4,30
1499875907175067,-1,-1,16,-1,-7,1,1,-11
1499875907175067,2,-64,-18,-3,7,-4,-16,-33
1499875907182068,2,44,4,-13,-5,-2,0,-2
1499875907182068,10,14,3,29,0,-1,-2,13
1499875907191069,-6,-5,-4,-35,2,-4,-6,-2
1499875907191069,2,41,17,-19,12,4,14,22
1499875907192067,4,-27,9,20,26,3,4,-24
1499875907192067,-3,-17,-11,-16,-5,-4,0,-3
1499875907213070,10,10,9,41,15,-4,-1,33
1499875907213070,4,7,-3,-24,-8,8,12,10
1499875907215069,2,83,12,-25,-18,-1,-4,-8
1499875907215069,-14,-24,-17,11,13,-2,-4,-22
1499875907236070,2,-9,8,-5,-3,-1,-2,17
1499875907236070,4,0,1,10,2,2,4,-27
1499875907237071,6,24,-5,13,-6,2,6,28
1499875907237071,-1,-15,-20,-5,-19,-6,-3,-15
1499875907251074,-5,33,4,-2,35,3,-15,-12
1499875907251074,-14,-13,-1,15,-3,-5,-6,-9
1499875907252072,4,-21,1,-1,4,2,6,21
1499875907252072,-4,-3,4,-17,-14,-3,-5,-14
1499875907273074,3,-4,7,-3,6,-4,-6,-8
1499875907273074,5,43,-3,-16,-8,0,-2,3
1499875907275074,-11,-2,-17,27,-12,0,4,-22
1499875907275074,-2,-5,-8,-20,-9,1,3,31
1499875907296075,10,24,8,-18,0,2,4,-3
1499875907296075,-16,-32,-3,-10,-36,-9,-11,-14
1499875907297074,15,-11,-8,58,36,-2,-3,2
1499875907297074,20,104,19,-27,-11,5,8,18
1499875907311075,-12,-68,-10,-23,-10,-1,4,8
1499875907311075,-13,11,7,45,-4,-5,-11,-39
1499875907317076,4,-2,-21,-80,-12,-12,-5,20
1499875907317076,-8,-47,-5,26,4,1,0,-16
1499875907333076,11,-22,-2,0,-30,0,10,7
1499875907333076,-2,47,6,9,29,3,7,18
1499875907335077,-2,-64,3,21,0,-2,-7,8
1499875907335077,-6,23,13,-31,7,0,4,21
1499875907356080,12,49,9,30,-1,-1,-4,-40
1499875907356080,-6,-115,-27,-4,-27,-5,1,-15
1499875907357078,-9,62,11,-9,19,4,-3,4
1499875907357078,4,36,-9,10,4,-6,-8,-21
1499875907370079,-1,14,10,20,-16,0,2,31
1499875907370079,-14,-28,-5,-29,8,-4,-12,-43
1499875907377100,3,52,-1,-13,21,2,-5,-4
1499875907377100,-11,-40,14,5,-1,-2,13,25
1499875907392080,-3,7,-12,11,8,-4,-25,-70
1499875907392080,7,37,8,34,-18,-2,-1,21
1499875907401081,4,-11,-2,-103,-17,0,4,-3
1499875907401081,-12,9,-7,49,31,1,-7,-29
1499875907416081,3,-14,-1,1,-6,-3,6,19
1499875907416081,8,13,1,-14,-6,-1,9,33
1499875907417081,-2,-22,-14,52,-9,1,-9,-26
1499875907417081,5,-9,-4,-72,-2,3,3,3
1499875907430084,-7,-15,16,4,-4,-1,1,10
1499875907430084,-8,-10,-7,12,1,-3,-5,-5
1499875907437082,20,87,13,12,7,-2,11,34
1499875907437082,4,-26,-3,11,-1,-2,-17,-28
1499875907453096,-4,-69,-21,41,-14,-2,5,40
1499875907453096,8,78,34,-77,2,4,-1,-13
1499875907455084,-11,-100,-3,50,24,1,3,11
1499875907455084,-6,3,9,-2,-30,2,4,6
1499875907476085,-5,22,-44,-25,34,-7,-4,-21
1499875907476085,3,-2,24,28,-6,0,1,18
1499875907477088,4,70,-7,6,7,2,3,1
1499875907477088,-11,-108,-4,7,-15,-5,1,6
1499875907490085,3,30,-9,-32,-14,4,-4,-8
1499875907490085,-8,11,-7,26,25,0,-5,-11
1499875907497085,-16,-111,6,-23,-24,-7,4,21
1499875907497085,15,87,8,-28,1,-2,-16,-37
1499875907513086,-10,-22,-3,4,-23,-1,6,6
1499875907513086,-18,-84,-42,-8,31,5,8,-5
1499875907515087,0,19,-10,6,-29,-2,-9,-7
1499875907515087,1,75,7,32,-2,-3,8,18
1499875907536088,-21,-74,0,-11,27,0,-13,-46
1499875907536088,13,20,27,31,-18,-4,-11,4
1499875907537089,-8,-8,2,-34,19,2,-6,-27
1499875907537089,-2,-75,-16,10,0,-3,-11,10
1499875907550090,3,84,21,-1,-4,1,10,27
1499875907550090,-16,-44,-30,3,-5,-4,4,8
1499875907557093,7,32,20,-22,-34,-1,7,-15
1499875907557093,10,44,12,4,15,0,-3,-20
1499875907573093,7,22,6,14,29,-3,-10,12
1499875907573093,1,9,8,9,5,1,17,36
1499875907575091,-6,7,-16,-32,-16,1,-5,-44
1499875907575091,8,15,11,16,4,3,-3,35
1499875907595096,-10,-86,-23,-29,-19,-1,5,23
1499875907595096,12,77,2,24,12,-1,-9,20
1499875907603093,-11,9,14,-41,19,-2,14,7
1499875907603093,-7,-17,-4,-9,-16,-4,-4,-15
1499875907609092,3,8,-13,-14,0,-3,-2,-13
1499875907609092,-5,2,16,-10,-16,3,4,-4
1499875907618094,10,-4,-28,26,-5,-4,6,34
1499875907618094,-15,-21,-3,-28,-1,-1,-23,-52
1499875907633094,4,-30,8,3,-14,0,5,23
1499875907633094,15,-38,-2,-14,30,4,-1,0
1499875907635093,-23,-14,-21,36,1,-4,-8,6
1499875907635093,20,58,6,16,-11,-5,4,28
1499875907656096,-7,-23,-11,-19,6,7,7,-37
1499875907656096,-21,-94,-8,-71,-30,-5,0,8
1499875907657096,4,-4,18,13,1,-7,-12,-21
1499875907657096,-16,2,-7,22,19,3,-5,-5
1499875907669102,-6,7,-7,39,-8,-4,-1,5
1499875907669102,9,-48,0,0,8,-3,-2,-18
1499875907678098,-1,15,6,-28,-5,0,-14,16
1499875907678098,8,68,5,27,-7,-1,8,5
1499875907693099,-12,-60,6,5,19,-2,-5,10
1499875907693099,13,120,-2,-14,-19,-2,4,1
1499875907695098,-4,-26,-13,18,-3,2,-7,-45
1499875907695098,-7,-38,-2,2,9,-3,-2,-9
1499875907715100,19,100,36,-6,-8,0,5,-8
1499875907715100,-19,-75,-31,14,-10,-1,-3,-16
1499875907722119,6,46,10,-9,-26,-5,-1,16
1499875907722119,-2,-81,-18,11,17,-3,5,3
1499875907730100,12,63,10,-49,-5,9,14,13
1499875907730100,8,31,0,13,22,-1,-5,10
1499875907738100,-12,-46,-6,-3,5,3,8,-3
1499875907738100,15,36,17,0,-24,-7,-22,-23
1499875907753121,-21,-48,-4,-9,-3,-3,-1,13
1499875907753121,9,47,-5,14,2,1,0,4
1499875907755101,-5,-31,-5,-13,2,-3,-2,3
1499875907755101,-6,-33,4,38,20,5,10,4
1499875907776102,6,-16,-9,-41,-40,-2,-4,-24
1499875907776102,-14,52,1,19,16,-4,-6,-12
1499875907777102,6,58,7,4,-9,4,0,-5
1499875907777102,-4,-48,-10,3,1,1,19,15
1499875907789103,14,106,2,67,5,-3,-7,-10
1499875907789103,-1,-119,-9,-54,-19,-2,-8,-13
1499875907798104,8,27,15,8,30,0,4,11
1499875907798104,-13,10,-5,-22,3,2,-3,3
1499875907813107,15,111,12,59,25,1,7,-11
1499875907813107,-10,-75,-15,-53,-26,7,8,3
1499875907815105,8,3,12,2,7,1,1,36
1499875907815105,-4,13,-16,-20,-12,-2,-1,-14
1499875907836106,-1,38,8,6,14,1,9,24
1499875907836106,-4,20,-13,25,-24,-3,-18,-22
1499875907842107,6,-42,-3,2,16,-2,-11,-12
1499875907842107,-10,3,-10,-16,-11,-1,2,9
1499875907849106,-3,-23,6,8,-18,-7,-15,-24
1499875907849106,20,127,18,-36,34,2,15,55
1499875907858106,-12,-83,-19,26,-36,1,5,7
1499875907858106,-6,-67,9,-18,8,-3,-12,-24
1499875907873108,-13,27,-3,-10,6,1,5,12
1499875907873108,9,-4,-5,21,-12,-6,-6,-9
1499875907875110,-1,19,-1,15,18,-1,-6,-4
1499875907875110,7,18,-2,-6,1,0,0,13
1499875907896108,-1,-48,-20,-31,-12,-1,1,-13
1499875907896108,1,4,11,-3,4,0,4,-12
1499875907897109,21,76,13,12,-19,5,9,16
1499875907897109,-8,-42,-15,-8,17,-3,-7,-1
1499875907909110,-8,-40,12,19,1,-2,1,9
1499875907909110,14,41,3,8,12,0,5,23
1499875907918111,3,7,-4,-8,-15,1,11,-17
1499875907918111,-7,46,3,2,1,-6,-28,-2
1499875907933113,-17,-95,-31,8,-5,-3,-12,-14
1499875907933113,-4,7,17,60,9,-3,-2,-2
1499875907935112,-5,-20,-2,-32,-6,1,0,1
1499875907935112,9,38,15,14,21,7,17,13
1499875907956114,-6,8,-4,-40,-19,0,2,3
1499875907956114,-2,29,-7,31,11,-3,-14,-18
1499875907957112,-19,-40,-4,-2,-10,-2,3,26
1499875907957112,0,1,-18,-46,-16,-3,-3,-32
1499875907970114,16,9,17,28,19,-6,3,24
1499875907970114,-5,-47,-8,-33,-20,0,-9,-29
1499875907978114,-3,30,-13,-21,7,-2,-1,-5
1499875907978114,-8,-18,14,17,0,-2,-3,-4
1499875907993116,6,37,11,6,3,-2,-3,-5
1499875907993116,-11,-58,-21,-22,-13,-5,1,-7
1499875907995115,0,0,-8,-8,-10,-8,-22,-9
1499875907995115,12,49,6,-13,-8,4,8,15
1499875908016121,-10,-52,-9,-2,5,-1,-4,-11
1499875908016121,3,17,10,1,-3,-1,12,29
1499875908017116,1,11,5,41,12,-2,-13,-29
1499875908017116,3,1,-4,-7,-6,1,7,3
1499875908029117,-5,-7,-6,15,0,-5,-4,6
1499875908029117,-3,-24,-11,-46,-13,1,5,27
1499875908038117,20,-1,15,6,-11,-3,2,-9
1499875908038117,-33,-65,-8,11,11,4,4,-8
1499875908053119,4,10,-11,-20,1,-3,-3,-2
1499875908053119,5,13,17,37,0,1,0,1
1499875908055119,10,61,-4,-1,15,0,7,-9
1499875908055119,10,-18,-4,-39,-29,-1,6,19
1499875908076120,-19,-20,-9,-27,23,2,-17,-35
1499875908076120,12,-10,6,42,14,-3,3,-6
1499875908077127,-8,-23,5,-54,-2,-4,-11,-20
1499875908077127,5,8,13,25,-18,-4,5,14
1499875908098121,-4,41,3,-15,-10,3,2,-15
1499875908098121,-4,-20,-6,0,6,-1,-7,-27
1499875908100122,0,7,-1,37,13,0,19,52
1499875908100122,7,15,-20,-23,-41,-8,-17,-19
1499875908113122,-6,-32,-10,-17,-9,-7,-15,-9
1499875908113122,-4,37,0,-26,1,2,-5,-4
1499875908115121,0,-13,6,23,17,4,-1,-7
1499875908115121,-7,-2,-15,9,0,0,8,29
1499875908136149,10,20,-5,5,16,5,5,4
1499875908136149,-10,33,7,5,-4,-5,-6,5
1499875908137123,12,47,2,-15,-10,-3,-7,-15
1499875908137123,-5,-35,-12,22,14,0,5,3
1499875908158140,9,30,4,-39,-22,-1,11,21
1499875908158140,-16,-31,2,30,-15,-5,-31,-47
1499875908160126,-1,10,-3,-41,34,3,0,-6
1499875908160126,14,90,9,-3,-8,3,5,4
1499875908173124,-6,-91,-13,19,6,-1,3,5
1499875908173124,4,28,10,-3,-5,-5,5,20
1499875908175127,-6,-52,-9,12,-14,-3,2,11
1499875908175127,-13,7,-11,41,26,3,-5,-17
1499875908196126,-12,10,1,-71,-21,-8,-16,6
1499875908196126,4,25,-1,6,13,3,7,4
1499875908197127,-11,9,-10,32,-11,-3,-11,2
1499875908197127,21,27,17,-37,3,3,9,10
1499875908218129,2,10,11,55,-3,-3,7,14
1499875908218129,7,27,-9,-18,8,3,-2,-8
1499875908220128,-26,-21,10,37,32,2,3,-14
1499875908220128,8,8,-4,-55,-2,-4,-3,16
1499875908232130,-10,-7,4,8,-4,-2,-10,-32
1499875908232130,6,-7,8,-7,-9,-2,5,21
1499875908239130,1,12,-3,-2,-11,4,10,-6
1499875908239130,9,-32,10,21,-19,-7,-9,2
1499875908256129,-12,8,0,3,36,-1,-11,-34
1499875908256129,-1,16,3,-19,4,2,13,24
1499875908257130,-1,26,-2,0,-32,-6,-11,-23
1499875908257130,-12,-62,-9,14,21,-5,-5,-15
