timestamp,emg1,emg2,emg3,emg4,emg5,emg6,emg7,emg8
1499879185889045,-38,-8,-40,18,-28,-19,-71,-22
1499879185889045,49,102,100,95,-18,-10,12,24
1499879185890034,-5,-99,-26,19,20,9,-24,-54
1499879185890034,-61,57,-30,-72,21,11,80,-9
1499879185891057,91,94,48,24,38,4,-49,-17
1499879185891057,-27,86,3,-28,-2,-4,-5,-31
1499879185892026,-78,-33,-78,-28,-39,-30,-33,-92
1499879185892026,23,-26,79,13,-7,-4,-27,-39
1499879185899045,-4,35,-36,-2,-6,10,24,-17
1499879185899045,-3,73,0,-30,26,3,5,-44
1499879185905089,66,25,28,36,15,10,53,99
1499879185905089,9,-54,-39,-58,-32,5,-11,-11
1499879185920096,-32,32,71,11,3,-14,-2,-38
1499879185920096,53,-9,29,42,5,21,-9,21
1499879185929054,-35,-23,75,-69,-10,-4,22,-28
1499879185929054,-11,-82,-32,-6,12,-9,-37,-15
1499879185935064,44,25,-26,14,-8,10,35,49
1499879185935064,-53,-24,21,7,11,0,-1,27
1499879185959094,22,115,-58,-49,-72,-9,-38,-8
1499879185959094,20,-4,59,77,58,1,-8,-17
1499879185961033,-23,-3,34,-82,-26,-7,7,-58
1499879185961033,-72,-128,-61,21,-22,-6,2,3
1499879186007035,29,-56,5,12,-18,-7,-30,-9
1499879186007035,-4,-27,6,-28,16,-1,-2,11
1499879186007035,13,20,-18,48,-6,2,12,20
1499879186007035,-5,-95,23,-8,-5,-6,3,3
1499879186011074,-40,8,-31,62,23,4,10,1
1499879186011074,16,80,60,-13,-40,-8,4,-22
1499879186012046,-16,-47,-81,-96,62,3,25,45
1499879186012046,18,88,5,43,-27,-3,-25,-63
1499879186017081,-56,-8,-14,-15,-41,-8,38,72
1499879186017081,5,37,12,107,62,7,-24,-46
1499879186025046,27,0,38,-44,0,-4,-42,-47
1499879186025046,-14,-4,-19,-64,5,1,44,41
1499879186034037,45,125,6,-17,16,-5,-86,-86
1499879186034037,-61,-63,-26,-13,-22,-3,25,96
1499879186048102,-9,1,90,13,-9,-4,2,-66
1499879186048102,2,45,-77,24,2,1,-16,20
1499879186055087,41,33,32,-5,-3,-7,21,8
1499879186055087,15,-20,-10,18,-4,4,8,38
1499879186079050,20,22,31,28,-20,1,-20,28
1499879186079050,-30,-13,27,-5,-19,-3,7,13
1499879186080082,-10,-33,-9,-1,51,23,78,47
1499879186080082,17,-61,-34,-7,15,-8,-54,-28
1499879186092083,-82,-34,-26,-34,24,1,5,-13
1499879186092083,2,-10,1,35,-35,-5,-6,-14
1499879186101077,-10,0,34,40,11,4,10,22
1499879186101077,46,-32,-53,-20,-30,-5,29,74
1499879186116084,13,-95,76,32,28,7,-2,-36
1499879186116084,-39,-20,-13,-53,-6,-7,-15,10
1499879186118043,-19,-32,14,13,18,-7,-24,-56
1499879186118043,78,91,-44,16,-28,8,-14,-64
1499879186139061,-22,6,8,29,-31,-6,1,-8
1499879186139061,41,6,-13,53,-21,1,-17,50
1499879186140054,-13,-102,-62,-66,-3,2,16,20
1499879186140054,-36,76,75,-6,32,1,-4,-32
1499879186153113,23,18,-57,-34,-30,-1,47,85
1499879186153113,38,74,34,29,23,6,-19,-21
1499879186160044,15,62,48,15,-27,7,-6,27
1499879186160044,-21,-35,-56,-33,-27,-12,-24,-24
1499879186176110,2,43,-33,33,47,4,8,10
1499879186176110,8,-128,14,-16,-22,0,20,17
1499879186178045,24,90,18,-27,25,-1,-16,0
1499879186178045,9,84,49,32,-21,5,48,15
1499879186199064,-13,127,-72,-59,-1,-9,-24,25
1499879186199064,-67,-51,-23,2,-14,-16,-64,-90
1499879186200053,40,83,1,-51,-63,-2,24,18
1499879186200053,-20,25,-10,13,63,-1,-24,-54
1499879186213047,16,52,-12,69,-40,0,15,-20
1499879186213047,2,14,38,-17,45,8,9,15
1499879186220114,4,-37,-4,39,9,5,4,-15
1499879186220114,-51,8,0,-47,-29,-8,10,8
1499879186236115,28,68,37,57,-42,-4,10,16
1499879186236115,4,-55,-80,-15,69,3,-7,-35
1499879186238058,-33,-90,3,46,-30,-6,-15,2
1499879186238058,8,11,23,-3,6,11,25,17
1499879186259116,-33,-84,-12,8,28,2,-14,-58
1499879186259116,-3,53,18,-30,-25,-12,-9,-29
1499879186260070,12,22,-65,17,11,4,13,41
1499879186260070,9,41,52,-1,16,-4,-26,-23
1499879186273119,-25,-71,-96,-65,-35,-8,-13,4
1499879186273119,3,15,38,-9,-27,0,21,36
1499879186280095,16,13,14,59,26,-2,8,-6
1499879186280095,-69,-117,-52,-89,7,4,-2,-4
1499879186296099,33,12,59,53,-14,-9,-23,13
1499879186296099,13,91,-80,-68,8,6,4,3
1499879186298054,-8,11,-18,-46,-34,-8,5,-6
1499879186298054,-6,35,27,42,-5,6,11,29
1499879186319076,11,-58,25,-46,22,5,0,9
1499879186319076,30,65,33,42,-3,-6,21,31
1499879186320054,-60,-23,-50,-56,-36,-4,-36,-62
1499879186320054,2,-65,-107,11,15,-4,15,51
1499879186332098,-11,-35,59,4,-6,11,14,-9
1499879186332098,8,77,-1,44,20,1,-24,-45
1499879186341083,17,75,17,-43,14,-4,0,62
1499879186341083,-10,-24,7,-18,-13,-13,-45,-62
1499879186356117,-14,16,22,-15,-5,2,-7,-6
1499879186356117,15,-102,-90,49,1,-1,21,16
1499879186358083,-13,2,97,68,-9,-4,5,-26
1499879186358083,13,-38,-41,-27,-5,1,0,63
1499879186379057,25,78,20,29,1,-1,-19,-27
1499879186379057,-22,-8,51,-20,40,-2,19,0
1499879186380057,9,21,8,28,13,11,-12,31
1499879186380057,6,-87,22,33,-21,-12,-36,-41
1499879186392101,-32,-12,-64,-43,19,-7,16,7
1499879186392101,3,6,33,-53,-53,-5,-13,1
1499879186401071,-17,-68,-16,29,41,-3,-18,-19
1499879186401071,23,6,-6,-40,25,8,41,-6
1499879186416098,14,53,35,35,-36,-7,-9,10
1499879186416098,-18,-46,-36,31,41,2,-9,19
1499879186418095,30,49,20,-45,-19,6,34,16
1499879186418095,-6,-8,50,9,-20,0,-11,23
1499879186439079,-8,-22,-38,18,10,0,-13,-3
1499879186439079,12,17,-12,0,11,3,18,45
1499879186440072,-12,4,4,5,-17,-11,-21,-3
1499879186440072,19,95,16,2,-3,-1,14,-25
1499879186452102,10,-14,-84,-35,-20,4,26,46
1499879186452102,-24,-29,96,36,8,3,-10,-31
1499879186461104,44,28,-68,-9,21,-1,0,-17
1499879186461104,-47,-77,-15,-23,-45,-12,-21,12
1499879186476128,-10,-1,72,39,43,0,-8,-24
1499879186476128,12,-17,-87,-19,-19,8,23,5
1499879186478063,-40,1,50,27,26,-6,-29,-51
1499879186478063,25,63,-32,-67,-9,-1,3,42
1499879186499081,10,-18,20,-3,-9,0,14,12
1499879186499081,-4,-14,40,28,-10,-8,-33,-62
1499879186500065,-19,-60,-70,-3,-25,-11,-9,-31
1499879186500065,17,46,25,-4,9,10,19,11
1499879186512104,-7,26,-20,22,19,-4,-17,-19
1499879186512104,-26,-60,27,-46,6,-8,7,16
1499879186521067,6,-9,-18,-39,-18,-1,-20,-10
1499879186521067,12,26,34,100,13,5,0,-45
1499879186536138,24,40,-29,-74,-13,6,55,99
1499879186536138,-24,-3,-23,2,-29,-9,-62,-75
1499879186538099,-3,-16,44,4,27,1,-1,-4
1499879186538099,-12,-77,-105,-13,-5,-3,4,-36
1499879186559108,-9,8,60,44,-5,1,2,5
1499879186559108,27,44,-30,-12,-6,1,3,20
1499879186560068,-30,-128,-36,15,16,-6,-2,51
1499879186560068,13,73,3,-7,30,10,7,-42
1499879186572110,-5,-26,-2,-12,-41,-12,-38,-64
1499879186572110,4,45,11,19,13,8,31,38
1499879186587138,8,45,21,11,-26,0,-9,-12
1499879186587138,-10,0,15,-28,-3,-7,-4,-10
1499879186596125,21,22,-39,15,31,2,-9,12
1499879186596125,-6,-23,33,-2,-12,1,12,23
1499879186598069,4,41,-5,14,-32,0,1,-50
1499879186598069,-5,-21,1,13,28,3,19,37
1499879186619082,0,25,28,-40,-15,-3,-22,-37
1499879186619082,7,59,3,20,-19,-6,-9,-3
1499879186620082,-12,-17,-48,-32,48,4,31,34
1499879186620082,15,10,-10,24,-23,-1,-16,-2
1499879186643076,-30,-45,-18,21,-10,-2,16,-35
1499879186643076,5,25,12,-18,21,-1,-8,43
1499879186644073,5,26,1,4,-33,6,23,44
1499879186644073,13,24,82,-11,-1,-2,-8,-8
1499879186656085,-25,-37,-71,14,7,-7,-25,-7
1499879186656085,-12,-11,15,8,-35,-4,5,-25
1499879186658107,4,38,-8,-34,1,-3,0,-9
1499879186658107,-11,30,57,53,-12,-6,-21,12
1499879186679074,26,-10,3,-72,6,3,26,33
1499879186679074,-19,-37,-23,-22,15,5,-5,-12
1499879186680074,14,14,30,32,-16,4,-3,4
1499879186680074,11,46,38,29,-4,-3,11,-2
1499879186692114,-5,-39,-12,-21,-15,0,-4,12
1499879186692114,9,24,-59,6,26,3,30,24
1499879186701076,12,4,69,-21,19,4,-35,-32
1499879186701076,-5,-40,-57,68,-20,-5,-3,0
1499879186716075,-5,10,17,-34,-19,-2,-20,-29
1499879186716075,-11,-16,69,55,35,1,14,-7
1499879186718080,0,43,-9,-42,-24,-5,1,14
1499879186718080,-21,-56,-19,-15,-5,1,3,11
1499879186739095,0,-6,5,1,11,-4,3,-14
1499879186739095,5,59,4,-6,-29,-1,-9,7
1499879186740103,13,-22,28,27,14,4,14,10
1499879186740103,5,4,-40,-12,-1,1,11,13
1499879186752079,-13,-83,-13,16,1,0,8,-14
1499879186752079,18,3,51,-51,-1,-2,-20,-5
1499879186761079,-1,20,-12,-9,-20,-2,19,21
1499879186761079,-51,10,-33,-8,52,-11,-39,-75
1499879186776116,16,81,75,26,-2,5,1,13
1499879186776116,0,-7,-29,36,-22,-2,9,14
1499879186778080,-8,7,-29,-26,24,0,-13,-30
1499879186778080,20,-31,14,-4,-18,4,26,44
1499879186799110,12,59,-18,13,15,-5,-2,-7
1499879186799110,-11,-7,16,-15,-7,-6,-14,-16
1499879186800080,21,9,-63,66,7,4,38,44
1499879186800080,-6,-7,40,-57,-22,4,-11,-12
1499879186821122,-18,-50,-36,25,21,-2,0,2
1499879186821122,-11,38,7,-18,0,6,-1,-18
1499879186823082,4,-36,6,29,4,-4,12,14
1499879186823082,-1,-5,-13,-52,-43,-10,11,9
1499879186836083,14,-1,-16,42,36,7,-13,-23
1499879186836083,5,-24,-14,-39,-46,-3,5,19
1499879186838088,-40,-11,27,-6,26,-2,7,4
1499879186838088,-6,-10,-22,30,26,5,-13,-61
1499879186866124,-1,59,18,-33,-13,-3,11,35
1499879186866124,-8,-95,-13,15,39,6,8,-1
1499879186868087,-2,52,-66,-31,-26,-1,-14,-54
1499879186868087,27,38,43,-27,12,3,7,34
1499879186881124,-24,-109,-32,-2,-20,-9,3,5
1499879186881124,-10,20,67,6,-11,-3,7,-9
1499879186883119,8,-16,-17,-8,-10,-4,-37,-4
1499879186883119,15,-7,-28,6,27,10,47,60
1499879186896147,16,60,2,22,37,-1,-43,-52
1499879186896147,-31,23,-30,56,-10,-11,-4,18
1499879186898122,1,-26,29,-98,-24,-2,-18,-31
1499879186898122,14,26,5,70,-28,-6,3,-1
1499879186919106,-10,-22,30,-21,16,0,12,27
1499879186919106,15,21,-34,7,24,4,3,18
1499879186920088,-19,-40,8,29,-1,-3,0,-40
1499879186920088,14,40,-17,-71,-41,2,13,61
1499879186941129,-7,-38,31,51,18,1,-40,-42
1499879186941129,6,9,-37,-83,3,-2,1,14
1499879186943118,-11,12,42,70,4,-3,-16,-53
1499879186943118,19,70,20,-6,-9,-3,4,32
1499879186955093,-15,-8,-16,-37,0,-2,-6,-6
1499879186955093,-3,-66,26,44,-24,-4,8,-25
1499879186962158,-7,-47,-49,19,37,-1,-18,9
1499879186962158,0,-29,-8,31,29,1,-10,-18
1499879186977130,25,87,74,2,-28,-4,9,18
1499879186977130,-3,-12,-106,-9,-25,-4,3,7
1499879186986101,31,35,17,-105,2,7,14,45
1499879186986101,-53,-66,10,29,15,-8,-18,-31
1499879187001132,40,54,44,40,-24,3,1,23
1499879187001132,-22,-43,-17,-69,-4,-5,-29,-48
1499879187003092,6,-81,-36,79,-7,-7,4,5
1499879187003092,10,63,-6,-77,-14,3,-6,18
1499879187024106,-27,-63,12,24,-2,-1,17,-6
1499879187024106,22,60,40,-6,-32,1,21,16
1499879187025094,-15,-20,-43,-26,58,2,1,24
1499879187025094,-26,-44,86,60,11,-3,-35,-44
1499879187037142,6,30,-80,-107,-65,-10,25,20
1499879187037142,46,67,37,73,46,12,19,9
1499879187046095,-40,-59,-9,8,-9,-9,-4,1
1499879187046095,12,3,-17,-14,11,4,9,30
1499879187061096,14,39,-37,69,-1,2,-15,4
1499879187061096,-30,-22,42,-76,10,-6,-18,-58
1499879187063096,41,79,40,-11,-63,-7,9,7
1499879187063096,-16,-20,-27,90,36,0,-7,-1
1499879187084107,-5,-12,-2,-33,-18,1,-4,12
1499879187084107,34,75,44,87,9,6,40,53
1499879187085125,-5,-19,21,-65,-39,-7,-38,-43
1499879187085125,-33,-72,-64,-23,25,-13,-21,-46
1499879187097119,11,17,-43,32,19,5,29,71
1499879187097119,-15,-57,79,58,-4,-3,-47,-52
1499879187106108,-22,26,-21,-13,2,1,24,16
1499879187106108,26,-18,-71,-31,-46,-4,-10,-18
1499879187121110,1,-9,25,-37,0,-4,-1,-6
1499879187121110,-15,1,-39,-50,1,1,5,10
1499879187123133,6,-10,16,46,21,2,-2,11
1499879187123133,17,75,51,11,4,4,12,10
1499879187144111,-18,2,-39,25,15,0,-3,-12
1499879187144111,12,-20,16,-24,-17,1,22,10
1499879187145112,3,14,-50,36,23,-3,-19,-4
1499879187145112,-16,9,27,-13,-17,-5,8,-10
1499879187157102,9,-37,22,-94,-17,-4,-15,-80
1499879187157102,11,32,-7,22,14,3,13,29
1499879187166141,11,26,25,23,-4,-4,6,11
1499879187166141,12,22,33,4,28,5,20,11
1499879187181142,-33,-76,-12,-3,-19,-9,-57,-66
1499879187181142,-22,-58,-101,-26,-10,-11,-18,17
1499879187183138,-22,-68,23,-18,-17,-3,8,-1
1499879187183138,9,16,-9,72,-8,4,10,-8
1499879187204137,-24,-59,-28,-27,15,4,19,-18
1499879187204137,23,75,-6,25,-10,1,-29,-2
1499879187205115,15,43,19,-81,-1,1,10,19
1499879187205115,-18,-47,-28,-5,-38,-8,-4,1
1499879187217106,-4,14,25,54,23,1,15,-30
1499879187217106,-2,10,-4,-4,24,1,-8,8
1499879187227107,-5,0,33,37,-7,-4,8,-3
1499879187227107,-9,-32,14,18,15,0,-14,15
1499879187241141,14,24,-72,-86,-31,-2,5,28
1499879187241141,-4,-38,55,42,6,3,24,22
1499879187243107,3,51,14,36,5,0,-18,-30
1499879187243107,0,-27,-48,-73,-14,-1,11,15
1499879187264138,-3,33,-54,-4,-1,-5,-8,6
1499879187264138,-1,13,39,3,-1,-7,-12,-7
1499879187265118,-7,-9,-19,-19,2,1,-6,1
1499879187265118,13,54,20,22,-6,-1,11,-3
1499879187277169,11,-6,6,15,-17,4,2,44
1499879187277169,-19,-49,-53,37,31,-2,-10,-32
1499879187286117,2,43,50,-18,-6,-2,-8,-26
1499879187286117,-15,-106,-66,-9,-2,-3,-20,-7
1499879187301148,0,-8,12,27,-3,4,27,30
1499879187301148,-7,10,0,-15,-39,-9,-8,1
1499879187303111,15,29,26,4,37,5,-16,-11
1499879187303111,6,14,29,9,-2,4,2,-4
1499879187324137,-9,-1,-22,64,5,2,8,8
1499879187324137,-15,-16,-4,-30,-3,-2,-19,-20
1499879187325110,12,-1,-47,55,-5,-3,15,31
1499879187325110,-24,-33,20,-99,0,-4,-14,-14
1499879187346153,-1,10,61,56,24,-4,-7,17
1499879187346153,16,38,-13,-30,15,4,-8,-30
1499879187348112,3,22,-12,-24,-21,4,30,10
1499879187348112,-13,30,-8,37,-1,-8,-47,-24
1499879187361154,12,-2,28,1,-23,-10,-10,2
1499879187361154,-6,-36,39,12,23,8,33,36
1499879187363149,-6,-20,-59,4,-25,-1,-7,-34
1499879187363149,19,31,-44,3,2,2,-3,-7
1499879187383124,-2,10,26,22,21,3,1,23
1499879187383124,8,0,6,-76,-16,-11,-7,5
1499879187385114,-12,-3,-66,-8,-11,3,10,14
1499879187385114,-6,-5,38,38,-8,1,11,-9
1499879187406157,18,35,6,18,14,5,-6,-6
1499879187406157,-8,-83,-33,-58,-8,-6,1,27
1499879187408116,-9,-30,24,-6,-7,-5,-18,-19
1499879187408116,-1,15,18,2,-1,3,2,-10
1499879187420162,-5,38,-4,31,-2,3,28,6
1499879187420162,3,-10,-28,-4,-6,-2,-32,20
1499879187427162,-7,-41,-38,-49,-7,-4,-3,33
1499879187427162,4,40,3,3,-2,-1,2,-13
1499879187444120,23,-28,3,7,22,1,34,47
1499879187444120,-8,14,-3,9,-2,-2,-33,-64
1499879187445118,-9,-46,-10,57,16,1,-1,11
1499879187445118,11,11,4,-72,-24,-1,9,19
1499879187466120,-23,-30,-32,-63,14,-8,-14,-35
1499879187466120,9,24,18,-23,-1,10,21,32
1499879187468121,5,12,12,73,-5,-1,-6,-36
1499879187468121,7,16,-2,-71,28,-1,24,55
1499879187480122,-13,-47,-44,18,-7,0,-37,-56
1499879187480122,3,30,25,-20,-10,3,8,9
1499879187487155,4,7,32,7,-25,3,15,10
1499879187487155,-1,30,-26,48,23,-3,0,-30
1499879187504146,-6,14,16,0,-34,-6,-30,-10
1499879187504146,17,-4,16,37,38,-1,6,1
1499879187505122,-7,14,8,-29,-2,0,10,13
1499879187505122,-13,-39,32,59,-5,-4,-3,29
1499879187526164,-12,-21,-3,-90,-7,-2,-11,-33
1499879187526164,-11,-43,0,76,-9,-1,2,-16
1499879187528126,-4,36,6,-56,-32,-6,0,-14
1499879187528126,2,-5,9,32,75,9,14,28
1499879187540168,5,36,30,61,-7,4,10,13
1499879187540168,-20,11,-31,-7,-12,-6,-4,-2
1499879187547164,5,-38,-29,-73,36,-8,-1,14
1499879187547164,-14,-19,12,12,5,-2,-21,-28
1499879187563173,3,-1,6,-20,-21,-1,2,16
1499879187563173,10,19,4,29,-2,3,32,15
1499879187565132,-5,10,29,56,18,-1,-40,-37
1499879187565132,2,-12,-22,-69,-43,-4,-7,-22
1499879187586137,8,19,54,6,32,-1,10,17
1499879187586137,-24,-4,-85,-2,-15,-5,10,12
1499879187588130,2,18,-16,0,20,5,-3,-2
1499879187588130,4,34,13,-12,-52,-3,5,-9
1499879187600170,9,-48,16,8,26,0,-12,7
1499879187600170,10,31,45,4,-19,-1,33,11
1499879187607167,-9,-31,4,-9,41,-1,-2,3
1499879187607167,-6,-20,-53,-33,4,4,-2,-12
1499879187624160,3,44,-28,-9,-14,-3,5,12
1499879187624160,-5,-21,8,35,-5,1,4,2
1499879187625130,29,28,8,-55,2,1,6,1
1499879187625130,-14,-37,32,52,7,-4,-2,7
1499879187646171,-9,29,-14,-36,-4,3,7,2
1499879187646171,-10,-45,-27,-34,-12,-4,-23,-6
1499879187648130,2,7,86,37,-12,-2,6,7
1499879187648130,-19,-9,-9,-41,-54,-1,-2,-20
1499879187660141,4,-5,-22,21,17,1,-12,-4
1499879187660141,21,97,7,-11,7,1,-4,-16
1499879187667175,-24,-108,-20,59,11,2,3,8
1499879187667175,10,42,-4,-36,-42,1,15,17
1499879187684161,-12,48,4,-9,27,-12,-1,-16
1499879187684161,9,54,-8,23,37,0,-20,-22
1499879187685171,31,30,-38,-77,-23,1,17,52
1499879187685171,-51,-75,-29,53,20,-10,-24,-66
1499879187707151,-10,-31,28,-20,-31,-4,-16,-39
1499879187707151,8,-7,-32,-12,-16,-4,4,23
1499879187708148,-14,16,1,10,15,3,-18,-16
1499879187708148,51,68,1,-17,17,5,13,15
1499879187720180,-10,-40,14,-32,-23,-1,-12,-21
1499879187720180,-6,4,-2,42,7,1,-9,-17
1499879187728202,-10,-21,-45,6,1,-4,8,26
1499879187728202,3,3,-4,7,-17,-6,-8,-17
1499879187743201,-17,-18,-16,-16,1,3,7,-1
1499879187743201,9,-34,2,9,-12,-6,-1,-3
1499879187744136,-17,4,-59,-33,-19,2,19,-9
1499879187744136,29,76,70,0,17,-6,-6,40
1499879187765205,-20,-90,2,64,38,10,14,-20
1499879187765205,9,55,-20,-32,-22,-3,6,12
1499879187766145,6,27,55,68,3,1,-6,-13
1499879187766145,6,-74,-66,-11,-7,5,-3,-27
1499879187780148,-9,32,23,-10,-37,-13,-7,18
1499879187780148,-1,25,-11,-55,41,7,29,34
1499879187788180,-24,-62,5,46,-16,-13,-29,-18
1499879187788180,15,5,46,-10,18,6,16,13
1499879187803199,5,-25,3,-42,-67,-8,-12,-6
1499879187803199,3,-32,-25,32,68,13,29,43
1499879187804151,2,103,15,26,-26,-4,-40,-47
1499879187804151,-16,5,19,10,-21,-8,-13,12
1499879187825149,13,2,-12,25,38,11,29,15
1499879187825149,-16,-34,85,-40,-43,-11,-26,-31
1499879187826148,20,52,-42,1,-20,2,13,21
1499879187826148,6,-40,-40,-10,31,0,-3,-3
1499879187840159,4,18,12,-40,-30,4,5,2
1499879187840159,10,-11,24,24,21,1,10,19
1499879187848210,6,13,12,12,36,5,-4,-8
1499879187848210,-11,15,-5,35,1,-7,-9,-6
1499879187863209,52,113,-15,36,-11,3,33,53
1499879187863209,-47,-78,6,-31,2,-2,-31,-80
1499879187864155,4,22,37,-19,11,3,26,29
1499879187864155,-20,1,11,-20,-29,-10,-20,-51
1499879187885157,21,53,14,21,4,-1,-11,9
1499879187885157,3,2,-8,37,2,1,27,7
1499879187886151,-5,-41,42,-28,12,3,11,12
1499879187886151,16,62,-32,5,-10,4,-5,24
1499879187909168,-10,-52,-42,18,35,-1,3,1
1499879187909168,-26,-49,7,-32,-37,-5,-19,-41
1499879187909168,-22,-70,-14,7,32,-2,8,1
1499879187909168,1,12,22,-1,-30,-4,2,9
1499879187923212,-10,5,-12,-35,18,3,16,16
1499879187923212,13,58,-47,22,-17,-2,-7,4
1499879187924147,13,0,-13,-21,16,3,-1,10
1499879187924147,-15,-28,-23,-9,18,-3,0,-10
1499879187945204,-11,20,-8,-10,-23,-3,-5,14
1499879187945204,19,-19,-10,28,15,4,4,-30
1499879187946158,10,92,31,-77,-21,-2,-16,-7
1499879187946158,-9,-28,9,2,-32,0,20,22
1499879187969170,-25,-48,-14,15,25,-4,-20,-27
1499879187969170,13,31,39,2,2,-2,8,32
1499879187969170,-3,-15,-56,9,-18,-3,-6,-12
1499879187969170,10,13,-4,10,9,-3,-5,-30
1499879187983170,-3,7,26,-5,-6,2,10,-4
1499879187983170,-11,-30,1,18,-22,-4,-15,27
1499879187984150,21,26,27,-5,-2,-3,-10,4
1499879187984150,-8,-59,-6,74,50,2,10,37
1499879188005196,-7,9,22,-54,-21,2,6,-55
1499879188005196,9,34,-47,-58,-10,-4,-24,8
1499879188006159,-13,-45,16,29,11,-2,6,-3
1499879188006159,10,73,6,-27,8,6,-5,-10
1499879188028163,-4,-84,3,33,-7,-4,-6,0
1499879188028163,-11,20,0,-23,14,1,4,-14
1499879188029152,-5,-18,7,-18,-26,-6,-7,6
1499879188029152,12,52,30,51,-11,7,29,25
1499879188043213,1,-60,-24,-26,21,5,-16,-12
1499879188043213,2,9,11,7,-20,-3,2,18
1499879188044154,12,7,-17,-2,40,-1,-14,-15
1499879188044154,-26,-40,-36,-37,-27,-7,-13,-17
1499879188065220,-5,42,23,18,-19,-7,-5,-12
1499879188065220,12,22,-55,-60,1,-2,-13,3
1499879188066171,-13,-31,-3,42,1,2,5,-24
1499879188066171,32,12,38,-66,16,2,2,37
1499879188088229,-15,-49,-15,13,-5,-4,-15,-17
1499879188088229,-5,-9,9,33,6,7,13,-3
1499879188089190,-2,13,-15,-23,-51,-5,7,5
1499879188089190,-5,-9,-10,-14,34,0,-15,-36
1499879188103211,12,-5,-1,2,9,4,20,49
1499879188103211,-2,-2,31,17,-27,-5,-23,-41
1499879188104157,-2,23,23,10,-14,0,1,-17
1499879188104157,-10,-18,-29,-38,-21,-3,-8,-3
1499879188125200,17,61,17,15,24,-3,10,25
1499879188125200,-8,-26,-22,12,11,1,0,-2
1499879188126171,-12,-51,26,30,-6,-3,-8,15
1499879188126171,-8,-37,9,4,25,4,8,8
1499879188148158,8,55,-7,14,-10,-3,-12,6
1499879188148158,11,31,12,-15,-21,-3,-9,-20
1499879188149160,-14,-3,-45,-46,14,-5,8,-3
1499879188149160,8,25,49,74,-15,5,11,-10
1499879188163229,0,7,-33,-17,10,-7,3,16
1499879188163229,-1,-40,-18,42,5,-2,3,-20
1499879188164166,0,40,11,-61,-17,-1,-11,-2
1499879188164166,-10,-19,35,6,-12,-5,-13,-15
1499879188185205,5,52,4,36,7,2,-4,-16
1499879188185205,5,9,-4,-11,22,2,1,22
1499879188186181,15,-16,-16,22,-20,4,25,32
1499879188186181,-15,-8,-9,-78,21,-6,-13,-18
1499879188208195,1,4,3,13,-23,-5,12,17
1499879188208195,-12,-25,-16,-7,48,4,-28,-39
1499879188209162,21,12,21,16,-13,-3,12,6
1499879188209162,7,3,-24,27,6,2,-1,25
1499879188223191,-13,-6,20,-21,-18,-3,-16,-21
1499879188223191,-7,9,36,-15,4,-1,13,19
1499879188224165,0,26,-40,7,2,-4,-15,-18
1499879188224165,0,-49,-46,9,-13,1,2,-4
1499879188245198,-5,25,-20,-18,12,0,-4,-18
1499879188245198,-2,-21,34,14,-47,-4,13,24
1499879188246165,4,-30,-19,-7,35,1,-2,8
1499879188246165,2,42,-50,5,-26,-2,11,4
1499879188268165,19,14,51,-23,27,6,-13,9
1499879188268165,-27,-71,-71,2,-21,-4,6,13
1499879188269180,-4,15,36,9,34,3,-13,-24
1499879188269180,-2,-33,-26,-7,-15,-6,11,7
1499879188283167,-12,11,36,10,-28,-4,-2,0
1499879188283167,23,59,54,5,44,1,3,-10
1499879188284166,-26,-50,-71,-4,-8,-2,-4,-14
1499879188284166,4,6,9,2,11,-3,-16,-7
1499879188305174,-5,-43,-32,35,-18,-2,7,7
1499879188305174,2,16,37,28,11,1,10,14
1499879188306168,-1,-15,-6,-90,-8,1,1,13
1499879188306168,11,42,-7,-26,-15,-4,-1,-22
1499879188328199,-7,-46,-43,-32,25,-6,-32,6
1499879188328199,-13,-3,32,-26,-31,0,1,-8
1499879188329172,2,41,18,43,-15,0,12,2
1499879188329172,-14,-49,23,18,25,2,-23,-30
1499879188343179,25,41,-24,2,-18,3,10,32
1499879188343179,-18,-21,-23,-8,-10,-4,-2,-20
1499879188344172,3,14,33,40,21,1,-6,-3
1499879188344172,-4,-5,-3,-9,4,5,26,21
1499879188365215,-3,22,-2,6,-6,-3,-3,-13
1499879188365215,3,32,-2,16,-41,-8,-10,2
1499879188366177,4,1,-17,-51,26,6,-1,-13
1499879188366177,-5,11,4,15,-5,-1,14,23
1499879188388242,0,-16,-30,-2,14,-3,-3,-34
1499879188388242,10,-6,15,-9,-31,-3,3,29
1499879188389177,-11,-13,51,49,-15,-2,2,-21
1499879188389177,6,9,15,-25,21,0,-10,2
1499879188403211,-19,0,26,-12,-23,0,-6,-1
1499879188403211,6,3,-57,-3,20,-2,3,4
1499879188404190,8,15,3,8,-11,-3,-2,16
1499879188404190,-11,-21,-12,-3,6,-7,-19,-4
1499879188425216,2,-8,-11,-5,-18,-1,15,-36
1499879188425216,-7,-39,13,-29,3,0,-21,7
1499879188426188,25,40,0,3,32,4,7,-5
1499879188426188,-17,-38,-15,-9,-27,-5,-9,-15
1499879188448221,4,4,7,8,59,-4,-1,23
1499879188448221,-8,34,18,18,-21,-1,4,-8
1499879188449181,-10,-8,-9,26,-10,-2,5,8
1499879188449181,23,5,21,-15,-17,-1,17,-2
1499879188463200,-19,-32,8,-30,-16,2,-13,27
1499879188463200,29,82,14,-3,33,7,10,-10
1499879188464179,-44,-74,-40,-16,-51,-8,-13,-17
1499879188464179,3,36,17,36,13,0,7,9
1499879188485198,6,-15,24,47,17,2,16,2
1499879188485198,3,39,-36,-75,1,-5,-9,-30
1499879188486177,-2,-58,40,-10,16,3,6,9
1499879188486177,-8,-7,10,28,-1,-4,-16,20
1499879188508198,-8,-10,4,20,-12,-8,2,4
1499879188508198,7,30,-17,-56,12,5,11,15
1499879188508198,-3,-42,-1,-3,-16,-5,5,12
1499879188508198,-5,0,21,-51,13,3,-17,-29
1499879188523199,-2,-5,-39,25,2,-4,-13,-1
1499879188523199,8,52,53,8,-49,-3,0,8
1499879188523199,-17,-43,-49,-1,51,1,6,-6
1499879188523199,3,49,11,25,10,-4,0,12
1499879188545199,13,15,-4,-11,-31,-3,-17,-43
1499879188545199,-19,5,-14,34,16,1,-12,-23
1499879188546184,5,20,8,-73,-22,0,7,24
1499879188546184,0,-4,2,27,-11,-2,28,17
1499879188568210,-2,-5,10,-25,15,1,-29,-55
1499879188568210,9,-53,-43,10,19,4,2,21
1499879188568210,3,40,21,15,-47,-7,-9,10
1499879188568210,-11,-42,-11,10,-17,2,-10,-55
1499879188583188,-14,5,6,1,28,-3,20,-5
1499879188583188,9,-44,-74,28,17,-1,-4,0
1499879188584182,-11,21,19,10,-10,-5,-9,-9
1499879188584182,9,33,5,-17,-15,-2,2,19
1499879188605224,4,1,8,0,1,-2,13,13
1499879188605224,-6,-23,8,-2,5,-1,1,-5
1499879188606205,11,-5,-2,5,-8,-1,-5,8
1499879188606205,1,-18,6,6,16,2,8,26
1499879188628204,-4,0,-45,-32,-10,-5,-25,-32
1499879188628204,-8,-20,9,28,16,-3,4,13
1499879188628204,3,19,-3,-21,-45,-2,-7,4
1499879188628204,0,20,4,35,10,2,1,4
1499879188643216,-3,-22,12,3,35,5,9,9
1499879188643216,4,58,56,-24,-4,1,7,6
1499879188643216,-4,-45,-44,38,8,-4,0,-2
1499879188643216,-4,16,13,-33,-3,2,4,-15
1499879188665198,-10,-22,6,15,-16,1,5,28
1499879188665198,-4,-16,-50,-48,-21,-8,-30,-39
1499879188666194,1,35,20,27,6,5,-2,-2
1499879188666194,3,-7,-39,-16,30,-3,3,-5
1499879188688233,17,-19,18,-21,-23,-1,-10,-9
1499879188688233,-21,-27,9,-4,-26,-2,4,-9
1499879188688233,7,22,12,19,22,0,-8,-8
1499879188688233,-29,-12,19,7,11,-1,13,2
1499879188702234,5,15,-8,-36,-18,4,20,18
1499879188702234,19,20,30,72,29,1,-15,-3
1499879188710220,-4,-27,-11,-80,-12,0,0,16
1499879188710220,7,13,6,15,-6,-1,-11,-9
1499879188725210,0,22,33,-6,-4,-1,-5,-20
1499879188725210,-11,-33,-62,14,-11,-4,6,11
1499879188726195,4,46,0,-23,0,0,1,-20
1499879188726195,12,-12,-12,-7,-6,-1,-10,0
1499879188748253,21,73,21,-16,11,0,6,28
1499879188748253,-32,0,4,-14,22,-4,4,-18
1499879188748253,5,-3,4,32,6,0,1,2
1499879188748253,-3,-21,-38,-19,-36,-7,-11,3
1499879188763255,5,31,8,44,17,6,15,11
1499879188763255,1,-34,30,10,-29,-2,3,-8
1499879188763255,-11,-9,-49,4,46,-4,-44,-44
1499879188763255,2,45,-12,-6,-8,1,-3,4
1499879188785234,-2,-16,-8,-7,-32,2,16,13
1499879188785234,17,0,26,3,36,-2,-21,-51
1499879188786217,4,-5,8,19,-41,-4,14,7
1499879188786217,-4,-22,-27,-23,-4,-5,-19,5
1499879188808264,-9,-7,-7,17,16,-7,-9,6
1499879188808264,1,32,29,7,-15,3,23,26
1499879188808264,-3,-11,6,14,23,-2,7,-19
1499879188808264,14,17,7,17,20,5,-3,-4
1499879188823238,16,5,17,19,-28,-5,9,25
1499879188823238,-14,-27,21,-1,4,1,-6,9
1499879188823238,0,10,-14,-53,9,4,13,0
1499879188823238,-9,-4,32,-2,-22,2,6,15
1499879188846257,-6,-8,-6,1,-22,-1,-10,-16
1499879188846257,1,-24,-26,10,-35,-6,7,13
1499879188846257,0,-18,25,-11,46,3,12,29
1499879188846257,-1,-39,-6,16,33,1,-11,-23
1499879188868239,-7,11,2,-10,-14,-7,-8,-9
1499879188868239,-2,15,-8,-2,6,3,-7,-2
1499879188869203,5,18,2,-1,-18,-2,18,23
1499879188869203,-1,-10,-13,-11,-21,-3,-6,-12
1499879188882239,-9,3,-30,-23,14,2,-11,-11
1499879188882239,-9,-23,-11,9,5,-1,-1,13
1499879188890248,10,1,-24,32,-44,-5,-5,-8
1499879188890248,-7,-41,-1,-32,23,1,22,5
1499879188905242,-20,-26,26,-1,-22,-4,-23,-19
1499879188905242,-1,-4,-31,13,13,-2,2,23
1499879188906200,-4,23,30,3,13,8,-11,-14
1499879188906200,5,13,-30,27,4,1,29,20
1499879188928261,-14,-39,-25,-5,5,-10,-41,-37
1499879188928261,2,18,40,-28,-40,-5,-4,0
1499879188928261,-3,-1,-15,29,17,-1,-5,-2
1499879188928261,2,14,35,8,1,0,15,20
1499879188942264,0,-16,-10,-3,-7,-2,6,7
1499879188942264,2,-6,4,-38,17,2,3,-10
1499879188950243,-2,38,-58,-26,-32,-5,-5,5
1499879188950243,-12,-69,-3,22,-10,-1,-8,-16
1499879188965251,3,24,5,7,5,0,10,8
1499879188965251,1,8,20,-5,7,-5,6,4
1499879188966205,4,6,26,5,-3,-2,-5,4
1499879188966205,4,25,-25,-3,4,0,-10,10
1499879188988262,-5,-20,4,-9,12,3,-7,-23
1499879188988262,5,14,-15,6,-6,0,7,9
1499879188988262,-10,-28,9,-35,-5,-5,-10,-11
1499879188988262,9,35,27,11,0,-6,-20,1
1499879189002266,0,-4,-20,9,0,4,12,3
1499879189002266,-4,14,13,-19,-18,3,-1,3
1499879189010250,15,9,-60,8,72,6,9,-11
1499879189010250,-10,-19,-19,-17,-38,-6,-9,-2
1499879189025272,-7,4,49,34,23,-4,-4,0
1499879189025272,-6,-24,-26,-20,-28,-4,-4,-5
1499879189026216,-8,7,24,25,1,6,6,13
1499879189026216,2,9,-10,-27,-15,4,14,8
1499879189048274,2,18,19,-7,23,3,3,-1
1499879189048274,11,26,-37,17,13,-2,-3,5
1499879189048274,6,-5,35,-32,-39,-7,-15,-2
1499879189048274,-2,-29,9,-4,22,0,-5,-19
1499879189062275,-1,-10,-21,10,-22,0,14,25
1499879189062275,-8,-7,23,-5,31,2,-13,-11
1499879189070217,1,-1,-31,3,-25,-1,-1,-5
1499879189070217,5,32,5,21,-12,-4,0,3
1499879189085256,3,11,2,-21,-8,-2,9,-16
1499879189085256,-6,-18,-25,15,-2,1,-9,26
1499879189086217,2,13,21,-20,11,-4,3,8
1499879189086217,-6,-12,23,24,5,5,-1,-14
1499879189108277,-10,8,-46,-8,-10,-6,-14,-18
1499879189108277,6,14,-25,3,12,-1,13,4
1499879189108277,-14,-43,25,11,-27,-1,-8,-34
1499879189108277,-11,24,48,-21,-4,-6,-7,7
1499879189122279,24,5,-36,-12,-4,-6,-2,-10
1499879189122279,-1,-7,-8,-10,15,7,31,14
1499879189130221,-4,-4,-8,-17,-17,-6,-29,-7
1499879189130221,0,37,21,-3,-3,-4,-13,-7
1499879189145260,-3,-14,46,2,35,3,5,2
1499879189145260,2,-3,-16,16,1,-3,-6,-5
1499879189146221,-9,6,16,17,-20,-2,18,7
1499879189146221,8,-19,-21,-41,41,-4,-6,-3
1499879189168278,-5,-22,-8,3,-22,-6,-16,8
1499879189168278,4,2,-4,6,10,12,1,-7
1499879189168278,-7,1,13,22,4,0,-2,2
1499879189168278,19,32,-21,12,-2,1,-4,-1
1499879189198266,-8,30,37,17,5,-1,18,28
1499879189198266,-13,-46,-5,-25,-28,-12,-14,-27
1499879189199223,6,14,-10,13,17,4,-8,-16
1499879189199223,3,1,-29,7,-22,3,7,4
1499879189205261,-3,-2,-24,13,48,6,8,-5
1499879189205261,-5,-39,29,22,-10,-9,2,-4
1499879189206242,2,10,11,-26,-9,-1,3,-5
1499879189206242,-1,-4,-14,-6,-39,-6,-8,42
1499879189236272,-10,-15,-7,43,18,-2,-4,-44
1499879189236272,18,36,28,-41,-6,-1,2,7
1499879189237230,2,-15,0,-13,-12,-2,6,10
1499879189237230,-13,7,24,-11,27,1,8,1
1499879189251262,-12,-9,-36,-18,-40,1,-10,0
1499879189251262,1,17,-5,29,26,0,12,-3
1499879189252224,7,-13,-2,-2,-52,-6,11,7
1499879189252224,4,1,-25,56,36,-2,-15,-21
1499879189265266,12,-8,6,-82,-22,-5,-6,25
1499879189265266,-6,-16,12,5,21,2,-15,-19
1499879189266242,4,7,-20,-20,15,5,27,51
1499879189266242,-8,13,-4,-8,-3,-11,-34,-91
1499879189288243,-22,-67,-38,22,4,4,2,10
1499879189288243,2,7,7,-19,-16,-2,-6,-11
1499879189288243,-14,-13,-42,15,11,-2,-6,-28
1499879189288243,10,28,93,11,7,3,14,43
1499879189311265,2,0,-61,-5,7,-6,-2,-13
1499879189311265,-4,-17,15,-21,-28,0,7,21
1499879189312226,-9,9,21,22,17,-1,-16,-25
1499879189312226,0,-15,-17,16,-18,-3,-13,-14
1499879189325270,13,14,22,-6,-7,7,-5,5
1499879189325270,12,22,22,24,17,-1,9,33
1499879189326242,-18,-14,-18,2,6,-3,-15,-27
1499879189326242,6,-7,7,-19,-39,-3,21,11
1499879189348271,-10,29,29,16,11,5,0,-16
1499879189348271,-12,-16,-70,7,-2,-5,-9,1
1499879189348271,8,-1,35,-23,0,1,4,16
1499879189348271,-6,-9,-13,30,11,1,13,-3
1499879189371242,8,14,-5,-24,-9,1,6,29
1499879189371242,2,-5,4,-2,6,-6,-9,-11
1499879189372229,4,15,1,16,-16,1,4,6
1499879189372229,-12,-39,-18,-20,19,3,8,18
1499879189385271,6,38,47,-3,0,-4,-3,-16
1499879189385271,-15,-9,-12,0,-1,-1,-10,-20
1499879189386243,5,-13,17,-9,-52,-6,-2,22
1499879189386243,0,8,-26,-29,27,6,0,-26
1499879189408240,5,-4,9,16,4,1,0,12
1499879189408240,3,47,-11,-9,-2,-2,3,1
1499879189408240,-7,-20,2,33,6,-1,4,-18
1499879189408240,10,-20,10,-2,-22,0,-7,28
1499879189431243,-4,-29,-12,-28,17,-1,0,3
1499879189431243,-6,11,2,-5,-9,1,-3,-2
1499879189432233,10,20,10,5,14,2,11,12
1499879189432233,-10,-4,-56,28,-25,-4,-13,-38
1499879189445272,9,9,-23,-47,6,1,-2,16
1499879189445272,-2,-7,11,11,-9,1,1,-9
1499879189446268,-4,-43,18,9,52,-4,-3,24
1499879189446268,1,28,5,-18,4,2,-3,-21
1499879189468253,0,10,-19,4,-42,-1,11,6
1499879189468253,5,-1,28,10,0,-1,-7,-19
1499879189468253,2,-9,-13,32,14,2,-5,13
1499879189468253,-1,17,5,-25,9,4,7,17
1499879189491256,0,-24,9,43,-18,-4,7,7
1499879189491256,0,-11,-28,-48,-7,-1,3,8
1499879189492244,10,43,33,10,-12,-3,-17,-20
1499879189492244,-18,-54,-38,-1,8,-6,-21,-24
1499879189505250,-8,-4,-8,-25,7,8,3,-5
1499879189505250,17,28,17,12,-4,0,-2,0
1499879189506248,-20,-50,-22,-11,4,3,5,-2
1499879189506248,1,24,-15,-9,-4,-4,5,23
1499879189528265,-3,-38,16,-3,-25,-6,-4,-26
1499879189528265,1,-4,6,34,27,-1,-10,1
1499879189528265,10,44,-38,-34,-14,-1,7,0
1499879189528265,-8,-3,33,-13,-8,-1,2,12
1499879189551274,-8,-28,-33,11,-10,-1,13,6
1499879189551274,-12,-19,-38,26,-10,-8,-28,-26
1499879189552242,13,18,-14,-1,12,4,-1,-1
1499879189552242,-4,-24,27,-11,-13,-3,0,9
1499879189565260,9,14,9,-8,11,-1,4,-8
1499879189565260,-3,-3,-4,20,-10,2,5,-7
1499879189566242,-3,3,-37,-6,-3,1,13,22
1499879189566242,7,-3,24,-8,-1,-11,-21,-3
1499879189588281,-7,28,24,11,-3,0,-11,4
1499879189588281,3,-2,9,-2,2,-1,-5,-40
1499879189589242,-10,-40,13,-24,2,-1,-19,-22
1499879189589242,-2,6,8,11,-6,1,4,-2
1499879189611282,3,-9,-44,-11,-4,-7,-5,8
1499879189611282,-5,26,38,-22,-26,2,3,15
1499879189612245,2,26,-8,-41,24,-5,4,-4
1499879189612245,0,-13,18,27,15,8,9,-16
1499879189625317,7,7,12,7,3,-2,-1,33
1499879189625317,-3,-8,-34,-5,-14,-3,4,-6
1499879189626244,0,-9,26,-23,4,-4,-5,-2
1499879189626244,-2,6,-10,9,6,1,5,0
1499879189648287,0,4,-40,-16,1,-1,3,2
1499879189648287,-5,-9,22,-8,-1,-2,-6,6
1499879189648287,6,36,30,26,-15,-9,-12,3
1499879189648287,4,-23,-40,-49,15,1,-6,-11
1499879189671282,-8,-3,1,-8,-15,2,7,-5
1499879189671282,1,-8,6,45,32,-4,-13,-24
1499879189672248,-3,-12,-3,-27,8,7,-1,-20
1499879189672248,7,-9,-7,5,-7,-6,13,33
1499879189685315,-9,6,6,5,-22,1,-14,-21
1499879189685315,3,-12,-27,-13,-1,1,11,32
1499879189686282,-5,31,5,12,24,3,-9,-34
1499879189686282,9,-7,-19,14,-4,-2,5,15
1499879189708290,5,-17,25,-13,1,-3,-1,2
1499879189708290,-5,-3,4,4,-35,0,10,4
1499879189708290,8,-6,-10,-26,17,-2,15,14
1499879189708290,-12,52,-1,-1,4,4,-10,5
1499879189731286,-3,-17,26,52,7,-4,-11,-12
1499879189731286,-5,-9,-19,-13,-2,2,0,6
1499879189732251,6,-10,19,8,-20,0,13,22
1499879189732251,-5,25,16,19,-16,-5,8,2
1499879189745292,3,21,7,-10,28,3,-2,-13
1499879189745292,0,3,-30,-20,12,-2,3,15
1499879189746251,4,-12,-5,4,-16,0,9,13
1499879189746251,-11,-2,19,3,-22,-6,-17,-41
1499879189768296,0,-6,-20,-18,10,0,-3,28
1499879189768296,0,-6,3,1,22,2,-4,-15
1499879189768296,-6,-5,1,-15,-8,-5,-15,-14
1499879189768296,1,0,-32,-26,34,4,3,3
1499879189791293,5,-8,32,37,-3,1,15,8
1499879189791293,4,34,-14,-20,-24,-1,2,-4
1499879189792255,-14,-49,15,37,-4,-5,-5,-8
1499879189792255,1,-2,-19,-19,3,-3,-2,16
1499879189804304,-1,1,-15,-6,-10,-3,-4,-10
1499879189804304,5,17,0,10,21,2,10,22
1499879189813314,-3,-1,-6,-1,-13,1,-4,-13
1499879189813314,1,-16,13,9,-18,-3,7,23
1499879189828260,-7,12,12,0,4,1,-13,-49
1499879189828260,-2,-16,-14,-4,5,-2,-2,-11
1499879189828260,-7,20,-6,10,-5,0,6,6
1499879189828260,0,-24,-35,3,-19,-2,-19,-12
1499879189851296,7,13,28,19,35,-3,1,25
1499879189851296,0,-6,23,-68,-19,-3,0,-6
1499879189852256,-10,-41,-49,-6,4,3,-7,-10
1499879189852256,6,1,18,12,6,0,8,3
1499879189865271,-1,11,-2,-3,-19,-3,2,-8
1499879189865271,2,-16,30,27,31,-2,-6,11
1499879189873326,-4,-30,-24,-43,-41,-7,-8,-8
1499879189873326,1,9,-12,-5,41,6,6,-1
1499879189888301,-3,-6,-22,-19,-4,-2,-7,0
1499879189888301,-4,-4,15,27,24,2,6,4
1499879189888301,6,26,-1,31,-3,-1,9,25
1499879189888301,-5,3,16,-21,-2,-1,-18,-53
1499879189911298,2,12,5,32,-3,-2,-2,11
1499879189911298,-7,-26,22,-34,-17,-1,0,-4
1499879189911298,0,-5,-19,15,4,0,-6,-9
1499879189911298,-5,-6,17,12,-18,2,25,34
1499879189925265,4,3,-14,24,4,-8,-26,-11
1499879189925265,1,9,-11,-19,-17,-1,-7,-5
1499879189933283,10,42,27,2,6,-5,-8,-2
1499879189933283,-4,-37,20,18,-12,-1,-3,21
1499879189948265,-8,-27,-40,-33,17,8,8,-15
1499879189948265,4,29,-13,8,-10,3,3,18
1499879189948265,-5,-6,-10,3,6,0,-9,-28
1499879189948265,17,37,26,-66,-4,-4,4,14
1499879189971283,-7,-28,-2,14,-5,-4,13,20
1499879189971283,-5,-18,-16,5,2,1,-3,-6
1499879189972264,0,34,-5,8,-19,-4,0,5
1499879189972264,-1,-18,9,33,18,3,-1,-19
1499879189985293,0,4,19,-17,-16,-4,-4,0
1499879189985293,4,3,-2,-5,-1,-2,8,16
1499879189993339,-3,-5,10,-17,14,1,9,-14
1499879189993339,-7,0,-56,0,-27,-5,-29,-22
1499879190008283,3,22,28,-17,12,0,-4,-4
1499879190008283,-5,-1,-6,41,5,-4,-4,-1
1499879190008283,8,16,9,-16,-2,3,10,21
1499879190008283,-5,-33,6,2,-7,0,11,3
1499879190031291,1,11,-8,-15,-8,1,3,0
1499879190031291,-4,-6,31,-5,12,-5,-15,-10
1499879190032275,-4,-14,12,12,-8,-7,-8,-9
1499879190032275,1,31,-19,15,17,9,15,4
1499879190045292,9,-8,9,34,-8,-1,-1,8
1499879190045292,-11,4,-17,-33,-37,-4,-6,-29
1499879190053315,2,-13,29,17,22,5,14,9
1499879190053315,-2,-8,6,2,-13,-9,-14,-3
1499879190068318,1,0,-36,20,18,-1,0,10
1499879190068318,-1,4,5,-3,0,-2,9,-4
1499879190068318,-6,-20,-13,-7,1,1,-21,-33
1499879190068318,7,7,21,16,-30,-5,4,-9
1499879190091307,-16,-18,13,14,13,4,0,-2
1499879190091307,9,7,-17,-43,-28,-6,9,21
1499879190092272,-3,13,-5,12,42,1,0,7
1499879190092272,-1,-7,-4,5,-14,1,-1,-5
1499879190104321,8,10,20,9,-14,-2,-4,-12
1499879190104321,-6,-15,-15,4,17,2,-4,-3
1499879190113274,-3,-11,-36,12,-10,-4,0,5
1499879190113274,0,-3,14,5,-3,-4,8,8
1499879190128292,5,24,-3,-33,7,-1,3,16
1499879190128292,-9,-7,1,9,10,1,-9,-18
1499879190128292,8,-15,-41,-17,-12,7,-4,3
1499879190128292,0,17,2,29,18,-3,1,-11
1499879190151284,-5,-46,13,-41,-11,-2,26,47
1499879190151284,-4,-15,-28,7,7,0,-26,-30
1499879190152276,1,11,36,12,-10,-5,-13,4
1499879190152276,12,28,-17,-13,3,4,7,7
1499879190173314,-17,-20,-21,18,-25,-14,-7,-6
1499879190173314,4,-23,14,-18,-9,3,3,-6
1499879190174284,3,24,-3,2,35,4,15,23
1499879190174284,-13,-15,-3,6,3,-4,-13,-30
1499879190188288,14,21,5,-3,12,2,-4,-2
1499879190188288,-5,-3,21,7,-9,-1,-3,-19
1499879190188288,-2,-33,-19,-2,7,0,1,4
1499879190188288,1,-7,5,-13,0,1,4,9
1499879190211281,-6,11,-7,-4,9,2,-5,-23
1499879190211281,2,-19,-19,32,-22,-14,1,15
1499879190212278,0,19,-1,-62,-15,4,-6,17
1499879190212278,-5,5,84,-9,29,5,7,7
1499879190233319,-8,-18,-10,13,-15,-5,-9,-19
1499879190233319,6,27,-18,-9,14,7,6,11
1499879190234279,-7,-7,17,18,-29,-10,0,-3
1499879190234279,-1,-14,0,-19,-2,-1,-2,10
1499879190248300,0,11,-6,-15,-7,5,0,-4
1499879190248300,2,17,14,28,17,-1,7,12
1499879190248300,-1,-4,-10,-2,0,-1,1,-5
1499879190248300,9,31,-7,9,-8,1,17,28
1499879190271322,-7,-8,5,6,-7,-7,-41,-33
1499879190271322,-8,-48,-18,-36,11,-2,-3,20
1499879190272282,-1,-16,-16,33,-16,-3,-3,-9
1499879190272282,-7,9,-10,-22,18,-2,-6,-16
1499879190293356,5,-10,-36,-58,-13,-1,23,18
1499879190293356,-5,0,-1,3,-18,0,-14,15
1499879190294291,6,22,-4,17,-9,-3,1,16
1499879190294291,-15,-21,16,16,2,-8,-7,-22
1499879190308354,4,14,0,-4,-4,2,-1,-11
1499879190308354,2,23,-21,4,-4,5,-3,-16
1499879190308354,-3,-42,15,-4,21,-6,7,-6
1499879190308354,-4,12,-31,11,-7,3,1,17
1499879190331318,2,18,15,17,-8,-3,6,1
1499879190331318,7,6,53,17,16,3,-3,5
1499879190332285,-5,7,-41,-19,-16,-6,3,-2
1499879190332285,5,-2,8,-17,-6,-1,-1,5
1499879190353325,-6,-15,22,13,3,2,-1,-14
1499879190353325,2,-14,-64,17,0,0,4,5
1499879190354294,-6,-2,6,-52,12,0,-2,-23
1499879190354294,-6,-26,-27,-5,-8,0,-1,1
1499879190368302,13,24,53,11,-9,0,9,17
1499879190368302,-9,-2,19,-24,-2,-5,-11,-27
1499879190368302,7,28,20,32,29,7,2,21
1499879190368302,-1,-13,-31,-8,-27,-8,-8,-3
1499879190391289,0,2,19,-17,-2,-8,1,28
1499879190391289,-2,-8,-1,3,4,2,11,-32
1499879190392289,-10,9,10,5,-15,6,-6,-9
1499879190392289,7,15,-2,-8,15,-3,-6,11
1499879190413324,-12,-6,-12,7,16,1,-4,-16
1499879190413324,6,4,-1,7,-19,-5,3,17
1499879190414298,-8,-4,-6,8,-9,-6,-5,-21
1499879190414298,9,6,-8,15,1,-1,-5,11
1499879190428309,-6,2,-3,-10,-7,-1,-12,-45
1499879190428309,-8,-20,21,31,23,3,0,-9
1499879190428309,12,-6,-26,-22,-30,-4,3,21
1499879190428309,-11,0,3,6,6,2,-4,-3
1499879190451336,8,8,-12,17,5,4,3,-1
1499879190451336,-8,-17,41,-47,-10,1,0,13
1499879190452292,10,45,-27,18,4,-5,0,-21
1499879190452292,-18,-67,-14,16,-7,-6,-9,-5
1499879190473293,3,2,-4,-40,-10,6,17,14
1499879190473293,6,29,2,9,21,-5,-8,24
1499879190474302,-12,4,39,11,12,3,-13,-49
1499879190474302,0,-7,-27,-43,-20,-2,-16,-18
1499879190488311,1,2,9,46,22,-2,-1,1
1499879190488311,-2,9,21,-10,-12,-4,-2,4
1499879190488311,3,0,-5,17,-12,1,7,14
1499879190488311,6,19,-17,-24,-10,-2,4,-5
1499879190511331,0,-20,-13,4,22,2,-6,10
1499879190511331,10,35,1,-1,-6,-3,6,-5
1499879190512296,-18,-41,8,-3,1,-3,-4,19
1499879190512296,-2,-4,8,33,4,4,4,-3
1499879190533366,-5,-20,-16,-28,-15,-9,-4,15
1499879190533366,2,7,-5,0,-5,2,13,-9
1499879190534306,2,11,15,2,-5,-1,8,8
1499879190534306,-5,-2,4,2,0,-2,-22,-7
1499879190548316,-5,-29,-43,-5,-2,2,1,0
1499879190548316,1,11,32,13,6,-1,-5,2
1499879190548316,-4,-27,7,-21,-15,-1,0,2
1499879190548316,9,16,4,-6,1,0,10,3
1499879190571320,-2,14,-2,25,-2,-6,-3,-14
1499879190571320,1,-1,-11,-8,33,2,9,1
1499879190572298,-9,-40,5,-31,6,3,-9,-12
1499879190572298,6,22,16,18,1,-1,11,31
1499879190593366,2,-5,-27,-12,3,-1,-6,0
1499879190593366,-3,21,9,11,-27,-4,-1,26
1499879190594309,0,12,14,9,-10,-4,-5,-49
1499879190594309,-3,-21,-15,15,17,4,9,-1
1499879190608327,-3,-13,-5,-25,-15,0,12,-11
1499879190608327,1,7,-19,2,10,-4,-25,-12
1499879190608327,4,-12,31,13,3,-2,-10,10
1499879190608327,-2,2,-35,23,-13,-1,1,-5
1499879190631312,-8,-2,-33,-36,1,-2,1,4
1499879190631312,0,-7,-10,-26,-4,-2,3,-1
1499879190632303,1,-8,2,2,-8,-4,-10,-6
1499879190632303,-3,22,14,-16,6,2,3,-10
1499879190653347,1,-1,10,20,-6,-4,-1,18
1499879190653347,-7,-30,-26,9,-5,4,4,-2
1499879190654324,11,20,9,-33,3,-2,6,13
1499879190654324,1,-2,20,16,-14,-6,-8,-9
1499879190668326,-6,12,-17,-21,1,7,2,-6
1499879190668326,2,-15,-38,15,7,-6,-10,-22
1499879190668326,-3,24,-27,-8,2,-1,-5,4
1499879190668326,2,0,-16,4,9,0,8,5
1499879190691347,3,7,34,20,-6,0,-15,-19
1499879190691347,-5,-3,7,12,-9,-2,9,8
1499879190692307,9,-3,-29,-6,-8,-2,3,27
1499879190692307,0,-11,24,-59,6,-1,-12,-8
1499879190713371,-1,14,17,-20,-18,-6,-2,6
1499879190713371,-3,-18,-4,24,17,1,5,-4
1499879190714316,1,0,-1,14,-11,3,2,2
1499879190714316,-5,5,44,8,-10,0,9,4
1499879190727309,-1,20,8,4,-5,-1,-1,-1
1499879190727309,-2,5,20,-9,6,-2,-10,-9
1499879190735372,-1,-2,17,9,-8,0,6,-9
1499879190735372,7,-2,-55,-13,18,1,-4,-7
1499879190751328,-9,-11,0,-13,-3,4,-2,-12
1499879190751328,0,-6,5,-12,-16,-2,12,14
1499879190752313,-8,-9,-5,55,10,-6,-23,-4
1499879190752313,2,12,1,-52,-18,2,4,-5
1499879190773385,5,22,37,-4,-10,-6,-9,-1
1499879190773385,-1,-64,-33,-1,-7,3,-11,-13
1499879190774314,-1,-4,24,-18,20,0,5,31
1499879190774314,-3,-13,18,25,-23,-5,-8,-6
1499879190787351,1,7,-40,17,33,-1,-2,9
1499879190787351,-4,0,-24,3,-34,-5,5,-12
1499879190795331,-3,-22,-12,-40,8,3,5,-2
1499879190795331,-3,17,31,42,12,1,0,5
1499879190811355,1,-28,-29,-77,-2,0,3,10
1499879190811355,8,32,22,17,-15,-3,-10,27
1499879190812313,-5,11,3,4,-13,-1,1,-18
1499879190812313,5,8,-24,-20,34,-5,-2,-9
1499879190833338,0,12,-9,68,-2,4,22,26
1499879190833338,-17,-24,8,-41,-2,-1,-24,-58
1499879190834325,7,7,-20,10,2,-4,-6,2
1499879190834325,-6,-13,-1,-14,2,0,-3,-8
1499879190847331,4,20,57,53,-5,0,-2,-24
1499879190847331,1,-22,-44,-47,3,-6,8,30
1499879190855362,4,11,-10,-10,-5,1,0,6
1499879190855362,-2,-1,-11,5,-22,-1,1,3
1499879190871359,-7,-9,32,9,11,1,6,-6
1499879190871359,-2,27,-25,-70,3,7,17,20
1499879190872333,-3,-6,5,27,22,-1,-16,-21
1499879190872333,6,26,-45,1,-23,-7,-2,-1
1499879190893387,-4,-31,4,-12,25,-5,-12,-8
1499879190893387,10,43,34,26,-7,8,5,-11
1499879190894327,2,-23,-19,19,6,3,23,27
1499879190894327,-11,0,51,-24,0,-2,-22,-37
1499879190907361,-2,4,-35,-5,-22,-5,-6,7
1499879190907361,-3,1,-23,10,14,1,0,-21
1499879190915364,-8,14,-5,-34,-20,0,11,29
1499879190915364,12,-12,26,46,-7,1,25,50
1499879190931359,-2,8,-5,-8,1,-2,-22,-51
1499879190931359,-2,-5,17,26,4,-6,11,35
1499879190932328,3,-3,2,-6,-14,-2,-5,-10
1499879190932328,-8,-9,-54,-30,-20,2,4,1
1499879190953392,-2,-1,26,-19,47,-5,-8,23
1499879190953392,2,-9,3,12,-23,-7,-12,-39
1499879190954334,-3,8,8,52,15,8,3,1
1499879190954334,2,-7,22,-58,-3,1,-2,13
1499879190967361,9,25,-5,27,-19,3,22,6
1499879190967361,-13,-33,57,-4,-4,-1,-12,10
1499879190975361,7,13,-17,9,8,-8,-8,-10
1499879190975361,-4,0,3,3,13,3,4,-6
1499879190991351,-5,-16,-26,7,-13,-2,-3,-2
1499879190991351,2,3,-6,36,-19,-1,40,29
1499879190991351,-2,-3,12,-91,20,0,-16,-24
1499879190991351,13,52,22,57,-16,3,8,14
1499879191013364,-15,-75,-24,-21,9,0,-10,11
1499879191013364,5,-12,2,-40,21,3,-13,14
1499879191014339,1,-15,1,-3,-25,-5,9,-10
1499879191014339,-19,-12,-40,3,10,-2,-16,-13
1499879191027367,15,-12,23,5,-1,-1,21,48
1499879191027367,-20,9,-53,10,-11,-8,-34,-69
1499879191035372,6,29,31,4,2,5,4,8
1499879191035372,-9,-6,14,0,8,-3,-4,-22
1499879191050366,-5,-26,-49,13,-23,-2,27,20
1499879191050366,-1,-13,87,27,18,-5,-36,-25
1499879191051328,2,6,-11,-40,-5,6,-11,-4
1499879191051328,5,12,-17,12,-2,-3,-2,-2
1499879191073396,3,20,-15,-21,-15,-5,-6,-16
1499879191073396,-4,-33,8,0,-25,-4,15,42
1499879191074336,-13,-15,13,14,5,0,-3,-6
1499879191074336,-4,-15,-28,4,5,-3,-6,3
1499879191096403,9,40,61,21,-7,4,8,-24
1499879191096403,5,-8,-48,-8,5,2,24,7
1499879191097331,-3,12,13,14,-1,-6,-19,-15
1499879191097331,-5,-23,1,21,-17,-2,-6,1
1499879191110374,7,-9,6,-48,26,-2,-31,-36
1499879191110374,-13,32,-38,7,1,5,6,-5
1499879191111332,0,7,54,-5,7,-2,18,35
1499879191111332,-2,-36,-69,-17,3,-5,-12,12
1499879191133340,4,5,29,2,-5,-3,1,-10
1499879191133340,3,33,-30,-7,7,0,-11,-19
1499879191134331,7,5,-19,18,2,4,21,36
1499879191134331,-8,-17,15,-9,3,-6,-3,-28
1499879191156378,-10,-3,0,33,-21,-3,-12,-25
1499879191156378,14,15,9,-31,37,5,-5,4
1499879191157333,-9,8,-37,21,-14,-6,0,-12
1499879191157333,10,-1,19,19,27,3,8,7
1499879191170374,2,-1,-37,-38,-19,0,1,21
1499879191170374,-7,3,41,31,-6,-1,-9,-34
1499879191171336,-1,3,-10,10,-11,-4,5,-12
1499879191171336,3,3,14,-14,0,-1,8,21
1499879191193380,-10,-14,8,-16,15,5,-3,-21
1499879191193380,4,15,-25,26,-15,-5,1,15
1499879191194338,4,-27,-27,-40,23,7,17,28
1499879191194338,-4,-1,-8,0,10,-9,-19,-50
1499879191216363,-1,35,21,15,6,2,-3,8
1499879191216363,-3,-52,-3,-5,-32,2,7,7
1499879191217337,-11,-24,-32,22,2,-3,-2,-12
1499879191217337,3,18,11,-7,-29,-2,8,5
1499879191230392,-8,-12,-18,2,-2,0,-31,-8
1499879191230392,10,-1,26,-4,17,-4,-4,-2
1499879191231338,-6,-10,-17,-15,-36,-5,-6,-1
1499879191231338,5,7,27,-12,46,11,22,25
1499879191253411,-5,-4,-81,-2,-28,-7,-2,-9
1499879191253411,0,34,27,-22,8,1,-19,-22
1499879191254352,6,-7,47,3,3,-7,-13,-18
1499879191254352,2,5,-42,17,-12,3,4,11
1499879191283373,-1,2,25,-5,5,-1,9,-8
1499879191283373,-9,-19,8,-2,-26,-5,7,27
1499879191284382,-4,5,6,19,21,-5,-19,-34
1499879191284382,3,7,-8,-4,-13,8,16,34
1499879191290385,-8,-8,33,6,3,-7,-15,-35
1499879191290385,5,22,-20,8,-1,6,5,15
1499879191291341,1,-34,2,-3,-7,-6,6,20
1499879191291341,-5,2,37,25,-13,-5,-9,-30
1499879191313404,-5,-2,-16,-35,-4,2,5,13
1499879191313404,2,15,-20,25,27,1,-2,-18
1499879191314366,1,12,33,2,-10,2,0,5
1499879191314366,-4,-35,-30,-27,5,-3,-9,-19
1499879191336344,8,20,9,37,-7,-3,5,12
1499879191336344,-2,-6,-4,-27,3,-4,-1,-15
1499879191337344,-6,10,13,16,14,10,4,18
1499879191337344,4,-16,7,-11,-6,0,28,32
1499879191350357,-12,1,-17,-10,-7,-12,-48,-33
1499879191350357,10,-18,-71,-7,25,0,-3,14
1499879191351345,-5,15,-2,-2,-11,0,3,-23
1499879191351345,-7,10,8,4,6,-5,-11,18
1499879191373423,11,-7,14,-19,-12,-2,15,-4
1499879191373423,2,27,42,21,12,3,3,11
1499879191375359,7,28,-12,9,-14,1,4,0
1499879191375359,-5,-27,-13,0,-26,-5,-14,-14
1499879191396392,-1,-6,9,9,33,2,10,34
1499879191396392,-1,8,-19,-16,-26,-2,2,-11
1499879191397358,4,16,-8,3,27,5,20,13
1499879191397358,3,12,3,7,-20,-4,-15,-11
1499879191409409,1,-4,2,10,19,-1,5,-3
1499879191409409,-6,-9,6,-16,5,1,0,15
1499879191418355,0,9,-7,-14,-8,-1,7,-11
1499879191418355,3,22,15,-6,13,-3,0,4
1499879191433349,-1,-13,-36,1,-15,1,-18,-18
1499879191433349,3,18,-19,-9,2,-4,5,-1
1499879191435362,-13,-27,-16,-1,-17,-5,-14,-17
1499879191435362,8,7,44,7,-5,3,2,-11
1499879191456361,-3,22,-34,-5,26,0,23,31
1499879191456361,3,-17,-2,11,-1,0,-15,8
1499879191457351,0,18,13,-2,-16,-5,-12,-8
1499879191457351,3,-15,-4,-3,35,7,-6,1
1499879191469393,-7,-1,26,6,-19,4,27,8
1499879191469393,4,-13,15,39,2,-6,5,-8
1499879191479353,1,-27,-39,-30,10,2,-9,31
1499879191479353,-8,7,21,-1,7,-3,-5,-25
1499879191493392,2,3,-5,-21,-30,-3,-7,0
1499879191493392,-2,-20,4,11,-6,-3,9,-14
1499879191495354,6,-1,17,21,12,1,6,20
1499879191495354,-7,-6,3,-30,-11,-5,-3,-1
1499879191516395,7,-8,54,21,-6,3,10,7
1499879191516395,-11,-25,8,-39,29,4,-16,-7
1499879191517354,5,16,-40,7,4,0,0,6
1499879191517354,-8,-5,-54,-1,13,-3,-3,-18
1499879191529395,-5,-22,32,15,-11,-5,0,11
1499879191529395,-2,1,24,-48,-26,2,1,3
1499879191538356,-6,-9,1,21,15,1,2,-4
1499879191538356,-6,6,-14,-35,-16,-4,-17,1
1499879191553412,7,-15,-19,7,1,-1,-9,-1
1499879191553412,-1,10,41,12,-5,0,7,29
1499879191555361,-7,-14,-8,-10,-25,-4,-8,-57
1499879191555361,4,12,60,11,13,1,16,0
1499879191576376,-2,-2,-29,0,6,-4,-20,9
1499879191576376,-8,35,45,14,13,1,1,6
1499879191577358,3,-24,-82,-16,-27,-4,-7,2
1499879191577358,-14,-16,-13,-1,12,-3,4,3
1499879191589376,4,-23,-10,10,21,6,7,-4
1499879191589376,-3,-3,-27,2,-24,-4,0,-4
1499879191598392,-1,16,14,31,12,-10,-12,-40
1499879191598392,3,-22,-19,-19,-31,12,15,13
1499879191613394,3,11,12,-12,25,2,-4,28
1499879191613394,-1,2,-17,-6,-21,-6,-8,-23
1499879191615361,-5,2,29,7,-4,-3,-6,2
1499879191615361,9,6,-13,22,10,-2,-1,-4
1499879191636428,-3,11,-8,-5,-16,0,8,3
1499879191636428,-7,5,40,21,-15,1,1,12
1499879191637362,10,0,-41,-37,43,-4,-10,10
1499879191637362,-3,0,20,-1,-13,-2,2,1
1499879191649427,-6,-4,-6,2,10,0,3,-2
1499879191649427,3,-4,-12,0,-5,0,-2,-26
1499879191658378,-6,0,-3,6,-17,-2,-3,10
1499879191658378,9,9,-13,-14,-6,-2,2,19
1499879191673383,-11,-23,10,6,2,-3,-1,-24
1499879191673383,0,6,-14,8,-3,-2,-3,-7
1499879191675398,-7,-23,15,-3,4,-1,1,6
1499879191675398,7,17,-7,9,1,6,11,14
1499879191696422,5,30,-15,-2,-7,-4,-17,-7
1499879191696422,-1,-11,-9,3,4,0,4,-12
1499879191697363,-5,-4,11,0,-21,-8,-6,-4
1499879191697363,-3,-9,-30,-21,-1,5,-1,-5
1499879191709400,2,5,-5,37,11,2,3,-3
1499879191709400,2,-9,20,-42,-7,-2,-1,6
1499879191718367,2,-4,-11,9,0,1,2,8
1499879191718367,-13,-4,17,9,22,-8,-12,-18
1499879191733399,0,3,9,-13,-16,7,7,1
1499879191733399,-4,-5,-26,5,4,-1,3,12
1499879191735377,1,5,37,-2,-17,-1,1,4
1499879191735377,5,9,-10,27,9,-1,-5,-13
1499879191756433,-4,-8,4,-23,-7,-2,12,-1
1499879191756433,-7,-28,16,1,-3,0,5,14
1499879191757404,-6,-9,-53,-4,4,4,13,5
1499879191757404,-3,7,-6,12,-12,-12,-20,7
1499879191769429,3,5,-2,-13,-1,3,-12,-27
1499879191769429,7,20,-12,-8,27,7,12,16
1499879191778388,1,-1,37,-52,-22,-1,-6,-25
1499879191778388,-3,-8,8,10,0,-4,-1,-9
1499879191793380,8,8,-5,-6,-28,-4,7,9
1499879191793380,-12,1,-52,33,22,-4,-6,-1
1499879191795381,-3,-13,43,2,0,9,3,0
1499879191795381,-1,8,7,-4,-15,-3,-1,-4
1499879191816412,-1,2,-7,0,-3,-1,1,15
1499879191816412,6,3,4,15,-13,-3,4,-7
1499879191817381,-2,3,3,-6,-6,-7,-17,-16
1499879191817381,-1,-8,-30,-18,-6,7,3,-11
1499879191829428,-2,-2,-7,4,23,-2,-2,7
1499879191829428,-1,-6,22,-8,-6,-2,-3,-1
1499879191838383,2,0,-35,28,7,0,3,7
1499879191838383,1,-2,35,-27,-20,0,1,6
1499879191853416,-6,17,-5,15,14,-10,2,-1
1499879191853416,-1,-4,-25,1,-8,5,-7,-4
1499879191855373,-4,-10,26,-36,-3,0,3,-7
1499879191855373,-2,-8,-21,8,-5,-1,-4,9
1499879191876438,7,16,28,8,2,-4,3,11
1499879191876438,-3,-16,-11,13,11,-4,-5,11
1499879191877374,-1,8,7,-42,-11,0,8,-8
1499879191877374,-2,13,18,41,-5,0,6,-28
1499879191898418,-6,-16,11,-41,20,-7,-18,-5
1499879191898418,5,12,-3,11,-6,-1,-9,4
1499879191900378,1,-7,-3,21,14,2,13,14
1499879191900378,11,22,6,14,33,0,-2,17
1499879191913445,-18,-31,10,-38,-50,5,24,-1
1499879191913445,-16,14,-23,3,19,-6,-38,-53
1499879191915378,1,3,19,17,-11,-6,-5,-11
1499879191915378,-4,-18,11,4,5,-3,-5,0
1499879191936426,-4,-16,-5,-21,14,3,2,-20
1499879191936426,10,15,15,-11,-18,-6,27,43
1499879191937379,-9,-20,-20,12,12,0,-26,-31
1499879191937379,-6,-34,-16,-2,-16,-1,-3,2
1499879191949420,23,40,-2,32,-4,6,21,17
1499879191949420,-15,-5,5,-27,30,-8,-20,-30
1499879191958379,6,-10,2,8,1,6,-9,1
1499879191958379,-9,11,-28,-18,-10,0,6,10
1499879191973446,1,-18,-9,23,16,-3,1,7
1499879191973446,4,-17,19,-33,-24,-2,-3,-7
1499879191975380,2,9,-2,-3,6,0,7,21
1499879191975380,-4,-18,1,-9,17,2,-4,-1
1499879191996382,4,30,1,12,-19,1,-7,-13
1499879191996382,-3,-11,2,18,8,3,12,0
1499879191997383,1,1,-17,-10,-8,-3,2,16
1499879191997383,10,6,25,5,-10,-4,7,0
1499879192009421,-21,-11,3,7,1,-5,-9,15
1499879192009421,5,15,-1,-41,-12,3,4,-2
1499879192018383,-3,22,-24,26,-4,-2,7,-5
1499879192018383,7,-29,9,-57,-16,0,0,16
1499879192033387,2,21,46,30,32,3,-9,6
1499879192033387,0,-20,-78,7,-14,-1,-3,8
1499879192035383,-10,19,18,12,0,-4,2,8
1499879192035383,-4,-16,31,19,15,2,-2,-5
1499879192056420,-2,-8,9,-14,-22,-9,-14,-22
1499879192056420,3,21,26,4,-8,8,19,-8
1499879192057386,-3,-29,-11,11,-2,-5,-8,12
1499879192057386,3,33,-17,-30,16,0,-3,-3
1499879192079452,-6,-29,-28,6,-1,-3,4,-23
1499879192079452,2,22,20,38,-25,-7,-13,22
1499879192080389,3,-10,-2,-67,34,4,-1,-17
1499879192080389,2,25,9,-9,12,-3,-8,17
1499879192093454,4,-7,-17,-17,-25,-1,29,21
1499879192093454,-1,-4,-29,17,24,-1,-8,11
1499879192095400,-3,20,40,20,-15,0,-13,-24
1499879192095400,-6,-32,-44,-1,-22,-4,0,-2
1499879192116459,-8,1,-17,28,8,2,-11,-15
1499879192116459,5,-27,-30,-27,13,-1,17,22
1499879192117390,0,-8,41,-6,-18,4,2,11
1499879192117390,-4,4,-12,-4,-1,-5,4,3
1499879192138457,7,30,-26,-25,-5,1,-3,2
1499879192138457,-1,-42,6,-19,-23,3,-1,-10
1499879192140392,7,25,9,27,28,-4,6,9
1499879192140392,7,12,-20,-2,7,-1,8,-8
1499879192153434,-11,-7,4,6,2,7,-6,-1
1499879192153434,1,5,10,3,-6,0,5,16
1499879192155391,6,16,-8,-17,-28,-4,0,-19
1499879192155391,-8,-13,-4,47,12,-2,7,11
1499879192176431,5,21,-12,-6,-9,-8,-27,-21
1499879192176431,-6,13,15,-9,-7,0,-6,-12
1499879192177393,-6,-37,-37,12,-17,-2,0,19
1499879192177393,-3,5,15,-43,6,4,10,-3
1499879192198434,-3,-12,4,-8,13,-1,-16,18
1499879192198434,-1,9,18,10,8,-2,-7,-55
1499879192200395,-11,-12,-25,1,-5,-2,2,5
1499879192200395,8,24,20,8,-22,-3,-16,-46
1499879192213419,1,-69,-14,21,11,-3,10,16
1499879192213419,-8,13,-12,-14,7,3,3,19
1499879192219443,-2,-22,-22,-16,9,1,-6,-26
1499879192219443,6,24,-43,6,4,3,9,0
1499879192236463,-17,-28,-9,4,-20,-3,-24,-17
1499879192236463,2,3,13,-3,-15,-11,-7,-21
1499879192237397,-6,-12,26,12,6,7,8,12
1499879192237397,-7,7,-8,18,-7,0,0,-4
1499879192258395,12,32,25,-38,4,2,4,-22
1499879192258395,-1,-28,12,-12,25,-3,-6,13
1499879192260398,-7,-5,9,20,13,-5,-17,-6
1499879192260398,-9,6,16,-5,-9,-2,-8,-8
1499879192273428,1,22,18,6,-12,1,7,-2
1499879192273428,4,-25,-28,2,-9,2,7,20
1499879192279440,14,33,-3,-21,-18,-5,5,5
1499879192279440,-2,-13,5,24,14,3,-6,-14
1499879192296447,-4,-36,4,-11,-4,-6,0,-6
1499879192296447,2,25,-6,5,17,-1,22,10
1499879192297400,4,7,-8,-8,4,1,-14,-6
1499879192297400,-1,-14,12,-2,-27,-9,-9,2
1499879192318472,-3,12,6,-4,-12,6,6,7
1499879192318472,5,-5,-21,36,13,1,10,5
1499879192320402,-15,13,29,-9,-11,1,-5,-22
1499879192320402,7,10,6,13,11,-1,-5,-18
1499879192333404,3,-20,-18,-23,-14,-2,1,4
1499879192333404,-4,-1,-8,-8,-11,1,1,21
1499879192339452,5,16,-15,8,12,-1,-16,-23
1499879192339452,3,-22,-1,4,-11,-2,-11,19
1499879192356445,7,47,13,19,4,-3,2,-7
1499879192356445,-7,-56,-34,-16,-20,1,13,1
1499879192357405,-4,-9,24,-9,15,-6,-12,6
1499879192357405,2,6,-16,1,2,0,1,-1
1499879192378472,3,8,10,20,-8,-5,1,20
1499879192378472,3,22,-9,-48,6,6,-5,-9
1499879192380404,2,-2,27,16,-17,-3,12,-6
1499879192380404,0,-16,-15,24,24,8,1,18
1499879192393422,-1,7,-6,-50,-3,0,5,11
1499879192393422,-8,4,20,18,-37,-4,-23,-28
1499879192399482,14,-4,-21,-13,25,5,16,39
1499879192399482,-13,-21,-5,-6,-4,-6,-2,-50
1499879192416457,-3,3,-8,11,9,-3,-3,-5
1499879192416457,2,1,23,15,1,1,12,-4
1499879192417406,-2,-35,-43,-21,-15,-2,-28,3
1499879192417406,-10,8,5,7,0,-2,-5,13
