timestamp,emg1,emg2,emg3,emg4,emg5,emg6,emg7,emg8
1499893707122922,9,-57,-12,-28,-4,-8,-7,40
1499893707122922,-12,34,1,37,0,3,-6,-50
1499893707127923,-22,-81,-10,33,-4,-2,1,25
1499893707127923,26,92,7,-9,1,-3,-5,9
1499893707127923,20,-6,-3,54,3,0,-5,11
1499893707127923,-38,-45,15,-61,-1,-3,-4,-59
1499893707129909,13,13,-2,26,4,6,23,33
1499893707129909,-24,-7,-7,-52,-2,2,3,-28
1499893707139914,6,29,-22,16,-11,-4,3,15
1499893707139914,14,9,11,30,-5,-9,-11,23
1499893707151950,8,-5,-19,-8,1,-5,-13,-14
1499893707151950,-19,-67,-8,66,0,-1,-1,12
1499893707155926,10,55,30,-88,0,3,2,13
1499893707155926,-2,-9,-2,-39,-3,-1,1,-1
1499893707171920,-43,-45,-33,26,0,-5,-7,-25
1499893707171920,20,5,10,5,-1,5,2,29
1499893707178928,-11,46,-5,3,-4,-1,2,-1
1499893707178928,32,13,14,39,3,-1,10,51
1499893707193934,-11,12,17,-9,3,-5,-20,-54
1499893707193934,-13,-42,-27,-81,-3,2,4,-11
1499893707200932,-26,4,0,50,-11,0,4,-8
1499893707200932,40,117,22,30,11,3,-4,18
1499893707238929,-64,20,-16,-32,-9,-12,-31,-49
1499893707238929,-36,28,6,88,2,-8,-1,5
1499893707246956,0,-17,-15,-11,-1,1,7,81
1499893707246956,3,-14,18,77,5,3,-4,17
1499893707247922,-26,-6,-35,-84,-14,0,28,-30
1499893707247922,56,-4,32,1,5,4,-20,-1
1499893707249934,-39,-7,-25,-32,-5,-2,-7,7
1499893707249934,44,-26,-23,9,-12,-17,-5,28
1499893707259965,-37,-34,3,64,2,5,15,93
1499893707259965,-9,-39,-24,-113,-14,-7,11,-35
1499893707268927,-11,125,46,16,-12,-10,-23,-27
1499893707268927,-29,-120,-59,-19,16,-6,-25,-102
1499893707274957,45,113,27,5,-9,-2,2,84
1499893707274957,-82,-106,-29,-59,-17,-1,-17,-90
1499893707289962,-6,41,-26,77,27,0,-16,5
1499893707289962,-5,97,33,8,-11,1,-10,3
1499893707297964,69,-85,14,36,-5,-7,3,16
1499893707297964,0,-43,-24,87,19,1,8,53
1499893707312965,22,45,24,-61,-24,-1,16,48
1499893707312965,-52,-82,-10,-28,-7,-8,-9,-66
1499893707319960,48,55,-44,-50,19,7,6,-40
1499893707319960,-16,1,15,28,-7,0,10,39
1499893707335970,21,-20,-2,-21,3,-1,-18,-10
1499893707335970,29,82,28,127,13,3,11,97
1499893707336972,-33,-128,-1,-54,-11,-3,-17,-31
1499893707336972,-2,-5,-21,37,-9,-4,4,-52
1499893707357964,19,16,15,-50,1,2,4,-73
1499893707357964,9,8,-8,14,-15,7,24,117
1499893707358929,9,-19,-4,41,31,5,-30,-91
1499893707358929,-17,127,1,-73,-15,-6,-11,39
1499893707372970,36,15,9,95,15,0,35,66
1499893707372970,-54,-22,-1,-128,-30,-9,-34,-99
1499893707379963,-60,79,-13,90,3,-19,-25,-15
1499893707379963,18,1,7,35,-10,3,1,9
1499893707395968,14,-10,5,75,29,17,20,82
1499893707395968,24,58,14,-31,0,-1,20,42
1499893707396932,9,53,-7,-31,-14,4,28,37
1499893707396932,1,36,11,28,5,-1,-25,-30
1499893707418954,-51,-89,7,22,-15,-4,6,-20
1499893707418954,7,-19,-9,6,-14,0,13,-1
1499893707418954,-30,-54,16,36,17,3,-9,36
1499893707418954,43,45,32,38,28,10,16,91
1499893707441000,-52,-102,-68,-50,-20,-5,-13,-79
1499893707441000,-10,21,10,-66,-5,-8,-8,-34
1499893707441932,57,34,6,52,-16,9,1,-58
1499893707441932,-29,-36,1,-32,46,2,17,55
1499893707455974,4,-11,-12,35,16,10,-17,5
1499893707455974,32,42,5,-38,5,3,7,-11
1499893707456946,-65,-111,-67,-23,0,-13,-17,-75
1499893707456946,93,103,16,30,-6,8,2,40
1499893707477973,-74,-5,-19,-41,-22,-14,-19,-115
1499893707477973,-7,23,37,-5,23,-2,6,55
1499893707478968,26,-37,-11,-9,-32,1,13,12
1499893707478968,-17,59,17,22,16,10,-2,32
1499893707501948,15,-31,21,40,15,2,42,127
1499893707501948,-46,107,49,23,-49,-14,-61,-117
1499893707502934,-18,-4,-24,-80,50,-11,-9,63
1499893707502934,-35,23,42,-18,-53,-9,2,-12
1499893707515975,64,6,55,2,13,2,-15,-5
1499893707515975,-13,-33,-19,21,-11,6,13,40
1499893707516940,64,95,84,39,3,17,34,31
1499893707516940,-29,-128,-128,-123,-1,-23,-47,-76
1499893707537982,0,66,19,48,-5,1,15,55
1499893707537982,34,41,11,32,11,1,-21,-60
1499893707538952,-16,-6,-12,10,14,-3,-13,26
1499893707538952,28,28,53,18,11,15,19,56
1499893707561004,6,-42,-40,26,-33,-10,-3,-72
1499893707561004,-13,-122,-23,-76,-8,-4,12,-39
1499893707561937,19,52,38,44,-7,0,5,82
1499893707561937,14,50,11,-32,0,-1,2,27
1499893707575982,-12,102,-18,6,19,-11,-19,-57
1499893707575982,-6,-78,-29,94,7,11,22,97
1499893707576947,-20,3,10,-68,-28,-5,-1,5
1499893707576947,49,114,5,-28,-18,-5,15,-4
1499893707597938,53,64,-6,-85,-11,-6,-26,-27
1499893707597938,-9,-22,-23,51,33,1,-7,-26
1499893707598955,-17,53,39,42,-12,9,22,52
1499893707598955,10,43,-27,47,-14,-18,-35,-85
1499893707621011,29,48,22,-38,9,12,18,59
1499893707621011,-24,80,-32,26,-20,-5,-1,-60
1499893707621941,-5,1,-1,-52,10,5,-4,18
1499893707621941,12,-3,10,21,-15,-2,21,8
1499893707635989,0,9,-4,-11,-8,-12,-31,-30
1499893707635989,1,-73,-12,-21,46,17,0,5
1499893707636942,4,-40,-23,20,-4,1,7,-7
1499893707636942,13,-9,4,25,-18,1,9,-3
1499893707657985,-58,-36,-10,21,14,-15,-20,44
1499893707657985,16,73,-2,-11,11,7,3,-14
1499893707658961,-6,-5,-22,-77,-23,-3,4,61
1499893707658961,-1,-100,32,52,21,4,-10,-54
1499893707681021,-8,-54,-27,-57,-17,2,9,-8
1499893707681021,41,75,27,31,-10,-7,18,92
1499893707681946,25,84,-12,49,21,0,-38,-124
1499893707681946,-52,-86,-6,-78,-5,-1,3,55
1499893707695987,7,75,36,33,-2,0,-6,-13
1499893707695987,-17,-38,0,-13,-30,-1,4,38
1499893707696944,67,105,19,40,23,-11,0,-75
1499893707696944,-81,-107,-53,-16,40,0,-15,-60
1499893707717965,10,44,22,28,-17,8,9,28
1499893707717965,18,67,4,10,-4,-8,16,61
1499893707718977,3,8,-1,-60,-17,-3,-14,-25
1499893707718977,0,8,-21,-34,-16,5,8,10
1499893707741014,-9,-19,-10,36,5,7,5,-2
1499893707741014,12,37,49,-46,-24,-6,1,44
1499893707741950,-26,-120,-52,-19,2,-8,10,15
1499893707741950,-9,27,15,37,-8,0,-17,-13
1499893707755995,12,-34,-8,3,22,6,10,14
1499893707755995,22,39,0,-40,20,-1,15,26
1499893707756976,-85,-81,18,12,-44,-6,-35,-58
1499893707756976,26,7,-15,0,49,15,14,54
1499893707778961,1,-30,5,6,-11,2,11,-27
1499893707778961,24,27,4,-5,12,6,20,-2
1499893707778961,-43,12,-17,39,-23,-27,-73,-48
1499893707778961,14,33,26,46,1,3,14,1
1499893707801015,-7,11,0,-48,4,-2,-1,9
1499893707801015,22,-111,-32,-100,-31,7,8,-11
1499893707801963,-31,-31,-3,42,49,19,16,1
1499893707801963,13,50,19,44,-28,-9,-2,51
1499893707815992,3,18,1,-87,2,-8,-9,-1
1499893707815992,21,70,4,59,-37,1,-3,-43
1499893707816963,15,9,29,-12,41,11,34,73
1499893707816963,2,-17,19,53,-3,-4,-6,-33
1499893707846955,9,-19,-23,-28,-27,-3,4,16
1499893707846955,-55,-88,-17,-21,14,-6,-17,-40
1499893707846955,19,-2,24,-5,-14,2,0,-27
1499893707846955,0,20,-12,-5,-22,-8,20,32
1499893707860955,14,61,2,-20,45,7,-6,12
1499893707860955,-16,-12,3,39,-1,-3,-15,-49
1499893707861955,17,64,21,19,-9,-6,10,45
1499893707861955,6,14,-26,-15,21,6,0,8
1499893707875954,-41,-70,-47,9,-37,-22,-12,-68
1499893707875954,-17,-101,-19,33,21,6,-3,-23
1499893707876965,46,70,45,-101,1,15,27,41
1499893707876965,-32,24,-13,44,2,-13,-5,39
1499893707897955,9,-6,11,12,33,10,-13,-46
1499893707897955,-19,11,0,-5,17,-4,-1,-51
1499893707898957,7,-25,9,100,-19,3,7,60
1499893707898957,6,23,-12,-102,-24,-11,-12,-36
1499893707920986,-10,-105,3,56,-11,-3,9,10
1499893707920986,-9,110,12,-26,17,-3,-9,-25
1499893707921959,18,73,3,-20,27,3,10,-1
1499893707921959,-52,-118,-62,64,-11,-7,-26,-57
1499893707935997,10,118,20,-5,-3,5,19,61
1499893707935997,13,-26,-3,-11,-7,-1,3,31
1499893707936970,-4,4,-16,-7,-11,-1,-24,-43
1499893707936970,29,6,25,27,-4,4,4,64
1499893707958000,9,12,-9,-38,10,-5,4,-34
1499893707958000,-47,-102,-16,-4,-3,-8,-27,-16
1499893707958976,25,-5,7,19,-27,-7,9,7
1499893707958976,-11,-11,14,-51,-12,3,4,-2
1499893707980972,17,-14,6,10,25,1,-18,-50
1499893707980972,9,12,-18,-1,-3,-2,11,105
1499893707981962,-1,37,-6,23,-13,-3,10,26
1499893707981962,18,-14,25,-9,-9,2,11,-3
1499893707996004,-22,29,-14,-39,-28,-9,-31,-42
1499893707996004,-11,-8,-17,54,36,1,-14,-16
1499893707996979,-18,-21,-1,6,-12,-2,3,-8
1499893707996979,50,8,-3,-33,2,6,15,52
1499893708017963,-29,-22,34,84,-13,-1,14,47
1499893708017963,-7,-49,-7,-75,-8,-8,-8,14
1499893708018970,15,-3,9,12,10,8,14,18
1499893708018970,4,52,-7,-20,-4,1,-18,-64
1499893708040982,7,72,-4,-64,27,-2,1,18
1499893708040982,-6,39,2,74,-20,4,16,53
1499893708041966,-16,21,-8,-59,-22,-15,-20,-38
1499893708041966,8,31,-4,-5,29,7,11,29
1499893708055030,1,-48,-11,102,-15,-6,-11,-17
1499893708055030,8,41,15,-84,9,3,18,39
1499893708063034,21,43,9,8,1,8,4,8
1499893708063034,-27,-87,-1,-4,21,0,-5,-20
1499893708078006,-1,31,14,-9,-41,-3,4,-1
1499893708078006,14,36,-32,31,40,1,4,18
1499893708078968,-31,-59,-14,-39,0,-6,-14,-20
1499893708078968,-5,20,1,11,-33,-5,-6,-44
1499893708100968,-9,-30,7,-12,-7,-5,-9,-29
1499893708100968,35,74,27,15,-1,5,8,27
1499893708101980,-15,-43,-20,4,2,-3,-15,-35
1499893708101980,-13,15,-3,18,14,0,5,-21
1499893708115013,12,29,-15,-27,-15,6,15,48
1499893708115013,-16,-39,-10,31,5,-7,-9,-15
1499893708123039,-12,-5,-17,5,-5,-5,-15,-61
1499893708123039,10,24,33,-1,-15,0,3,46
1499893708138015,-15,-10,-13,3,32,1,4,14
1499893708138015,16,71,24,8,-6,3,-3,-30
1499893708138970,-16,-102,-27,4,2,-7,0,17
1499893708138970,2,18,7,-48,-5,-1,12,-14
1499893708161036,5,-79,-4,16,41,7,-4,32
1499893708161036,-5,-20,-2,12,-33,-9,-13,-15
1499893708161981,-1,55,12,36,17,-2,7,8
1499893708161981,-2,6,-10,-4,3,-1,-1,-5
1499893708175002,5,-33,-7,-15,-3,-4,-2,17
1499893708175002,0,10,0,19,-21,-3,-7,-42
1499893708183046,-11,17,9,8,33,8,-1,26
1499893708183046,4,-73,-7,-12,-2,-12,-17,-21
1499893708198974,2,39,4,1,-9,4,13,28
1499893708198974,18,71,8,24,-7,-4,-1,18
1499893708198974,-11,-71,-27,-58,-28,-1,-6,-34
1499893708198974,-15,-37,7,-9,36,3,3,24
1499893708221040,8,22,-5,29,-41,-1,3,-47
1499893708221040,2,33,24,23,29,-1,2,64
1499893708222008,4,-11,-16,-23,-13,-3,3,-4
1499893708222008,12,80,14,12,-15,2,-5,-14
1499893708251990,-12,-96,-36,-6,26,4,12,24
1499893708251990,5,56,24,-3,-13,-6,-19,-37
1499893708251990,5,-39,-12,-12,7,0,11,62
1499893708251990,-13,23,5,39,-5,-4,-10,-16
1499893708266978,12,36,2,-67,-20,1,9,34
1499893708266978,-10,-27,6,14,52,6,-3,-36
1499893708266978,25,58,13,12,-21,2,6,15
1499893708266978,10,-27,-29,-13,-15,-3,8,15
1499893708280982,-4,46,18,21,26,1,-2,-1
1499893708280982,-14,-41,-4,62,-26,-5,-9,-30
1499893708281978,-3,-5,-5,-80,2,-4,-4,-32
1499893708281978,0,27,3,34,10,3,-3,-15
1499893708303038,4,30,8,37,10,3,-4,0
1499893708303038,-5,-27,-11,-21,-29,3,11,12
1499893708303979,3,29,12,38,22,3,0,16
1499893708303979,-22,-57,-9,-64,-27,-4,-3,-9
1499893708326990,13,46,15,48,8,1,-1,-6
1499893708326990,-15,-40,-9,-50,-16,-3,6,42
1499893708326990,0,-2,18,46,-5,-3,0,1
1499893708326990,10,75,-4,-17,-1,-2,0,38
1499893708341059,-33,-74,-13,1,19,-6,-17,-57
1499893708341059,14,-19,-1,-43,-10,7,10,73
1499893708341983,0,54,-11,6,3,-6,-7,-73
1499893708341983,0,5,15,39,-30,-5,-1,-4
1499893708363045,-2,3,-2,13,5,-1,-4,-9
1499893708363045,-8,-10,-17,-77,-13,-7,-4,-17
1499893708364000,26,63,-1,12,6,-6,-3,40
1499893708364000,-10,-36,17,8,-16,-4,-7,-24
1499893708386999,-1,2,-14,-4,13,10,10,7
1499893708386999,-6,5,7,45,42,-3,-7,1
1499893708386999,5,-40,-7,-44,-25,5,-2,-4
1499893708386999,-11,-32,-15,6,6,-3,-3,-8
1499893708401059,3,2,8,-43,-13,-4,2,22
1499893708401059,0,13,2,13,6,0,-7,-19
1499893708401993,11,17,10,33,-18,-2,13,22
1499893708401993,-19,41,-3,-19,37,2,-10,-30
1499893708423054,6,15,6,-41,-16,-9,-1,-11
1499893708423054,-25,-66,-24,-4,-8,3,-16,-50
1499893708423988,-7,3,-10,47,16,0,-2,21
1499893708423988,21,5,9,-45,-10,1,7,48
1499893708446998,-9,22,0,9,-12,-3,-3,-52
1499893708446998,4,8,-3,14,-16,0,11,9
1499893708446998,-15,12,3,-2,49,6,-5,-25
1499893708446998,15,44,-7,26,-5,-2,7,-31
1499893708461028,-11,-50,-15,31,-18,-5,-10,1
1499893708461028,10,16,-10,-10,-15,2,26,79
1499893708461988,-17,-33,8,-45,34,10,-10,-33
1499893708461988,8,36,18,31,6,-1,8,-2
1499893708483003,-1,-1,-11,-29,-25,-10,-8,4
1499893708483003,4,-1,4,-4,-13,-7,0,-17
1499893708483991,11,10,5,25,-13,-1,13,56
1499893708483991,-19,-19,8,-21,8,0,-7,4
1499893708506992,3,-58,-5,19,-30,-6,4,-21
1499893708506992,0,21,-10,10,101,5,-16,-41
1499893708506992,-3,-38,16,-92,-30,0,1,-3
1499893708506992,8,29,-13,43,-12,0,3,36
1499893708520992,-9,-30,12,-5,13,4,-3,25
1499893708520992,9,63,-3,-32,-34,-7,-3,-21
1499893708521995,-14,-43,-10,20,-4,-4,13,51
1499893708521995,9,-26,-9,20,17,1,-9,-38
1499893708543036,-13,47,-1,-40,-3,-1,-7,-24
1499893708543036,2,6,16,-38,-6,4,-2,-7
1499893708543993,11,3,-11,6,-13,-6,12,17
1499893708543993,-14,-31,-10,14,13,-1,-16,2
1499893708567010,7,28,5,1,-1,3,-2,15
1499893708567010,0,-31,5,63,14,4,-4,-6
1499893708567010,-4,40,12,-19,-46,-7,-7,-3
1499893708567010,-16,-47,-24,-42,4,0,0,-28
1499893708581063,13,-3,11,49,-5,-5,-4,15
1499893708581063,-9,23,6,11,14,3,6,2
1499893708581997,-1,23,-2,30,-16,-3,1,19
1499893708581997,3,-15,-6,-1,19,3,9,10
1499893708603067,16,-37,-6,-18,3,-4,-18,-22
1499893708603067,-11,-1,26,56,-24,-2,8,2
1499893708604006,5,-1,-30,75,27,2,0,10
1499893708604006,-10,-58,15,-39,-10,-3,-12,-42
1499893708626998,3,-33,0,8,11,-1,12,30
1499893708626998,4,-20,5,-13,1,1,0,-3
1499893708626998,-7,-13,-6,27,-3,-3,-28,-23
1499893708626998,-1,3,-10,-9,27,0,1,11
1499893708640027,-13,22,5,-8,-21,-2,7,4
1499893708640027,2,8,-18,-18,-23,-1,-10,-20
1499893708648027,7,-1,23,20,29,2,7,5
1499893708648027,1,-17,-18,-60,-24,-6,1,31
1499893708663039,-8,47,6,9,11,3,-4,-42
1499893708663039,4,-33,-7,-7,-12,-5,0,22
1499893708664011,-13,-5,-9,-24,-28,-3,-7,-56
1499893708664011,15,50,12,45,49,2,0,6
1499893708687023,-10,-14,-9,-19,-12,-4,-7,-9
1499893708687023,-5,-50,-6,-30,-9,3,6,46
1499893708687023,9,-17,-4,-52,-6,0,0,-24
1499893708687023,4,-17,3,94,-21,1,22,94
1499893708700065,-16,28,2,-86,2,-7,-18,-67
1499893708700065,-18,-18,-4,10,6,-7,-32,-59
1499893708708044,-1,-9,-23,-18,-2,-2,-1,6
1499893708708044,7,82,10,-4,-9,2,2,-7
1499893708723017,6,-38,2,38,13,3,12,49
1499893708723017,-3,13,-6,30,-11,0,8,28
1499893708724003,-5,10,12,11,4,-3,-9,-53
1499893708724003,7,35,-1,-18,-10,1,-4,-8
1499893708747017,-1,-12,-1,13,-1,-2,4,11
1499893708747017,0,3,1,86,-1,-7,-8,-46
1499893708747017,12,-3,2,-71,4,6,16,50
1499893708747017,-30,-36,-11,23,-5,-5,-10,-63
1499893708760046,21,29,0,-16,-2,2,-5,29
1499893708760046,2,19,4,-46,-11,2,17,29
1499893708768054,-10,23,1,116,45,-2,-12,52
1499893708768054,6,23,2,-107,-15,-7,-18,-41
1499893708783071,-12,-69,-14,61,-2,7,13,29
1499893708783071,1,60,0,-101,-12,-6,-15,-45
1499893708784018,-5,-34,0,-10,-18,0,11,20
1499893708784018,9,-1,17,37,18,4,8,16
1499893708807027,-6,-32,-7,9,-1,-4,-19,-10
1499893708807027,13,29,-8,-31,11,0,3,-7
1499893708807027,-16,-58,-22,-6,-19,-6,3,-4
1499893708807027,-9,35,14,19,-14,-3,-11,-33
1499893708820050,9,43,9,-4,1,-3,7,27
1499893708820050,13,16,9,-6,8,9,10,20
1499893708828053,-25,6,-26,48,11,-2,-16,-72
1499893708828053,2,-16,1,-40,-17,-2,7,32
1499893708843073,6,36,-6,-32,6,8,15,17
1499893708843073,-10,-1,10,-4,-12,-7,-36,-15
1499893708844010,17,36,10,11,8,-2,10,-17
1499893708844010,2,-21,-22,-20,-21,-6,-8,-3
1499893708867030,-6,3,13,2,-8,1,3,9
1499893708867030,19,-29,-19,-13,4,-6,15,49
1499893708867030,-13,-85,5,-52,47,13,-5,-14
1499893708867030,-11,-41,-2,108,-13,-8,-1,4
1499893708880052,0,15,11,16,5,-2,-4,-15
1499893708880052,3,19,-4,-35,-18,1,18,27
1499893708888025,0,30,-2,-11,-8,-8,-6,-30
1499893708888025,4,3,-13,-29,19,8,2,1
1499893708903053,-5,-1,4,103,6,-3,4,16
1499893708903053,-3,-29,-10,-18,-11,-1,3,-19
1499893708904046,1,21,21,-42,-17,-7,-13,7
1499893708904046,-10,-27,-11,-40,1,1,-1,-11
1499893708927028,4,49,-13,-37,15,1,-3,-2
1499893708927028,-3,2,-10,77,0,-3,4,-11
1499893708927028,3,16,7,-16,-9,-2,-10,-25
1499893708927028,0,31,-4,-45,-14,-4,-5,6
1499893708949056,9,12,10,-38,-18,-1,1,-10
1499893708949056,12,29,-2,12,33,4,18,30
1499893708950017,-16,-57,-14,-6,-20,1,-1,47
1499893708950017,2,43,19,58,10,0,-6,1
1499893708963088,-14,-60,-12,-19,-1,-3,1,-29
1499893708963088,12,43,19,-21,-6,1,5,42
1499893708964028,5,11,2,20,-14,-3,1,18
1499893708964028,-10,-38,3,36,-3,5,4,13
1499893708987043,8,-3,-21,-100,19,-6,9,20
1499893708987043,-10,-41,-2,58,3,-4,-32,-61
1499893708987043,-3,16,5,-5,7,-2,-5,18
1499893708987043,-1,-14,-2,-33,-9,-3,0,8
1499893709009060,0,-31,-9,19,-3,-1,-6,-25
1499893709009060,-8,1,-13,29,-13,-4,-1,-1
1499893709010032,-9,16,-1,-84,-14,-9,-8,-31
1499893709010032,3,-15,-27,21,12,3,5,0
1499893709023086,-6,-36,11,59,-4,1,0,26
1499893709023086,-13,-43,-9,-40,11,0,-6,-46
1499893709024029,13,15,15,57,-19,6,18,26
1499893709024029,15,34,7,-36,6,-2,1,0
1499893709047028,-13,10,-16,-3,-12,-9,-9,-5
1499893709047028,2,29,13,63,-3,-1,-1,4
1499893709048023,1,-28,-16,-65,8,-6,12,27
1499893709048023,3,3,16,33,-16,1,-5,-16
1499893709069038,-6,-2,6,4,24,5,2,20
1499893709069038,2,-13,-1,43,12,1,-1,-30
1499893709070037,-3,19,-8,-4,-12,-4,-3,-4
1499893709070037,1,-3,-7,-37,-6,-6,1,5
1499893709083090,-1,30,15,-33,-15,2,3,-12
1499893709083090,-6,-14,-3,-30,12,10,-11,1
1499893709084025,-2,-44,-2,55,23,5,12,51
1499893709084025,-20,-36,0,-39,4,-4,-15,-55
1499893709107040,7,-5,12,64,-29,2,1,14
1499893709107040,10,44,-17,-106,11,-12,-3,-13
1499893709107040,7,20,9,7,3,4,5,3
1499893709107040,-4,-16,2,23,-2,-1,6,21
1499893709129072,-3,-1,-9,-15,-18,-1,1,-4
1499893709129072,6,44,20,-45,6,-4,-12,18
1499893709130030,-6,-18,-11,40,7,-1,-3,-28
1499893709130030,6,16,2,8,1,0,3,14
1499893709143097,-2,-10,-1,-34,16,3,-4,-14
1499893709143097,5,10,7,50,-8,3,5,13
1499893709144028,10,-16,13,-20,-17,-9,-2,6
1499893709144028,1,33,-2,17,0,-3,-2,-34
1499893709167042,-8,-24,-17,-58,-8,-2,-10,-10
1499893709167042,-13,-14,-4,-8,-9,-3,-8,-27
1499893709167042,-6,-21,15,47,12,4,-2,-18
1499893709167042,3,5,-3,-32,8,-5,0,13
1499893709189069,9,13,6,-11,-18,0,3,5
1499893709189069,-10,-19,-17,24,-27,-3,3,-2
1499893709190033,7,27,2,5,25,8,5,-3
1499893709190033,-6,14,-1,19,11,-3,-6,13
1499893709203105,8,15,-7,13,3,0,13,33
1499893709203105,-2,-14,-1,-59,-23,-4,-19,-5
1499893709204032,-21,-46,-17,44,3,-2,-9,-31
1499893709204032,-2,3,7,-48,-1,1,7,-4
1499893709227042,-5,4,7,22,7,-5,-9,-30
1499893709227042,-13,-102,-17,62,6,-7,9,35
1499893709227042,8,28,-5,-39,-14,-1,-10,6
1499893709227042,0,-24,3,22,26,3,-1,-10
1499893709249075,-6,22,4,-13,1,0,-2,5
1499893709249075,-7,28,2,22,-4,1,8,-7
1499893709250036,13,20,13,-20,-9,2,7,9
1499893709250036,-7,-31,-8,38,3,-4,-1,-23
1499893709263103,16,39,9,-27,22,3,2,-15
1499893709263103,-9,8,5,-24,-5,6,5,-1
1499893709264035,-2,-14,-12,19,11,-6,-12,-29
1499893709264035,11,13,0,-11,-17,3,16,42
1499893709287056,-4,19,3,28,5,-4,-14,-10
1499893709287056,4,14,-14,15,2,1,-1,5
1499893709287056,11,44,28,-14,-23,-2,10,12
1499893709287056,-19,-21,-16,-36,15,0,-13,9
1499893709309087,-3,2,-2,18,-19,-6,-5,1
1499893709309087,-6,17,7,-10,14,-4,-4,-55
1499893709310039,-17,-73,-11,15,4,4,-2,13
1499893709310039,2,11,-1,-13,-7,0,3,3
1499893709323101,9,37,2,0,-10,0,1,24
1499893709323101,-21,-27,3,3,1,-2,-12,-50
1499893709324038,4,9,0,27,-16,-6,4,4
1499893709324038,2,2,2,-10,-4,-2,-16,-46
1499893709347053,-4,-20,-17,19,-10,0,-5,8
1499893709347053,14,-9,10,0,-2,-2,7,31
1499893709347053,-3,20,-5,11,13,-2,4,-4
1499893709347053,-1,22,7,21,-7,-1,-7,19
1499893709369087,1,-12,-9,10,-30,-5,-2,-44
1499893709369087,15,13,5,-9,11,-1,4,49
1499893709370053,-7,33,-9,11,33,4,-2,-20
1499893709370053,5,-3,9,5,-25,-2,10,40
1499893709383081,0,2,7,-7,0,-2,-1,-31
1499893709383081,8,2,0,22,3,2,13,56
1499893709384062,5,32,3,-11,-5,0,-12,3
1499893709384062,3,-5,0,-11,7,2,3,-16
1499893709407065,-7,-65,-5,18,6,-5,-6,-12
1499893709407065,-6,1,-8,-38,-33,-1,5,1
1499893709407065,6,10,-1,-21,11,7,2,13
1499893709407065,-12,-10,-14,26,3,-1,4,-5
1499893709429084,-3,11,28,22,-5,-5,-6,-4
1499893709429084,4,-32,-22,33,-1,-3,2,22
1499893709430046,1,-9,-4,-56,-22,-7,-13,-22
1499893709430046,-3,2,0,20,-1,-2,3,1
1499893709444085,-6,-20,-3,-5,3,1,-3,2
1499893709444085,-5,26,9,-4,12,-2,-9,-30
1499893709445046,-3,-61,-6,10,-22,2,20,40
1499893709445046,5,-24,-11,-12,29,4,-23,-45
1499893709467066,-2,-15,2,-37,5,-1,-1,22
1499893709467066,1,17,8,11,-4,2,-3,-18
1499893709467066,-10,1,-6,-7,-40,-6,4,8
1499893709467066,5,17,7,-5,13,-3,2,11
1499893709489050,-7,-19,-4,28,-1,5,8,-12
1499893709489050,11,-21,-2,-42,8,-3,-2,15
1499893709490053,-4,-11,5,28,13,3,3,-2
1499893709490053,-5,-4,-29,-16,-21,-1,3,16
1499893709503051,-4,0,3,-1,26,-2,-12,-18
1499893709503051,10,37,14,19,-9,-1,7,28
1499893709504050,-5,13,-19,1,-25,-10,-2,-10
1499893709504050,-11,-12,9,-21,21,0,-13,-53
1499893709527052,8,6,-15,-13,8,9,11,28
1499893709527052,-7,12,5,53,-4,-2,-5,-3
1499893709527052,-1,-3,-4,-54,-5,-6,-1,-11
1499893709527052,16,12,5,15,8,4,4,38
1499893709549052,-10,-15,5,35,-1,-8,5,-3
1499893709549052,-7,12,-5,-30,-9,3,-1,-8
1499893709550054,-2,40,1,8,45,5,-4,-9
1499893709550054,-7,-21,-3,28,-43,3,1,12
1499893709563082,-1,58,15,-9,12,-7,-12,-23
1499893709563082,-5,-71,-15,-50,-7,-1,8,31
1499893709571115,11,22,5,15,2,1,1,-1
1499893709571115,0,9,-2,-15,-30,-5,5,-32
1499893709587054,6,13,-4,-10,9,-1,-10,27
1499893709587054,-7,18,-1,-2,-7,-1,-6,-44
1499893709587054,2,38,9,17,39,3,-6,-34
1499893709587054,0,-10,-11,3,0,-5,2,36
1499893709609101,5,-3,-2,-1,-35,0,9,13
1499893709609101,-4,33,0,-6,25,0,-7,-3
1499893709610056,-3,13,-5,18,16,1,-9,2
1499893709610056,-5,-12,-3,-25,-7,-7,0,-7
1499893709623095,13,61,7,28,13,3,5,-10
1499893709623095,-10,-96,-7,-15,-1,1,-3,-17
1499893709631126,-12,-16,-12,-13,-11,-9,-2,31
1499893709631126,14,39,16,15,7,2,-3,-12
1499893709646099,-13,-46,-14,-5,4,2,-2,12
1499893709646099,3,-8,-2,-1,18,-3,-2,-36
1499893709647093,0,-12,10,-15,-11,-2,-1,-2
1499893709647093,3,-4,-4,11,-10,-3,4,66
1499893709669105,-11,-47,-11,-27,7,1,-3,-75
1499893709669105,-3,29,-2,31,-3,6,5,1
1499893709670061,12,24,6,-26,-25,-4,-3,9
1499893709670061,-5,3,11,-2,18,4,10,14
1499893709683073,9,10,-10,40,-12,-3,-11,9
1499893709683073,-8,-34,3,-16,9,-3,-2,26
1499893709691125,0,28,-2,9,-16,2,-6,-54
1499893709691125,0,12,-2,-8,3,-4,-3,19
1499893709707090,-10,-8,-7,16,6,1,-1,-12
1499893709707090,22,25,0,-9,-13,-2,-1,-2
1499893709707090,-8,8,-5,-11,-16,-5,2,23
1499893709707090,-11,-79,8,31,-4,1,-4,-38
1499893709729101,-5,5,5,-5,3,1,10,47
1499893709729101,-24,-66,-8,-27,3,-6,-21,-25
1499893709730064,13,-21,2,52,-8,-1,0,3
1499893709730064,0,27,13,-63,-5,4,4,-11
1499893709743108,10,20,-13,1,15,4,2,13
1499893709743108,-3,-12,6,-3,-11,-2,13,49
1499893709751131,-14,23,1,9,3,-8,-28,-88
1499893709751131,3,43,2,11,16,-5,-1,4
1499893709767092,-13,-71,4,-13,-13,0,4,17
1499893709767092,12,48,2,-22,-12,-3,1,7
1499893709767092,1,-5,3,74,-3,0,6,40
1499893709767092,-5,-15,-18,-84,-11,-4,-5,-54
1499893709789105,0,24,-1,-20,11,-2,-2,-12
1499893709789105,9,17,3,28,-3,5,4,-2
1499893709790068,2,11,6,-1,-20,-2,1,10
1499893709790068,2,-45,-12,46,34,-1,-2,-12
1499893709803078,1,35,5,-68,-32,1,7,26
1499893709803078,-8,-57,-10,28,-7,-4,-6,-51
1499893709811129,14,29,3,-2,5,3,4,5
1499893709811129,-14,-13,7,34,-4,-2,-3,0
1499893709827095,-7,-14,-4,-30,-12,1,1,11
1499893709827095,14,1,-9,-17,-1,-7,-4,5
1499893709827095,1,-8,10,-19,12,6,8,20
1499893709827095,0,-8,-7,29,-12,-2,-1,9
1499893709849082,5,26,-1,-6,16,-3,7,8
1499893709849082,-9,4,-1,33,42,1,-19,-40
1499893709850071,4,5,11,-46,-7,0,1,11
1499893709850071,-1,-30,-7,-18,-14,-3,7,37
1499893709863080,4,24,-1,53,-3,1,-14,-23
1499893709863080,-8,-45,-12,-75,-11,0,11,7
1499893709871138,-7,-25,-2,-10,7,2,11,54
1499893709871138,-12,27,2,31,-24,-6,-25,-91
1499893709886111,5,-14,-2,-16,28,4,8,18
1499893709886111,-8,10,4,11,-15,-5,-3,3
1499893709887104,-3,-18,-17,-9,11,-2,-6,-22
1499893709887104,8,17,14,20,-4,5,9,37
1499893709916113,-9,-41,-9,17,-1,-3,-1,-15
1499893709916113,-1,15,-10,-5,18,2,-3,-8
1499893709917073,-8,-14,-11,0,-4,-5,-15,-22
1499893709917073,6,48,16,12,30,10,9,12
1499893709932094,5,1,-19,-76,-52,-9,-9,9
1499893709932094,2,5,24,37,0,0,3,2
1499893709933083,-3,0,-12,15,6,3,6,-4
1499893709933083,-2,-33,-8,-31,-2,-1,6,12
1499893709945123,3,36,7,24,0,-2,-6,-9
1499893709945123,2,17,0,1,-24,1,14,38
1499893709954074,-13,-56,-13,2,-1,-7,-15,-74
1499893709954074,-8,-14,-2,16,26,2,-10,20
1499893709969115,1,0,-3,-49,-6,-3,2,-8
1499893709969115,6,37,5,35,-2,-3,0,13
1499893709971077,-5,-30,1,-30,-18,-3,5,1
1499893709971077,10,4,-3,3,-18,-1,3,23
1499893709992097,-13,32,-4,1,5,-3,5,5
1499893709992097,3,8,-8,16,6,2,-12,1
1499893709993119,4,11,9,-10,10,1,10,20
1499893709993119,-18,-31,-15,-7,-24,-10,-23,-64
1499893710005129,7,-3,5,51,7,3,7,40
1499893710005129,-1,24,1,-29,6,2,-2,-13
1499893710020138,-7,-20,5,13,4,-1,-3,5
1499893710020138,1,11,-7,-12,-9,-5,0,3
1499893710029117,2,-4,14,36,-23,-4,-4,-20
1499893710029117,8,46,-5,-5,19,-1,3,31
1499893710031081,-2,-29,-9,-10,21,6,1,-42
1499893710031081,-5,-18,-9,18,-14,-5,0,8
1499893710052095,-4,-39,25,22,6,2,0,17
1499893710052095,-19,-5,-13,-63,-22,-9,-16,-51
1499893710053091,2,31,-8,-14,-9,-5,2,39
1499893710053091,5,22,7,-7,-9,1,0,-1
1499893710066099,4,-3,-16,3,21,0,0,2
1499893710066099,-9,-16,11,24,10,3,3,-3
1499893710074082,10,19,-1,19,-33,-1,1,21
1499893710074082,-6,-8,-12,-16,42,-1,-15,-33
1499893710089125,-2,-31,11,-9,-10,-4,4,6
1499893710089125,-2,12,3,58,-25,-3,-7,-10
1499893710091093,-2,-21,-7,-81,9,-3,-7,-35
1499893710091093,8,51,13,33,0,6,18,41
1499893710111149,9,19,-23,-5,-9,-2,2,15
1499893710111149,-1,-28,3,-71,-4,-4,-7,-29
1499893710113106,-5,10,2,34,-8,-1,-2,13
1499893710113106,-10,-6,0,7,6,2,-2,-8
1499893710125152,10,17,0,-4,-14,-2,3,-3
1499893710125152,-2,-20,4,29,-8,0,-2,16
1499893710134092,18,70,2,-25,13,4,-1,-13
1499893710134092,-9,-92,-3,9,-9,-5,1,-6
1499893710149127,-16,6,-4,-32,6,1,-9,-3
1499893710149127,8,7,-1,-23,2,0,8,29
1499893710151090,-8,-16,-2,10,20,-1,-2,-17
1499893710151090,10,38,7,-13,-33,-6,10,20
1499893710171153,7,11,2,14,38,1,0,-33
1499893710171153,-17,-12,-22,-26,-18,-3,-17,-34
1499893710173129,1,2,0,28,4,0,2,29
1499893710173129,2,9,16,20,29,-1,2,1
1499893710185151,-1,2,9,-48,-22,-4,3,6
1499893710185151,6,5,-3,-12,-11,-1,-3,3
1499893710194113,-3,-11,-3,12,6,2,0,5
1499893710194113,-4,8,-12,3,-2,-2,-5,-8
1499893710209131,3,-1,3,-8,7,0,0,7
1499893710209131,5,16,-14,19,16,1,3,-11
1499893710211091,-13,-25,14,6,-17,1,-1,5
1499893710211091,4,17,-9,-26,1,-2,-3,7
1499893710231161,-3,-17,-2,23,-6,1,-5,-26
1499893710231161,-5,-6,-2,12,2,-2,2,18
1499893710233091,0,-20,5,9,10,0,-4,-2
1499893710233091,5,40,5,-22,5,3,-2,-10
1499893710245162,-4,-61,-19,8,-20,-3,1,-7
1499893710245162,14,55,17,44,30,4,2,23
1499893710254105,-16,-31,-13,-14,-15,-5,5,26
1499893710254105,2,11,2,-1,9,5,-4,-24
1499893710269131,2,19,-1,-18,-15,1,-1,5
1499893710269131,-2,-15,6,37,-2,-3,3,-14
1499893710271094,0,4,-4,11,-4,2,0,0
1499893710271094,9,22,-6,-24,-22,-8,-4,5
1499893710291161,-15,-28,-17,25,32,1,0,6
1499893710291161,1,-4,21,-40,-16,-1,-4,-27
1499893710293127,8,15,-12,19,7,0,9,25
1499893710293127,-12,-38,-4,-9,-34,-10,-5,-10
1499893710305170,4,13,-7,-4,16,6,-1,-17
1499893710305170,0,-23,-10,5,5,-1,3,10
1499893710314117,-4,14,7,-4,-10,-1,-1,6
1499893710314117,0,-32,-1,-8,15,5,1,16
1499893710329137,8,55,7,32,-25,-6,-2,-17
1499893710329137,-19,-27,-5,-37,5,-2,2,7
1499893710331098,6,4,2,9,21,0,-7,-16
1499893710331098,6,17,-12,-7,-14,-2,7,23
1499893710351178,-10,-8,14,37,-6,-4,-13,-18
1499893710351178,8,-84,-24,-68,6,1,7,30
1499893710353110,-9,10,-10,-12,-24,-11,-15,-63
1499893710353110,-3,24,12,12,-12,-5,0,18
1499893710365151,4,7,-11,17,51,10,2,-1
1499893710365151,-3,26,23,9,-23,-3,-5,-2
1499893710374098,6,-13,-7,-13,-15,0,6,-1
1499893710374098,-7,-45,-1,-8,7,-2,-6,-28
1499893710389139,8,13,8,8,-7,-3,7,12
1499893710389139,-12,-64,10,6,-2,1,-5,-35
1499893710391100,7,30,0,16,10,3,10,33
1499893710391100,-10,-29,-7,-17,-4,-1,-8,-16
1499893710411168,-7,-29,-2,-3,-19,-6,-3,-16
1499893710411168,8,44,0,6,10,4,7,34
1499893710413102,-1,-7,-16,-18,2,-6,-9,-49
1499893710413102,-5,24,-3,-2,8,5,-8,5
1499893710425175,3,30,12,0,-1,-2,2,9
1499893710425175,-11,-35,-13,22,16,1,-2,-39
1499893710434113,0,-18,19,11,-10,0,10,39
1499893710434113,-6,13,-21,-23,-18,-7,-15,-28
1499893710449143,-12,-80,-8,3,12,0,-13,-12
1499893710449143,7,53,-5,8,7,1,2,15
1499893710451124,-2,-5,9,-2,-8,0,0,9
1499893710451124,5,4,3,-8,-7,-1,12,9
1499893710471170,-5,-4,5,-23,7,-5,-5,12
1499893710471170,-8,-14,4,29,-4,2,3,-12
1499893710473115,-4,-11,-10,-7,-3,5,-3,-1
1499893710473115,15,17,14,-5,0,3,3,11
1499893710485151,-10,-22,-8,-6,-14,-7,-5,-8
1499893710485151,-4,9,5,18,-4,-3,-2,-2
1499893710494106,12,38,-3,-4,5,-3,1,3
1499893710494106,-5,-24,0,16,-6,0,3,-5
1499893710509146,4,26,-1,3,3,-4,-9,18
1499893710509146,6,17,-4,2,-16,0,2,-1
1499893710511110,-5,-32,1,-51,2,0,-6,-7
1499893710511110,7,19,0,8,2,2,2,12
1499893710531172,-6,-3,3,11,9,-4,-6,-28
1499893710531172,2,16,-6,-16,-11,4,6,-1
1499893710533111,-6,-20,1,7,-14,-3,4,34
1499893710533111,7,14,-7,-9,24,1,-2,-11
1499893710545150,-3,-1,6,7,-12,-1,1,5
1499893710545150,4,4,0,-6,2,0,-1,9
1499893710554110,-3,15,4,7,2,-6,-7,-22
1499893710554110,10,6,-3,6,4,6,14,48
1499893710569150,-10,15,-3,-4,6,3,-5,-7
1499893710569150,-7,-13,-11,-4,-16,-4,3,16
1499893710571112,-1,12,11,-16,22,1,-15,-79
1499893710571112,3,-25,-19,29,9,2,9,29
1499893710591179,11,44,10,-40,-36,-7,-4,5
1499893710591179,2,11,12,36,4,-2,1,7
1499893710593113,-9,6,-5,-17,-4,-2,2,23
1499893710593113,-6,9,8,-13,-13,-3,-10,-36
1499893710605159,2,4,-17,22,-15,-3,-6,7
1499893710605159,8,20,-6,-32,27,2,7,46
1499893710622114,-7,-16,-7,19,-9,-7,-10,-48
1499893710622114,-5,20,10,16,-6,-4,-11,-22
1499893710629154,0,-33,-6,-9,-22,4,5,13
1499893710629154,1,-25,0,9,48,-1,-2,-17
1499893710631114,-1,-23,-16,-23,-20,1,6,22
1499893710631114,-16,-20,6,6,5,-9,-8,-17
1499893710651188,11,42,8,-23,-31,-1,3,-5
1499893710651188,-14,-4,-5,26,10,-3,-3,1
1499893710653126,2,-12,3,-5,7,-1,2,17
1499893710653126,6,9,4,0,-16,2,3,-6
1499893710665163,-15,7,-13,0,21,-7,-24,-5
1499893710665163,0,-8,11,-12,-20,-1,-11,-50
1499893710674116,-4,23,-7,18,-2,-1,-1,-7
1499893710674116,1,-22,-8,11,9,4,9,30
1499893710689157,8,21,13,-3,8,2,5,22
1499893710689157,4,-29,-23,-6,14,-5,-1,4
1499893710691117,-9,10,3,-31,-28,-2,-3,-5
1499893710691117,6,18,8,15,6,-3,2,13
1499893710711195,4,3,2,-13,7,7,13,-17
1499893710711195,-8,21,3,-2,-11,-5,-8,-4
1499893710713127,16,31,8,9,6,2,3,-16
1499893710713127,4,-23,-12,4,7,-1,1,28
1499893710725161,6,29,-3,-32,-7,-1,10,17
1499893710725161,-12,-40,-1,-1,-15,-3,-5,-30
1499893710734120,3,-11,4,-7,24,1,-1,26
1499893710734120,-3,19,-11,1,-13,1,-3,-4
1499893710749161,-1,-18,-4,-3,8,-3,-6,-12
1499893710749161,13,47,7,3,-35,0,10,16
1499893710751121,-10,-68,-1,16,17,-3,-13,-5
1499893710751121,-9,-2,4,-8,2,0,-3,-38
1499893710771190,1,-32,-8,-1,-17,-2,-2,9
1499893710771190,-5,-7,-13,-21,11,3,5,-8
1499893710773131,8,14,8,-16,6,1,-6,15
1499893710773131,-2,20,10,3,-20,-5,-4,-7
1499893710785188,-17,-48,-14,-33,11,0,-1,-7
1499893710785188,-4,5,-1,4,-2,0,2,-4
1499893710794132,-1,-5,-12,14,-3,-4,-8,7
1499893710794132,-2,-24,9,-3,-18,-6,-1,-6
1499893710817148,5,14,9,37,23,7,2,-8
1499893710817148,7,5,-2,-31,-4,3,-3,33
1499893710818127,-6,-6,-7,38,0,-1,2,-1
1499893710818127,4,32,-4,-64,-1,-5,5,-14
1499893710831196,-8,-24,5,22,0,-2,1,0
1499893710831196,-3,-29,-1,20,-4,-3,-1,-15
1499893710833129,18,60,-7,26,28,6,8,30
1499893710833129,-16,-49,-12,-2,-3,-5,-10,-9
1499893710854169,2,7,3,-1,9,-5,6,12
1499893710854169,-3,1,-3,-4,-13,-1,-16,-3
1499893710856127,-3,9,3,-22,-31,-6,-5,-31
1499893710856127,-2,-29,-13,6,38,1,1,7
1499893710869155,3,-19,4,-10,-17,-2,-2,8
1499893710869155,-7,-6,3,20,-4,-3,0,-18
1499893710871128,2,12,-3,-13,-35,0,10,23
1499893710871128,-2,-1,-3,7,3,-1,-4,-15
1499893710891205,9,-1,2,3,15,4,-5,-11
1499893710891205,-4,-11,1,5,-1,-1,3,6
1499893710893139,3,36,-9,1,11,1,7,12
1499893710893139,-11,-3,-3,7,-18,-2,-18,-25
1499893710914171,3,24,-4,-5,0,-2,3,15
1499893710914171,-9,-33,-1,-20,-3,-5,-15,-33
1499893710916131,-14,-80,-8,14,5,-1,0,-9
1499893710916131,3,58,2,-10,-3,-2,9,46
1499893710929171,-8,23,7,20,-2,-5,-10,-76
1499893710929171,13,35,-9,10,-7,-2,1,26
1499893710931134,-11,-14,7,-57,-8,-2,1,-8
1499893710931134,-9,-65,7,17,41,6,0,3
1499893710952168,-7,-58,-20,-24,-14,-2,-4,-9
1499893710952168,23,90,15,17,-2,-2,13,16
1499893710953133,-8,8,2,6,-7,0,-7,-3
1499893710953133,-3,-15,-4,-13,2,0,6,10
1499893710974182,-3,51,8,-1,-12,3,-6,9
1499893710974182,-4,-49,-6,9,29,-2,-3,-20
1499893710976135,19,23,10,11,-12,-1,9,33
1499893710976135,-5,-9,-16,1,1,0,-2,-26
1499893710988181,-9,-61,-20,-8,-5,-3,1,20
1499893710988181,3,2,18,-11,1,3,4,3
1499893710995135,-9,-33,-6,12,11,-2,-3,-4
1499893710995135,4,12,8,-15,-22,5,-10,-33
1499893711011167,10,19,-6,20,10,-2,2,22
1499893711011167,-12,-5,1,-11,3,1,5,7
1499893711013137,-1,2,0,-10,-21,-7,-11,9
1499893711013137,-2,44,4,15,9,1,2,-20
1499893711034180,0,-52,-13,-6,2,-7,-8,-3
1499893711034180,6,97,2,-7,-12,0,-5,-14
1499893711036147,-6,24,-13,9,-15,-1,3,-31
1499893711036147,7,20,8,-2,41,3,6,29
1499893711048177,-6,-2,-6,-6,-10,-3,4,4
1499893711048177,3,42,14,8,-16,-6,-11,-12
1499893711055185,13,28,-1,-1,20,1,-7,-11
1499893711055185,-11,-60,-8,1,-23,0,5,8
1499893711071179,-3,22,14,12,-9,-1,0,12
1499893711071179,7,-54,-16,-17,18,3,2,-20
1499893711073142,3,66,20,-7,-8,0,-1,23
1499893711073142,1,-16,-4,3,-10,-4,-6,-20
1499893711094184,-1,11,6,-2,20,3,11,-11
1499893711094184,-5,-49,-17,-8,-19,-2,2,37
1499893711096142,-2,-7,10,29,16,3,-2,-55
1499893711096142,10,5,-8,28,13,-2,-12,8
1499893711108187,-9,-31,5,-67,-30,-1,-1,-1
1499893711108187,-19,-42,-2,22,19,-3,-1,3
1499893711115209,9,-24,1,10,16,-1,2,0
1499893711115209,-20,-55,-7,-39,-38,-6,3,29
1499893711131188,7,10,-3,10,2,1,0,-7
1499893711131188,-8,4,5,-4,-12,0,0,21
1499893711133144,12,-43,-5,-5,40,2,9,-2
1499893711133144,2,-42,-2,-3,-21,-6,-7,0
1499893711154187,-1,61,5,19,9,-1,-3,-12
1499893711154187,2,-73,-19,-6,2,-1,5,8
1499893711156154,11,18,8,-21,-16,3,3,23
1499893711156154,-8,-30,4,23,11,1,2,10
1499893711168189,-2,35,1,-7,0,1,-3,-1
1499893711168189,-2,15,5,-8,-23,0,-1,-4
1499893711175195,5,19,9,22,19,-2,1,-3
1499893711175195,6,-3,-5,-1,11,-1,-2,-6
1499893711191213,7,25,16,22,-4,-5,2,19
1499893711191213,-7,-12,-11,-11,-2,1,-2,-5
1499893711193147,-4,-1,3,0,-11,2,1,21
1499893711193147,16,49,6,-10,-19,5,2,-6
1499893711214157,-22,-20,-5,37,3,-5,-3,-43
1499893711214157,11,14,-5,-4,11,-3,2,41
1499893711216152,-3,8,-12,-23,-24,-3,-9,-12
1499893711216152,-9,-4,6,-23,14,-3,0,-2
1499893711228192,-7,-9,13,-5,-18,-2,-1,16
1499893711228192,5,44,4,13,-10,-4,1,-4
1499893711235190,-19,-100,-26,-7,11,2,3,9
1499893711235190,12,59,3,5,-8,-2,-4,-19
1499893711251215,6,-20,-9,-8,15,3,8,24
1499893711251215,-23,-54,-4,-15,6,-4,-19,-50
1499893711253160,4,14,15,15,-5,-2,7,30
1499893711253160,5,-31,-10,5,-4,-1,-4,-3
1499893711274163,4,17,-9,-25,-2,3,1,-1
1499893711274163,12,13,11,15,3,1,1,-22
1499893711276155,-15,46,-9,-6,-20,-7,-1,13
1499893711276155,-1,-45,-15,13,8,0,17,-7
1499893711288196,-6,-15,1,8,-4,-4,-26,-25
1499893711288196,0,-60,-8,0,-3,-4,0,7
1499893711295188,-4,16,7,0,20,6,-9,-26
1499893711295188,3,9,-2,-30,-21,-2,3,33
1499893711311213,-5,7,1,22,19,3,-1,-16
1499893711311213,9,38,2,-1,-16,2,5,8
1499893711313155,-12,-46,-2,10,-7,-7,-14,-5
1499893711313155,1,50,17,0,-3,1,0,-25
1499893711334170,4,-21,-31,-17,-8,-5,3,28
1499893711334170,1,30,-3,-7,-17,-5,-1,18
1499893711336157,-11,-45,8,16,16,2,0,-38
1499893711336157,8,-30,-16,1,-3,-1,-8,13
1499893711348156,-5,-40,-6,-9,-7,3,0,-22
1499893711348156,-9,41,9,5,10,-1,9,53
1499893711356197,-2,15,-4,-4,-6,-7,-8,-59
1499893711356197,-2,64,10,-11,6,3,0,1
1499893711371227,-4,-20,-6,-8,0,-8,-6,16
1499893711371227,13,14,-6,-10,3,6,8,16
1499893711373169,2,12,2,-1,3,2,7,15
1499893711373169,0,36,7,9,-29,-4,-3,9
1499893711394198,1,10,11,5,33,9,2,-16
1499893711394198,-5,17,-1,1,-7,-7,1,-16
1499893711396159,-5,-19,-14,-12,2,-7,-10,36
1499893711396159,-5,12,-6,10,-9,0,-2,-25
1499893711408177,14,15,5,-6,-10,0,13,19
1499893711408177,-8,15,5,9,21,-3,-21,-58
1499893711417161,6,-4,-1,1,-15,2,6,25
1499893711417161,-22,-97,-3,-20,1,-4,-3,67
1499893711431166,0,44,-3,22,-13,-3,-3,-20
1499893711431166,2,-14,-7,-52,4,3,11,-8
1499893711433163,-2,39,4,14,13,-3,-14,-24
1499893711433163,11,34,12,15,5,1,0,21
1499893711454174,0,-43,6,12,-20,-5,-2,-45
1499893711454174,-34,-59,-14,-20,10,-3,-24,-14
1499893711455165,5,17,-1,-1,-1,2,8,14
1499893711455165,-6,-2,-3,-2,19,-1,-3,-17
1499893711468190,10,20,6,-18,6,4,17,42
1499893711468190,-6,-17,-12,25,-12,-5,-18,7
1499893711476202,-3,-12,-3,-18,-12,-1,-7,-63
1499893711476202,-2,30,3,-20,-8,-2,-4,-10
1499893711491206,0,-61,-9,-1,-1,-2,0,13
1499893711491206,5,16,9,12,7,0,7,3
1499893711493177,3,5,-6,21,-20,-1,4,40
1499893711493177,-10,-5,-8,-40,0,0,-3,-47
1499893711514206,1,6,0,3,9,1,-3,-13
1499893711514206,10,2,7,14,-3,0,8,22
1499893711516165,-18,-85,-3,-14,-17,-3,-6,10
1499893711516165,12,47,6,12,23,2,9,0
1499893711528177,4,94,2,1,-10,-4,-8,-28
1499893711528177,-5,-27,3,6,-6,-3,-3,-9
1499893711537169,11,37,-8,-4,4,3,14,33
1499893711537169,0,8,-4,10,7,-5,-6,-13
1499893711551209,-5,39,3,-15,-4,5,1,24
1499893711551209,-3,-15,4,13,4,0,1,-23
1499893711553178,-2,31,-3,-21,-4,-5,-2,-7
1499893711553178,3,-44,-6,10,-3,-3,1,21
1499893711574208,-6,59,1,5,2,-3,-2,-15
1499893711574208,9,14,9,3,-24,-1,9,31
1499893711576170,22,32,7,10,29,0,-9,-2
1499893711576170,-26,-80,-18,-7,-8,0,-1,-6
1499893711588185,-6,-30,4,5,3,-2,-14,-28
1499893711588185,2,-5,0,-9,-17,0,0,19
1499893711597170,16,31,8,17,7,-3,9,30
1499893711597170,-6,-6,3,21,-4,-2,-6,-12
1499893711611235,-8,-54,-11,-23,17,1,1,-29
1499893711611235,-2,8,-2,-2,-5,-2,-10,-6
1499893711613184,-3,-60,-5,4,-11,-5,-4,0
1499893711613184,0,24,4,4,9,1,-5,-26
1499893711634211,-4,-20,-3,-2,-10,-1,8,28
1499893711634211,-1,27,9,-8,12,4,1,-21
1499893711635173,6,-53,-9,0,2,2,-3,-3
1499893711635173,-7,-6,-8,1,-11,-6,3,37
1499893711648193,3,4,5,-21,3,1,0,-7
1499893711648193,5,10,-5,3,0,-5,5,1
1499893711657186,-12,-2,2,-2,-8,7,2,-8
1499893711657186,13,21,5,12,-15,-2,8,31
1499893711671239,-11,0,-6,14,2,-1,-18,-40
1499893711671239,7,-19,-5,-8,3,0,-5,13
1499893711673180,-4,16,7,-46,-14,-1,0,4
1499893711673180,-11,-26,0,3,-9,-4,-2,-29
1499893711694215,4,6,-9,14,-2,-1,-7,27
1499893711694215,8,23,-1,-15,9,2,0,-2
1499893711695176,-15,2,-1,7,-12,-7,-1,-1
1499893711695176,12,38,-1,10,6,4,10,19
1499893711708187,-13,-39,1,-36,-2,-2,-6,-33
1499893711708187,0,9,-6,7,6,0,-2,2
1499893711716218,2,43,8,0,-8,-3,6,-9
1499893711716218,4,9,-1,-2,0,-1,3,7
1499893711731249,-3,-12,-2,1,-13,-4,0,35
1499893711731249,-5,-44,-16,-9,9,2,-3,-8
1499893711733213,-1,25,6,1,0,1,6,6
1499893711733213,-8,-66,-6,-3,15,-3,-13,-20
1499893711754220,6,31,-6,15,4,4,0,22
1499893711754220,-2,1,3,1,2,-1,1,-1
1499893711756179,-8,-18,-3,1,-1,-4,-6,0
1499893711756179,22,70,6,-9,6,6,5,26
1499893711776224,-6,-84,-8,12,5,0,11,-11
1499893711776224,-21,22,2,11,-7,-2,-24,-57
1499893711778182,-3,-42,-23,-30,-6,-1,-2,-4
1499893711778182,3,36,10,17,16,0,1,-6
1499893711791247,10,25,5,-13,-11,-2,6,42
1499893711791247,-1,26,-11,3,-11,-9,-13,-24
1499893711793182,-9,-55,0,17,9,3,-4,-15
1499893711793182,-4,0,-6,-22,-17,-5,-7,-3
1499893711814224,-2,2,6,14,-7,-7,-4,-3
1499893711814224,0,0,0,-20,-3,1,7,13
1499893711815184,6,8,0,13,7,2,6,47
1499893711815184,-15,21,-2,-14,5,-3,-28,-94
1499893711836231,-2,-44,-13,17,-3,-5,-6,-4
1499893711836231,6,12,6,-27,-4,3,12,24
1499893711838186,4,13,3,16,2,0,1,12
1499893711838186,11,25,3,-26,-21,0,6,5
1499893711851250,-16,-11,12,3,-9,-3,-3,-15
1499893711851250,1,-15,-13,-3,21,2,-2,25
1499893711853188,3,0,1,7,4,-3,2,-3
1499893711853188,0,3,5,12,-5,-5,7,15
1499893711874226,0,15,-10,1,3,12,-6,-4
1499893711874226,0,-28,-2,3,1,-4,-8,-17
1499893711875188,-1,47,5,4,8,0,-5,-18
1499893711875188,0,-62,-9,6,-28,-5,-1,1
1499893711896246,-1,43,9,-3,21,1,18,26
1499893711896246,3,23,7,9,-11,-1,-7,-2
1499893711898189,-9,-11,-12,-8,-15,-6,-9,-24
1499893711898189,0,12,2,2,11,-1,-3,5
1499893711911232,4,25,2,-8,-5,-1,5,19
1499893711911232,4,-9,-3,14,-9,-1,11,-2
1499893711913189,3,48,5,5,18,5,-5,-35
1499893711913189,-5,-63,-9,-18,-17,-2,5,32
1499893711934228,6,4,-4,11,34,3,0,39
1499893711934228,-11,7,8,-7,-8,-2,-7,-59
1499893711935191,2,4,-11,-3,-10,-3,-1,-33
1499893711935191,-10,-8,-8,-20,-6,1,-6,-38
1499893711956231,7,-2,3,13,20,-3,-9,8
1499893711956231,3,13,5,1,-20,-3,3,18
1499893711958193,1,-2,-9,-5,2,5,6,13
1499893711958193,-3,27,10,12,17,3,6,7
1499893711971204,-1,-76,-7,-7,-8,-5,-12,-28
1499893711971204,2,9,1,-4,-4,3,13,36
1499893711978192,-9,-13,1,-18,-5,-5,-8,10
1499893711978192,9,30,0,23,25,4,0,31
1499893711994232,1,-12,-3,-1,-16,-4,2,-15
1499893711994232,4,15,2,-4,-5,2,5,41
1499893711995194,-32,-97,-9,-6,-4,-6,-24,-86
1499893711995194,5,2,1,8,-2,2,0,31
1499893712016233,-1,18,3,-27,1,2,7,10
1499893712016233,-1,-22,-9,16,7,-10,-9,-17
1499893712018196,9,32,8,-1,4,7,-1,41
1499893712018196,-1,-5,2,12,2,-5,-2,-9
1499893712031221,3,5,-14,-14,-29,-3,-7,-12
1499893712031221,-17,-57,-8,-8,5,1,10,3
1499893712038222,2,-39,-1,9,14,-3,1,4
1499893712038222,-2,3,-10,-8,12,4,-2,-11
1499893712054263,4,17,7,8,-27,-5,-3,-2
1499893712054263,6,31,7,-8,-1,-3,4,31
1499893712055216,2,11,0,0,-2,-2,0,-47
1499893712055216,-14,-27,2,0,8,-1,-1,-23
1499893712076259,2,26,6,-13,-19,0,-1,7
1499893712076259,6,9,-6,10,21,3,-4,-26
1499893712078202,6,-15,5,-19,18,0,4,33
1499893712078202,1,-1,-7,9,-10,-7,-1,8
1499893712091221,3,3,-3,-8,-12,-5,-5,-13
1499893712091221,3,53,11,8,15,3,4,1
1499893712097237,0,-33,-8,8,-27,-2,14,43
1499893712097237,2,40,-2,-16,34,0,-19,-62
1499893712114239,-5,-48,-4,5,1,-1,-6,4
1499893712114239,-2,-4,1,0,-5,-3,-8,-1
1499893712115202,-5,21,5,1,-13,0,5,13
1499893712115202,-2,6,-2,8,-13,0,0,13
1499893712136218,-6,12,-3,-11,8,-1,3,-2
1499893712136218,12,0,4,17,-25,-3,-6,10
1499893712138204,-18,-12,-12,-23,16,-3,-9,-4
1499893712138204,0,-3,8,-22,-15,1,4,-11
1499893712151269,1,-2,-2,6,12,2,7,32
1499893712151269,-10,-3,11,-5,-27,-7,-4,-67
1499893712158203,3,-21,-23,3,10,-1,-4,4
1499893712158203,-4,8,1,8,4,0,1,20
1499893712174205,4,32,6,-3,4,3,9,15
1499893712174205,-10,-29,-5,7,2,-3,-10,-26
1499893712175206,10,42,10,-18,-20,-9,-8,3
1499893712175206,-9,-49,-12,8,2,0,7,2
1499893712196234,-2,13,-7,-18,-4,1,-2,-29
1499893712196234,5,-9,-5,17,21,4,8,57
1499893712198207,-5,15,-7,-23,-3,1,-8,-87
1499893712198207,7,7,3,0,-10,-2,10,37
1499893712211271,-10,0,-4,11,-4,-6,-11,-38
1499893712211271,1,-11,-3,-13,-3,-1,1,4
1499893712218220,5,20,3,15,-8,-1,3,19
1499893712218220,-4,-25,4,-3,-6,4,8,61
1499893712234246,-10,20,-7,7,0,-4,-15,-62
1499893712234246,-5,2,-12,-26,0,-2,-14,-40
1499893712235208,8,12,14,17,0,1,3,19
1499893712235208,0,11,-7,-7,-2,-4,-5,-2
1499893712256251,3,27,7,7,-4,0,3,23
1499893712256251,-13,-63,-11,6,2,2,6,30
1499893712258220,4,21,-11,13,7,-2,-6,-7
1499893712258220,-1,8,13,-57,-19,1,-3,-10
1499893712270271,3,3,5,10,10,3,8,17
1499893712270271,1,21,-2,-17,-2,-2,-5,-9
1499893712279213,1,-5,7,14,-4,0,-2,2
1499893712279213,2,6,-7,17,3,-2,-1,-13
1499893712294253,-6,-37,-4,-10,-15,-4,-4,9
1499893712294253,4,-3,1,0,21,3,8,4
1499893712295223,0,-1,-4,1,-8,5,12,53
1499893712295223,-2,4,5,19,13,-3,-12,-38
1499893712316272,1,-7,1,-6,-3,-1,-7,0
1499893712316272,-4,-8,0,4,3,-3,-4,-10
1499893712318227,-3,-12,2,-9,1,3,0,-5
1499893712318227,5,52,-10,6,-9,-3,3,23
1499893712330214,0,-10,2,-17,10,-3,-2,20
1499893712330214,-5,-8,-3,22,5,-1,-1,-24
1499893712339216,-3,9,5,-23,-1,2,-1,-7
1499893712339216,2,-24,0,4,-24,-7,-6,-6
1499893712354253,-1,24,12,25,27,-2,1,14
1499893712354253,-3,12,-10,-21,-7,0,0,-26
1499893712355217,-2,7,-1,18,0,-4,-3,-4
1499893712355217,0,-19,4,-19,1,3,6,-8
1499893712376257,-13,0,-4,-10,-39,-10,-7,-18
1499893712376257,4,29,1,13,48,2,-12,-35
