timestamp,x,y,z
1499879127458344,2.5,0.25,2.5625
1499879127480353,4,2,2.5
1499879127504386,2.9375,2.3125,2.5
1499879127519385,3.6875,2.1875,4.5625
1499879127540366,3.375,2,6.375
1499879127564388,3.5625,1.375,6.1875
1499879127579368,9.5,1.25,6.75
1499879127632355,7.9375,2.1875,6
1499879127633357,9.5,1.375,5.375
1499879127644354,4.1875,0.125,5.6875
1499879127661394,3.875,-0.5625,5.375
1499879127685394,10.25,1.625,4.4375
1499879127699399,10.8125,2,2.0625
1499879127743369,9.5,2.25,1.125
1499879127753418,7.5625,-0.9375,0.75
1499879127759366,5.75,2.625,-2.375
1499879127781384,-3.0625,3.625,-0.75
1499879127803402,-15.0625,2.25,4.625
1499879127826436,-20.3125,-0.0625,3.25
1499879127848373,-3.625,1.3125,2.3125
1499879127865370,4.625,2.75,-0.0625
1499879127886414,2.625,2.4375,1
1499879127910372,-16.125,1.8125,-0.25
1499879127925373,-9.5,0,-0.6875
1499879127947382,1.1875,1.8125,-2
1499879127962382,-1.625,0.375,-2.375
1499879127985377,-9.125,-2.25,-1.875
1499879128007416,-6.8125,-1.25,-2.5625
1499879128022415,0.0625,0,-2.75
1499879128045381,1.375,1.9375,-2.5
1499879128067381,-3.8125,1.0625,-1.375
1499879128082383,-4.5625,0.375,-0.625
1499879128105385,-1.6875,1.4375,0.0625
1499879128127392,-0.3125,1.9375,0.0625
1499879128142387,-3.0625,1.625,-0.3125
1499879128165389,-2.875,1.375,-0.25
1499879128187425,-3.0625,1.125,-0.3125
1499879128202391,1.0625,1.375,-0.875
1499879128225392,1.1875,1.375,-0.375
1499879128247433,1.3125,1.4375,-0.5625
1499879128262394,-1.625,-0.0625,-0.6875
1499879128285408,-2.75,-1.125,-0.6875
1499879128309396,0.625,1,-0.9375
1499879128322398,0.3125,1.1875,-0.75
1499879128345409,-2.6875,0.9375,-0.9375
1499879128367442,-3.1875,-0.625,-0.5
1499879128382401,-1.4375,-0.6875,-0.125
1499879128405401,1.875,0.0625,-0.25
1499879128427415,-1,0.375,-0.4375
1499879128448444,-1.125,1,-0.4375
1499879128465405,-0.6875,0.9375,-0.5625
1499879128487445,-1.9375,0.0625,-0.3125
1499879128508415,-1,0.875,0.0625
1499879128525407,-1,1.25,-0.5625
1499879128547443,-0.125,1.875,-0.6875
1499879128568415,-1.4375,1.4375,-0.9375
1499879128591456,-1.0625,0.6875,-1.125
1499879128607449,-1.5,0.375,-1.5625
1499879128628459,-2.1875,-0.3125,-1
1499879128645419,-1.8125,0.1875,-1.375
1499879128667453,-1.0625,-1.1875,-0.6875
1499879128688493,-1.5,-1.4375,-1.0625
1499879128705419,-0.375,-1.4375,-0.5
1499879128727419,0.75,-0.4375,-0.125
1499879128750421,0.0625,-0.4375,-0.3125
1499879128772427,-1.25,-0.8125,0.0625
1499879128786461,-0.375,-0.1875,0.3125
1499879128810427,1,0,0.1875
1499879128832435,-0.875,-0.0625,0.6875
1499879128847436,-0.25,0.625,0.6875
1499879128870428,1.25,1.5,-0.125
1499879128892444,0.5,1.5625,-0.4375
1499879128913498,-1,1.625,-0.8125
1499879128930442,-1,1.0625,-0.3125
1499879128952448,-1.0625,-0.125,-0.4375
1499879128973448,-0.25,0.875,0.125
1499879128990438,0.8125,0.9375,0.375
1499879129012447,-0.6875,0.4375,0.375
1499879129033475,-0.5,-0.5,0.5
1499879129050458,0.5625,-0.6875,0.125
1499879129072439,-1.1875,-0.375,-0.1875
1499879129093502,-2.3125,-0.875,-0.3125
1499879129110466,-1.625,-0.8125,-0.5625
1499879129132478,-1.4375,-0.875,-0.375
1499879129153485,-1.0625,-0.8125,-0.75
1499879129170446,-0.3125,-0.25,-0.3125
1499879129192486,-0.0625,0.0625,-0.3125
1499879129213515,-0.9375,0.0625,-0.3125
1499879129230449,-0.1875,0.5625,-0.375
1499879129253461,0.3125,1.1875,-0.125
1499879129273491,-0.75,0.875,-0.375
1499879129290452,-1.6875,0.4375,-0.5625
1499879129312461,0.375,0.8125,-0.5
1499879129333464,0.6875,0.3125,-0.3125
1499879129350457,-0.25,0.3125,-0.4375
1499879129372456,-0.75,-0.625,-0.375
1499879129395460,0.4375,-0.8125,-0.5625
1499879129410459,1.25,-0.875,-0.5625
1499879129432466,1.1875,-0.5,-0.375
1499879129455462,0.5625,-0.1875,-0.4375
1499879129470462,0.0625,-0.25,-0.5625
1499879129492496,-0.8125,-0.75,-0.375
1499879129515465,-0.875,-1,-0.4375
1499879129529477,0.0625,-0.375,-0.4375
1499879129552501,0.625,-0.25,-0.375
1499879129575469,-0.375,0,-0.4375
1499879129589470,0.0625,0,-0.8125
1499879129612477,-0.6875,-0.9375,-0.5625
1499879129635472,-0.25,-0.5,-0.9375
1499879129649483,1,-0.3125,-1.4375
1499879129672481,-0.4375,-1.25,-1
1499879129695476,-1.1875,-1.1875,-0.8125
1499879129709514,0.0625,-0.75,-0.3125
1499879129732489,0.75,-0.4375,0.25
1499879129755512,0.1875,-0.25,-0.25
1499879129769490,1,-0.4375,-0.5
1499879129792497,-0.125,-0.4375,-0.4375
1499879129815483,-0.3125,-0.9375,-0.3125
1499879129829520,0.5,-1.0625,-0.3125
1499879129852492,-0.6875,-0.875,-0.25
1499879129875487,0,-0.125,-0.375
1499879129896560,1.3125,0.375,-0.5
1499879129912524,0.75,0.4375,-0.4375
1499879129935489,-0.375,0.625,-0.25
1499879129956537,-0.375,0.4375,0
1499879129972495,-0.0625,1.0625,0.125
1499879129995493,0.3125,1.375,0.125
1499879130016529,-1.25,1.3125,-0.0625
1499879130032520,-0.1875,1.0625,0
1499879130055504,-1.5,1,-0.125
1499879130076500,0,0.9375,0.3125
1499879130092504,-0.4375,0.3125,0
1499879130115512,-0.6875,0.1875,0
1499879130136519,-0.0625,0.5,-0.1875
1499879130152516,-0.25,0.3125,-0.25
1499879130175503,-1.625,0.0625,-0.5625
1499879130196548,-2.375,0.125,-0.625
1499879130212517,-2.4375,0,-0.5
1499879130235506,-2.25,-0.125,-0.1875
1499879130256581,0.1875,0.25,0.125
1499879130272520,-0.8125,0,0.1875
1499879130295510,-1.0625,0.3125,-0.0625
1499879130317523,-0.6875,0,0.125
1499879130332523,-1.0625,0.4375,0.125
1499879130355534,-0.5,0.6875,-0.1875
1499879130377516,-1,0.8125,0.0625
1499879130392549,-0.875,0.4375,0.3125
1499879130415536,-0.3125,0.625,0.8125
1499879130437530,-0.5,0.5625,0.6875
1499879130460521,0.125,0.75,0.25
1499879130475522,-0.875,0.5625,-0.1875
1499879130497536,-1,0.3125,-0.5
1499879130511570,0.3125,-0.1875,-0.3125
1499879130535560,-0.5,-0.5625,-0.125
1499879130557559,-0.0625,-0.75,0.1875
1499879130571536,-0.125,0,0
1499879130595530,0.1875,-0.125,0.0625
1499879130617536,-1,-0.5625,0.125
1499879130631534,-1.1875,0.125,-0.125
1499879130655531,0.9375,0.125,-0.125
1499879130677545,0.25,0.25,0
1499879130691544,-1.0625,0.3125,-0.0625
1499879130715537,-0.3125,0.875,-0.375
1499879130737544,-0.5625,0.9375,-0.625
1499879130751563,-0.6875,0.3125,-0.6875
1499879130775540,0,0.25,-0.375
1499879130797551,0.25,0.25,-0.4375
1499879130818581,-0.6875,0.25,-0.5
1499879130835544,-0.25,-0.1875,-0.125
1499879130857555,-1.8125,-0.375,-0.4375
1499879130878583,-1.125,-0.4375,-0.125
1499879130895545,1.25,-0.0625,0.0625
1499879130917580,0.0625,0,-0.0625
1499879130938625,-1.875,-0.4375,0
1499879130954597,-1.125,0.1875,-0.0625
1499879130977569,0,0.4375,-0.25
1499879130998584,0.625,0.6875,0
1499879131015554,0.75,0.625,-0.25
1499879131037569,0.4375,1.3125,-0.4375
1499879131058594,1.25,1.8125,-1.125
1499879131074567,1.125,2.0625,-2
1499879131097590,-0.5625,1.25,-2.75
1499879131118609,0.1875,1.25,-2.6875
1499879131135564,0.625,2.1875,-2.5
1499879131157594,-4.875,0.6875,-1.6875
1499879131178571,-3.8125,0.125,-1.375
1499879131194599,-0.5,1.125,-1.9375
1499879131217590,-0.375,-0.125,-1.25
1499879131238612,-2.5625,-1.1875,0
1499879131254598,-1,-1,0.4375
1499879131277610,0.6875,-0.3125,0.875
1499879131299601,-0.5625,-0.5,0.375
1499879131314581,-1.3125,-0.9375,0.375
1499879131337580,-0.6875,-1.0625,0.1875
1499879131366596,-1,-0.6875,-0.25
1499879131374573,-1,-0.5625,-0.0625
1499879131397586,-0.25,0,-0.375
1499879131420577,-0.8125,1,-0.75
1499879131425647,-1.5,0.125,-0.5625
1499879131441586,-1,0.125,-0.1875
1499879131462578,0.5625,0.875,-0.4375
1499879131485647,-0.375,0.5625,-0.25
1499879131501590,-1.25,0.3125,-0.0625
1499879131522650,-0.3125,-0.5625,0.125
1499879131545629,-1,-1.3125,-0.0625
1499879131561593,0.0625,-0.9375,0.1875
1499879131582649,-0.8125,-0.4375,-0.6875
1499879131605652,-1.3125,-1.3125,0
1499879131621597,-2.3125,-2,0.625
1499879131644588,-1.1875,-1.0625,0.5
1499879131665631,0.6875,-0.0625,0.5
1499879131681600,0.8125,0.625,0.625
1499879131702664,-1.0625,1.0625,0.0625
1499879131725650,-1,0.0625,0.125
1499879131741626,-0.8125,0,0.4375
1499879131762644,-0.125,0.5,0.5625
1499879131785671,-0.4375,0.875,0.625
1499879131801598,-0.3125,1.0625,0.0625
1499879131822609,0.25,0.375,-0.1875
1499879131845659,-1.0625,-0.125,-0.0625
1499879131861611,-0.4375,0.125,0.25
1499879131882633,0.9375,0.1875,0.4375
1499879131905648,0.375,0.0625,0.75
1499879131921643,-1,0,0.25
1499879131942647,-0.375,-0.5,0.3125
1499879131965645,-0.125,-0.4375,-0.125
1499879131981607,-0.3125,-0.3125,-0.125
1499879132002609,-0.6875,0,-0.4375
1499879132025649,0.4375,-0.1875,-0.0625
1499879132041621,0.6875,-0.25,-0.125
1499879132062657,-0.25,-0.25,0
1499879132085652,-0.5625,0.125,-0.1875
1499879132101647,0.375,0.375,-0.0625
1499879132122682,0.1875,0.75,0
1499879132145656,-1,0.5,0.125
1499879132163617,0.25,0.375,0
1499879132182618,0.5625,0.375,-0.0625
1499879132205639,-0.875,0.375,-0.6875
1499879132223621,-0.625,0.1875,-0.5
1499879132242690,0.375,0.3125,-0.25
1499879132265627,0.1875,-0.4375,0.0625
1499879132283625,-0.0625,-0.6875,0.0625
1499879132302689,0.75,-0.6875,-0.1875
1499879132325668,-0.25,-0.1875,-0.4375
1499879132343630,-0.5,-0.625,-0.3125
1499879132362696,0.3125,-0.625,0.125
1499879132385703,-0.375,-0.25,-0.4375
1499879132403646,-0.375,-0.3125,0
1499879132422696,-0.0625,-0.125,0.0625
1499879132445707,-0.3125,0.5,-0.3125
1499879132463646,-1,0.1875,-0.1875
1499879132482686,-0.4375,-0.375,-0.0625
1499879132505707,0.9375,0.5625,0.1875
1499879132523640,0.4375,0.875,-0.3125
1499879132542682,-0.3125,0.375,0
1499879132565691,0.0625,0.5625,-0.5625
1499879132583644,0.125,0.3125,-0.25
1499879132602686,-0.75,-0.125,0
1499879132625707,0.3125,-0.3125,0.1875
1499879132647691,1.25,0.3125,-0.125
1499879132664648,0.375,0.5625,-0.875
1499879132685710,0,-0.0625,-0.25
1499879132707723,0.25,-0.6875,0.1875
1499879132722718,0.5625,-0.8125,0.5
1499879132752693,0.75,-0.375,0.375
1499879132767696,1.25,0.125,0.375
1499879132782700,1.125,0,0.125
1499879132805697,0.875,-0.4375,0.0625
1499879132827701,1.6875,-0.125,-0.25
1499879132844671,1.25,-0.3125,-0.1875
1499879132865701,1.375,-0.5,-0.125
1499879132887725,2.3125,-0.5,-0.3125
1499879132904661,0.1875,0.125,-0.9375
1499879132925705,-0.1875,-0.3125,-0.75
1499879132947704,1,-0.375,-0.3125
1499879132964667,-0.0625,-0.625,-0.3125
1499879132985735,0.4375,-0.4375,0
1499879133007736,1.5,-0.25,0
1499879133024682,2.5625,-0.0625,-0.1875
1499879133045693,2.5625,-0.6875,0
1499879133067710,3,-0.5625,-0.5
1499879133084684,3.375,-0.3125,-0.625
1499879133105736,2.75,-0.0625,-0.5
1499879133127716,0.6875,-1.0625,-0.8125
1499879133145675,-0.3125,-1.875,-1.125
1499879133165715,0.375,-1.6875,-0.875
1499879133187744,0.3125,-1,-1.5625
1499879133205686,0.375,-1.125,-0.75
1499879133225748,1.8125,-0.6875,-0.5
