timestamp,x,y,z
1499893757756680,1.125,-0.3125,1.75
1499893757779682,-1.375,0.375,1.625
1499893757795684,-2.25,1,1.125
1499893757818702,-0.8125,1.125,1.6875
1499893757839682,-1.5625,0.25,2.875
1499893757854742,-4.6875,-0.75,2.1875
1499893757878728,-1.875,-1.5625,2.75
1499893757899732,2.1875,-0.875,3.1875
1499893757955731,3.75,-0.125,4.125
1499893757957730,5.875,-0.0625,5
1499893757958697,5.75,1.3125,4.4375
1499893757971706,5.25,1.1875,5.125
1499893757991728,8.6875,0.6875,5.0625
1499893758013733,1.8125,3.25,1.875
1499893758056753,4.5625,3.75,3.4375
1499893758067745,0.375,1.5625,3.875
1499893758073703,3.75,0.8125,3.25
1499893758088704,3.9375,2.625,3.125
1499893758111717,4.5625,4.375,4.375
1499893758140753,-6.75,3.75,5.5
1499893758156709,-12.625,5.5625,3.4375
1499893758179716,-10.6875,7.125,2.875
1499893758200775,-11.5,4.375,2.8125
1499893758216746,-12.625,4.75,0.875
1499893758239709,-6,3.375,1.375
1499893758261723,-5.3125,2.3125,0.5
1499893758282728,-7.125,1.625,-1.5
1499893758299714,-8.0625,-0.5625,-1.5625
1499893758321714,-5,-1.3125,-1.4375
1499893758336724,0,-1.5625,-0.8125
1499893758359715,-0.4375,-0.9375,-0.125
1499893758381718,0.4375,-0.9375,0.4375
1499893758395729,0.4375,-1.375,0.5625
1499893758419755,0.0625,-0.25,0.875
1499893758441761,-0.5,-0.625,0.125
1499893758455732,-0.3125,-0.1875,0.3125
1499893758479724,-0.375,1.3125,-0.375
1499893758501744,-1.8125,1.25,-0.8125
1499893758515741,-1.3125,1.5625,-0.3125
1499893758539736,-0.125,1.125,-0.5
1499893758561764,-1.6875,1.75,-0.375
1499893758575740,-1.875,1.4375,-0.75
1499893758599731,-0.75,1.4375,-0.125
1499893758621731,-0.0625,1.8125,0.0625
1499893758635743,-2.3125,0.625,0
1499893758649773,-1.75,-0.25,0.0625
1499893758672761,-0.0625,0,0.25
1499893758687754,1.5,-0.3125,0.0625
1499893758709769,1.3125,-0.5625,-0.4375
1499893758732767,-1.375,-1.125,-0.5
1499893758747755,-1.1875,-1.8125,-1
1499893758769752,0.4375,-1.25,-0.75
1499893758792755,2,-1.125,-0.625
1499893758806811,1.625,-0.875,-0.5625
1499893758829783,0.3125,-0.25,-0.6875
1499893758852768,-0.625,-0.5625,-0.4375
1499893758866795,-0.1875,-0.5,-0.375
1499893758889786,1.75,0,-0.1875
1499893758911786,0.8125,0.3125,-0.375
1499893758926764,1.25,0.6875,-0.5625
1499893758949790,1.0625,0.375,-0.1875
1499893758972173,-1.5,0.1875,-0.25
1499893758987154,1.3125,-0.125,-0.0625
1499893759010148,2.0625,-0.0625,-0.125
1499893759032169,1.375,0.0625,-0.3125
1499893759047169,1.5625,0.5625,0.3125
1499893759070149,0.375,0.5625,0.0625
1499893759092172,-0.5,-0.375,-0.125
1499893759107180,-1.3125,-0.8125,-0.25
1499893759130154,0.25,-0.0625,0.25
1499893759152180,1.3125,-0.125,0.125
1499893759167180,0.5625,-0.125,-0.25
1499893759190155,-1.25,-0.0625,-0.375
1499893759212180,-1.125,-0.375,0.125
1499893759227182,0,0.4375,-0.0625
1499893759250158,-0.4375,0.875,0
1499893759272145,-0.375,0.25,0.3125
1499893759288173,-1.3125,-0.125,0.4375
1499893759310163,-0.4375,-0.1875,0.5
1499893759332187,0.9375,0.5625,0.375
1499893759349151,0.125,0.875,0.1875
1499893759370168,-1.3125,0,-0.3125
1499893759392190,-0.8125,0.0625,0
1499893759409161,-0.6875,0,0.0625
1499893759430168,0.5,0.625,-0.0625
1499893759452198,-1.6875,0.0625,0.3125
1499893759469157,0.1875,-0.25,0.4375
1499893759490179,0.5,-0.25,0.625
1499893759512242,-0.4375,-0.125,0.3125
1499893759529159,-0.375,0.125,-0.0625
1499893759557204,-0.1875,0.375,0.1875
1499893759572203,-0.5,0.375,-0.125
1499893759589163,-1.375,0.6875,-0.1875
1499893759610184,-0.5625,0.375,-0.1875
1499893759632167,-0.5625,0.0625,0.0625
1499893759649167,0.75,0.5,-0.25
1499893759670185,0.875,0.5,-0.5
1499893759692212,-0.625,0.4375,-0.4375
1499893759710171,-0.5625,-0.3125,-0.8125
1499893759730169,-0.375,-0.6875,-0.5
1499893759752185,0.5,-0.75,-0.1875
1499893759770174,1.4375,-0.4375,-0.375
1499893759790195,0.0625,-0.375,-0.25
1499893759812219,-0.375,-0.6875,-0.5625
1499893759830176,-0.6875,-0.875,-0.4375
1499893759850188,0.625,-0.875,-0.5
1499893759872223,0.75,-0.3125,-0.375
1499893759890181,0.5,-0.1875,-0.4375
1499893759910183,-1,-0.4375,-0.25
1499893759932221,-0.9375,-0.4375,-0.3125
1499893759950193,0.125,-0.4375,-0.125
1499893759970207,1.1875,-0.0625,0.0625
1499893759992225,-0.125,0.5,0
1499893760010187,-0.4375,0.1875,0.125
1499893760030209,-0.625,-0.375,-0.0625
1499893760052233,-0.3125,-0.375,-0.4375
1499893760070190,-0.8125,-0.5,-0.375
1499893760090213,0.1875,-0.375,-0.0625
1499893760112232,0.9375,-0.1875,0.0625
1499893760130195,0.5,-0.625,-0.1875
1499893760150210,-0.8125,-0.4375,0.0625
1499893760172240,-0.4375,-0.5,-0.375
1499893760190209,0.6875,-0.1875,-0.1875
1499893760210224,0.125,-0.375,-0.125
1499893760232239,0.25,-0.1875,0.3125
1499893760250203,0.5625,-0.0625,0.3125
1499893760270230,0.4375,-0.3125,0.1875
1499893760292205,-0.25,0,0.1875
1499893760315207,0.125,0.1875,0.0625
1499893760331216,-0.1875,-0.0625,0.0625
1499893760352218,-0.0625,-0.125,-0.125
1499893760370208,-0.25,-0.25,0.125
1499893760391210,-0.4375,-0.625,0.125
1499893760412219,1.75,-0.0625,0.625
1499893760430211,1.25,0.3125,0.5
1499893760451229,-0.4375,-0.1875,0.1875
1499893760472222,-0.0625,-0.3125,0.1875
1499893760490229,0.25,-0.1875,-0.0625
1499893760511227,0.625,0.25,0.125
1499893760532259,-0.75,0.25,0.0625
1499893760550219,-0.4375,0.25,0
1499893760571231,0.4375,0.5625,0.125
1499893760592261,-0.125,0.25,-0.125
1499893760610223,-1.3125,0.0625,0
1499893760632223,-0.1875,0.1875,0.0625
1499893760652268,0.625,-0.0625,0.25
1499893760670227,-0.25,-0.3125,-0.0625
1499893760692226,0.125,-0.5,0
1499893760712232,0.625,-0.375,0.125
1499893760735255,0.6875,-0.8125,-0.125
1499893760757269,-0.1875,-0.375,-0.0625
1499893760772276,-0.4375,-0.5625,-0.375
1499893760795259,-0.25,-0.3125,0.0625
1499893760812236,-0.125,-0.3125,-0.1875
1499893760832277,-0.375,-0.375,0.125
1499893760855258,-0.25,-0.125,0.25
1499893760872238,0.1875,0.1875,0.0625
1499893760892299,-0.0625,0.1875,0.125
1499893760915252,0.0625,0.125,-0.0625
1499893760932240,0.0625,0.25,-0.0625
1499893760952282,0,-0.125,-0.4375
1499893760974281,-0.4375,0.25,-0.3125
1499893760992246,0.3125,0.3125,-0.25
1499893761012289,-0.8125,0,0.125
1499893761034256,0,-0.125,0.125
1499893761052249,1.375,-0.25,-0.0625
1499893761072290,0.1875,0.125,0.3125
1499893761095274,-0.3125,0,-0.375
1499893761112255,-0.1875,-0.25,-0.0625
1499893761132291,0.0625,-0.5,0.125
1499893761154252,0.4375,-0.3125,0.375
1499893761172290,0.0625,-0.4375,0.4375
1499893761192298,-0.25,-0.5,0.375
1499893761214295,0.8125,-0.25,0.3125
1499893761232259,0.6875,-0.125,0.0625
1499893761253274,-0.125,-0.125,0.0625
1499893761274299,-0.5625,-0.3125,0.25
1499893761292263,-0.4375,0.1875,0.25
1499893761313282,0.1875,0.5,0.375
1499893761335293,0.125,0.0625,0
1499893761352265,-0.6875,0.3125,0.25
1499893761373281,-0.6875,-0.1875,0.0625
1499893761395289,0.25,-0.125,0.125
1499893761412299,0.125,0.3125,0.1875
1499893761433285,0.0625,0.125,-0.125
1499893761455270,-0.0625,0.25,0.125
1499893761472272,0.125,0.25,0.0625
1499893761493283,1.0625,0.125,-0.25
1499893761514313,1.0625,0.25,-0.4375
1499893761532277,0.9375,0.25,-0.5625
1499893761553286,1.3125,0.5,-0.5
1499893761574346,0.5,0.0625,-0.75
1499893761592278,0.25,-0.875,-0.4375
1499893761615282,1,-1.0625,-0.5
1499893761634292,0.625,-0.75,-0.1875
1499893761652282,0.875,-0.5,-0.125
1499893761675284,0.125,-0.875,0.0625
1499893761702330,-0.3125,-0.5625,0
1499893761712292,-0.625,-0.75,0.0625
1499893761735296,0.25,-0.375,0.125
1499893761755309,1,0.1875,-0.0625
1499893761772290,0.0625,0.25,-0.375
1499893761795290,0.0625,-0.25,-0.125
1499893761814338,1.25,0.125,0
1499893761832293,0.8125,0.3125,-0.0625
1499893761855294,0.125,0.25,-0.4375
1499893761875329,0.1875,0.4375,-0.125
1499893761892295,1.1875,0.1875,-0.0625
1499893761915299,0.4375,0.125,0.375
1499893761935316,-0.25,-0.3125,0.0625
1499893761960311,0.3125,0.0625,0.4375
1499893761975302,0.125,0,-0.1875
1499893761994342,-0.3125,-0.3125,0
1499893762012303,0.0625,-0.5,0.375
1499893762035311,0.8125,-0.5,0.4375
1499893762055310,0.875,0,0.625
1499893762072308,-0.125,0,0.625
1499893762095317,0.4375,0.0625,0.4375
1499893762116308,0.375,-0.1875,0.0625
1499893762132309,0.125,-0.5625,0
1499893762155345,-0.3125,-0.25,0.1875
1499893762176313,0.25,0.125,-0.0625
1499893762192317,-0.1875,0.4375,0.1875
1499893762215325,-0.5,0.1875,0.375
1499893762237316,-0.125,0,0.3125
1499893762252317,0.0625,-0.0625,0.125
1499893762274322,-1.125,0.1875,0.1875
1499893762295379,0,0.0625,0.1875
1499893762312320,0.4375,0.0625,0
1499893762334322,-0.3125,0.5,-0.3125
1499893762355388,-1,0.375,-0.125
1499893762372323,-0.5,-0.25,0.0625
1499893762394326,-0.625,-0.0625,0
1499893762415328,0.5625,0,-0.3125
1499893762431347,1.1875,0,0.0625
1499893762454328,1,-0.5,-0.25
1499893762475404,1.3125,-0.875,-0.5
1499893762492331,2.25,-0.75,-0.75
1499893762514331,2.9375,-0.625,-0.125
1499893762537343,4.4375,-0.5,-0.0625
1499893762552334,4.6875,0.25,0.1875
1499893762575335,3.9375,-0.3125,-0.625
1499893762597347,3.4375,-0.5625,-0.3125
1499893762612338,4.25,-0.8125,-0.5625
1499893762634339,5.1875,-1.1875,-0.9375
1499893762657349,3.125,-1,-2.125
1499893762671377,6.5625,1.375,-1.6875
1499893762694354,5.5625,0.8125,-2.1875
1499893762716381,-0.3125,-1.125,-1.5625
1499893762731360,-1.875,-0.9375,-0.5
1499893762754360,0.3125,-0.5,0.0625
1499893762776357,4.375,-0.4375,0.625
1499893762791360,5.9375,-0.375,1.1875
1499893762814350,3.625,-1.125,1.3125
1499893762837352,2,-2.125,1.375
1499893762851353,1.5,-2.5625,1.4375
1499893762874353,2.1875,-3.9375,1.4375
1499893762896364,3.75,-4.5,1.375
1499893762911365,3.875,-3.375,0.8125
1499893762934357,1.8125,-2.4375,-0.875
1499893762956367,0.375,-1.1875,-0.1875
1499893762971359,-6.625,-3.375,-1.875
1499893762994372,-3.3125,-2.75,-0.125
1499893763016382,-1.25,-1.5625,0.1875
1499893763038387,-2.0625,-0.9375,-2.5
1499893763054364,-2.5,-1.25,-3.4375
1499893763076375,-1.25,-0.8125,-4.5625
1499893763097431,-2.875,-1,-5.5625
1499893763114392,-3.625,-0.9375,-6.6875
1499893763136379,-2.75,-0.3125,-7.375
1499893763158397,-1.4375,0.625,-8.375
1499893763174394,-2.5625,0.75,-8.5625
1499893763196388,-3.9375,0.125,-8.4375
1499893763218396,-8,0.3125,-7.1875
1499893763234374,-10.5,0.375,-7.375
1499893763256385,-10.5,-0.375,-3.5625
1499893763278401,-4.6875,1.1875,-0.8125
1499893763294377,1.3125,2.0625,0.1875
1499893763316394,1.625,2.0625,1.8125
1499893763337422,-0.625,1.75,1.9375
