timestamp,x,y,z,w
1499875925887150,-0.452515,0.0189819,-0.622192,0.63855
1499875925917152,-0.452332,0.0194702,-0.621887,0.638977
1499875925925152,-0.451904,0.0201416,-0.621704,0.639404
1499875925947152,-0.449463,0.0192261,-0.621826,0.641052
1499875925971155,-0.447327,0.0188599,-0.621826,0.642578
1499875925986155,-0.446228,0.0194092,-0.62146,0.643738
1499875926007159,-0.444885,0.0200806,-0.621094,0.644958
1499875926029169,-0.44281,0.0203247,-0.621155,0.646301
1499875926047158,-0.441223,0.0206299,-0.621338,0.647217
1499875926067164,-0.440735,0.0213623,-0.620972,0.647888
1499875926089162,-0.43927,0.0215454,-0.620239,0.649536
1499875926108162,-0.435669,0.0205688,-0.61969,0.652527
1499875926127186,-0.431335,0.0180664,-0.61908,0.656006
1499875926149166,-0.428955,0.0164795,-0.618591,0.658081
1499875926172191,-0.427124,0.0159302,-0.618286,0.659546
1499875926187169,-0.426147,0.0159912,-0.61853,0.659973
1499875926209169,-0.425659,0.0170898,-0.618835,0.659973
1499875926227171,-0.425842,0.019165,-0.619385,0.659302
1499875926246171,-0.42688,0.0219116,-0.619934,0.658081
1499875926269173,-0.428284,0.0246582,-0.61969,0.657227
1499875926292174,-0.428223,0.0258179,-0.619812,0.657166
1499875926306175,-0.428467,0.0268555,-0.619995,0.656799
1499875926329177,-0.429138,0.0282593,-0.620422,0.655884
1499875926347182,-0.42981,0.0293579,-0.620605,0.655151
1499875926368178,-0.430054,0.0299683,-0.620728,0.654846
1499875926389178,-0.429993,0.0310059,-0.621521,0.654175
1499875926407180,-0.430847,0.0322266,-0.621765,0.653259
1499875926427183,-0.431274,0.0328369,-0.621887,0.652832
1499875926449183,-0.431763,0.0335083,-0.621948,0.652405
1499875926467184,-0.431763,0.0339966,-0.622131,0.652222
1499875926487186,-0.431763,0.0344849,-0.622314,0.652039
1499875926509185,-0.432007,0.03479,-0.622437,0.651733
1499875926527195,-0.43219,0.0354004,-0.622559,0.651428
1499875926547189,-0.432068,0.0357056,-0.622742,0.651367
1499875926569189,-0.431885,0.0359497,-0.622986,0.651245
1499875926587191,-0.432007,0.036499,-0.623169,0.651001
1499875926607192,-0.431824,0.0370483,-0.623413,0.650818
1499875926629193,-0.431824,0.0373535,-0.623596,0.650574
1499875926647195,-0.431824,0.0377197,-0.623657,0.650513
1499875926668195,-0.43158,0.0379639,-0.623657,0.650635
1499875926689198,-0.431274,0.0380249,-0.62384,0.650635
1499875926707197,-0.431274,0.0380249,-0.62384,0.650635
1499875926734199,-0.431396,0.038147,-0.623962,0.650513
1499875926749200,-0.431396,0.038147,-0.623962,0.650452
1499875926767205,-0.431396,0.038147,-0.623962,0.650513
1499875926788202,-0.43158,0.0383911,-0.624084,0.650208
1499875926816203,-0.431885,0.0387573,-0.624268,0.649841
1499875926827205,-0.432007,0.0388794,-0.624329,0.649658
1499875926848205,-0.432007,0.0388794,-0.62439,0.649658
1499875926869209,-0.432007,0.0388184,-0.62439,0.649658
1499875926891207,-0.432373,0.0391846,-0.624329,0.649475
1499875926908209,-0.432678,0.0393066,-0.624329,0.649231
1499875926929212,-0.432678,0.0394287,-0.624451,0.649048
1499875926951211,-0.432678,0.0394287,-0.624451,0.649109
1499875926974214,-0.432678,0.0394287,-0.624451,0.649109
1499875926989216,-0.432861,0.0395508,-0.624451,0.648926
1499875927013214,-0.4328,0.0395508,-0.624512,0.648926
1499875927029215,-0.4328,0.0395508,-0.624512,0.648926
1499875927049217,-0.4328,0.0395508,-0.624512,0.648926
1499875927071221,-0.4328,0.0395508,-0.624512,0.648987
1499875927089220,-0.4328,0.0395508,-0.624512,0.648987
1499875927109221,-0.432983,0.039856,-0.624573,0.648682
1499875927133224,-0.432983,0.039856,-0.624634,0.648743
1499875927149223,-0.433044,0.039978,-0.624695,0.64856
1499875927169224,-0.432922,0.0401001,-0.624878,0.648438
1499875927192225,-0.433044,0.0403442,-0.625,0.648254
1499875927217226,-0.433167,0.0405884,-0.625,0.648193
1499875927229228,-0.433167,0.0405884,-0.625,0.648193
1499875927251229,-0.433167,0.0405884,-0.625,0.648193
1499875927269229,-0.433411,0.0405884,-0.625122,0.647888
1499875927289232,-0.433777,0.0410767,-0.625122,0.647644
1499875927311240,-0.434082,0.0415039,-0.625122,0.647339
1499875927329233,-0.434204,0.0414429,-0.625183,0.647217
1499875927349239,-0.434143,0.0410767,-0.625183,0.647278
1499875927371236,-0.434143,0.0410767,-0.625183,0.647278
1499875927389237,-0.434326,0.0411987,-0.625244,0.647095
1499875927409238,-0.434692,0.0413818,-0.625244,0.646851
1499875927431243,-0.434692,0.0413208,-0.625244,0.646851
1499875927449240,-0.434814,0.0415649,-0.625183,0.64679
1499875927469241,-0.434814,0.0415649,-0.625183,0.64679
1499875927492245,-0.434814,0.0415649,-0.625183,0.64679
1499875927510245,-0.434937,0.041748,-0.625122,0.64679
1499875927532246,-0.434937,0.041748,-0.625122,0.64679
1499875927552246,-0.434937,0.041748,-0.625122,0.64679
1499875927569247,-0.434875,0.041748,-0.625122,0.64679
1499875927590248,-0.434875,0.041748,-0.625122,0.64679
1499875927612250,-0.434875,0.041748,-0.625122,0.64679
1499875927634251,-0.434875,0.041748,-0.625122,0.64679
1499875927650251,-0.434875,0.041748,-0.625122,0.64679
1499875927672254,-0.434875,0.041748,-0.625122,0.646851
1499875927689255,-0.435059,0.0418091,-0.624817,0.646973
1499875927711256,-0.434875,0.041626,-0.624634,0.647278
1499875927732256,-0.434875,0.041626,-0.624634,0.647278
1499875927749257,-0.435059,0.0415649,-0.624573,0.647217
1499875927770259,-0.43512,0.041687,-0.624695,0.647095
1499875927792260,-0.435059,0.041687,-0.624695,0.647095
1499875927809262,-0.435059,0.041626,-0.624695,0.647095
1499875927831264,-0.435059,0.041626,-0.624695,0.647095
1499875927852264,-0.435059,0.041626,-0.624695,0.647095
1499875927869265,-0.435059,0.041626,-0.624695,0.647095
1499875927891266,-0.434998,0.0413818,-0.624634,0.647278
1499875927911266,-0.434692,0.0411377,-0.624695,0.6474
1499875927929275,-0.434692,0.0413208,-0.624878,0.647217
1499875927952270,-0.434875,0.0413208,-0.624939,0.647034
1499875927971273,-0.434875,0.0413208,-0.624939,0.647034
1499875927997276,-0.434937,0.0413208,-0.624939,0.647034
1499875928012272,-0.434937,0.0413208,-0.624939,0.647034
1499875928032275,-0.435059,0.0415039,-0.624878,0.646912
1499875928049275,-0.435059,0.0415039,-0.624878,0.646912
1499875928072276,-0.435059,0.0415039,-0.624878,0.646912
1499875928091278,-0.434998,0.0414429,-0.624817,0.647095
1499875928109278,-0.435181,0.041748,-0.624695,0.647034
1499875928139281,-0.435181,0.041748,-0.624695,0.647034
1499875928151281,-0.435181,0.041748,-0.624695,0.647034
1499875928169284,-0.435181,0.041748,-0.624695,0.647034
1499875928192282,-0.435181,0.041687,-0.624695,0.647034
1499875928211298,-0.435181,0.041687,-0.624695,0.647034
1499875928229286,-0.43512,0.041687,-0.624756,0.647034
1499875928253295,-0.43512,0.041687,-0.624756,0.647034
1499875928271286,-0.43512,0.041687,-0.624756,0.647034
1499875928290289,-0.43512,0.041687,-0.624756,0.647034
1499875928312291,-0.43512,0.041687,-0.624756,0.647034
1499875928331292,-0.435303,0.041748,-0.624634,0.646973
1499875928349292,-0.435303,0.0418091,-0.624634,0.646973
1499875928372293,-0.435303,0.041748,-0.624634,0.647034
1499875928391296,-0.435242,0.041748,-0.624634,0.647034
1499875928417297,-0.435364,0.0419312,-0.624756,0.64679
1499875928432297,-0.435364,0.0419922,-0.624756,0.646851
1499875928451299,-0.435303,0.0419312,-0.624817,0.646851
1499875928469299,-0.435303,0.0419312,-0.624817,0.646851
1499875928492303,-0.435303,0.0419312,-0.624817,0.646851
1499875928513302,-0.435303,0.0419312,-0.624817,0.646851
1499875928529302,-0.435303,0.0419312,-0.624817,0.646851
1499875928552313,-0.435303,0.0419312,-0.624817,0.646851
1499875928573305,-0.435364,0.0419312,-0.624817,0.646851
1499875928595308,-0.435242,0.041626,-0.624878,0.646851
1499875928612307,-0.435242,0.0415649,-0.624878,0.646851
1499875928633309,-0.435425,0.0415649,-0.624878,0.646729
1499875928649310,-0.435425,0.041626,-0.624878,0.646729
1499875928672311,-0.435425,0.041626,-0.624878,0.646729
1499875928694320,-0.43573,0.0418091,-0.624817,0.646545
1499875928709314,-0.43573,0.041748,-0.624817,0.646545
1499875928732315,-0.43573,0.041748,-0.624817,0.646545
1499875928752317,-0.43573,0.041748,-0.624817,0.646545
1499875928769318,-0.435669,0.041687,-0.624695,0.646729
1499875928791317,-0.435669,0.041687,-0.624695,0.646729
1499875928812320,-0.435669,0.041687,-0.624695,0.646729
1499875928835322,-0.435547,0.0414429,-0.624634,0.646851
1499875928851321,-0.43573,0.0413818,-0.624573,0.64679
1499875928872325,-0.43573,0.0413818,-0.624573,0.64679
1499875928888325,-0.43573,0.0413818,-0.624573,0.64679
1499875928911333,-0.435669,0.0413818,-0.624573,0.64679
1499875928934328,-0.435669,0.0413818,-0.624573,0.64679
1499875928948327,-0.435669,0.0413818,-0.624634,0.64679
1499875928971328,-0.435852,0.041626,-0.624634,0.646667
1499875928994349,-0.435974,0.041748,-0.624756,0.646484
1499875929008331,-0.435913,0.041748,-0.624756,0.646484
1499875929039333,-0.435913,0.041748,-0.624756,0.646484
1499875929053334,-0.435913,0.041748,-0.624756,0.646484
1499875929068338,-0.43573,0.041626,-0.624878,0.646484
1499875929092343,-0.43573,0.041626,-0.624878,0.646484
1499875929113337,-0.43573,0.041626,-0.624878,0.646484
1499875929128337,-0.435425,0.0412598,-0.624939,0.646667
1499875929151339,-0.435364,0.0409546,-0.625061,0.646606
1499875929180363,-0.435425,0.0410767,-0.625122,0.646545
1499875929188341,-0.435425,0.0410767,-0.625122,0.646484
1499875929211348,-0.435303,0.0407104,-0.625183,0.646545
1499875929234343,-0.435608,0.0404663,-0.625,0.646484
1499875929248346,-0.435608,0.039978,-0.625,0.646545
1499875929279353,-0.435425,0.0394897,-0.625122,0.646606
1499875929294356,-0.435791,0.0395508,-0.625061,0.646362
1499875929308347,-0.436035,0.0396118,-0.625,0.646301
1499875929331350,-0.436096,0.0396118,-0.625,0.646301
1499875929354351,-0.436096,0.0396118,-0.625,0.646301
1499875929368353,-0.436401,0.0396729,-0.624878,0.646179
1499875929391353,-0.43634,0.0396118,-0.624878,0.646179
1499875929414366,-0.43634,0.0396118,-0.624878,0.646179
1499875929435355,-0.436584,0.0396118,-0.624756,0.64624
1499875929451357,-0.436584,0.0395508,-0.624756,0.64624
1499875929473359,-0.43634,0.0393677,-0.624756,0.646362
1499875929495358,-0.43634,0.0393677,-0.624756,0.646362
1499875929511364,-0.43634,0.0393677,-0.624756,0.646362
1499875929534367,-0.436279,0.0393066,-0.624817,0.646362
1499875929554362,-0.436279,0.0393066,-0.624817,0.646362
1499875929571364,-0.436279,0.0393066,-0.624817,0.646362
1499875929594376,-0.436279,0.0393066,-0.624817,0.646362
1499875929614367,-0.436279,0.0392456,-0.624817,0.646362
1499875929632369,-0.436218,0.0392456,-0.624817,0.646362
1499875929653368,-0.436218,0.0392456,-0.624817,0.646362
1499875929675369,-0.436035,0.0390625,-0.624939,0.646423
1499875929691373,-0.436218,0.0391235,-0.624939,0.64624
1499875929713372,-0.436218,0.0391235,-0.624939,0.64624
1499875929735372,-0.436157,0.0391235,-0.624939,0.64624
1499875929751373,-0.436157,0.0391235,-0.625,0.64624
1499875929774376,-0.436157,0.0390625,-0.625,0.64624
1499875929794378,-0.436157,0.0390625,-0.625,0.64624
1499875929811383,-0.436218,0.0390625,-0.625,0.64624
1499875929834378,-0.436218,0.0390625,-0.624939,0.64624
1499875929856381,-0.436279,0.0390625,-0.624939,0.64624
1499875929871380,-0.436279,0.0390625,-0.625,0.64624
1499875929893384,-0.436279,0.0390015,-0.625,0.64624
1499875929916383,-0.436279,0.0390015,-0.625,0.646179
1499875929931405,-0.436462,0.0390625,-0.624878,0.646179
1499875929953386,-0.436523,0.0391846,-0.624817,0.646179
1499875929976388,-0.436523,0.0391846,-0.624817,0.646179
1499875929990387,-0.436584,0.0391846,-0.624817,0.646179
1499875930014390,-0.436707,0.0392456,-0.624695,0.646118
1499875930037400,-0.43689,0.0391235,-0.624573,0.646179
1499875930050390,-0.43689,0.0390625,-0.624573,0.646179
1499875930073392,-0.43689,0.0390625,-0.624573,0.646179
1499875930097394,-0.43689,0.0390015,-0.624573,0.646179
1499875930110397,-0.43689,0.0390015,-0.624573,0.646179
1499875930133395,-0.43689,0.0389404,-0.624634,0.646118
1499875930156397,-0.43689,0.0389404,-0.624634,0.646118
1499875930171414,-0.437195,0.0388184,-0.624573,0.645996
1499875930193399,-0.437317,0.0386963,-0.624512,0.645996
1499875930216401,-0.437317,0.0386353,-0.624512,0.645996
1499875930232401,-0.437317,0.0386353,-0.624512,0.645996
1499875930253403,-0.437561,0.0385742,-0.624512,0.645813
1499875930276404,-0.437561,0.038269,-0.624451,0.645874
1499875930290404,-0.4375,0.0378418,-0.624512,0.645874
