timestamp,roll,pitch,yaw
1499893757756680,-1.50885,-0.100243,2.60469
1499893757779682,-1.50907,-0.0994224,2.60449
1499893757795684,-1.50974,-0.0990707,2.60416
1499893757818702,-1.50996,-0.098415,2.60382
1499893757839682,-1.51059,-0.0972344,2.60384
1499893757854742,-1.51237,-0.0961915,2.60411
1499893757878728,-1.51338,-0.0950556,2.60471
1499893757899732,-1.51309,-0.0943498,2.60519
1499893757955731,-1.51171,-0.0927061,2.60522
1499893757957730,-1.50952,-0.0906704,2.60538
1499893757958697,-1.50723,-0.0888021,2.60491
1499893757971706,-1.50544,-0.0869517,2.60466
1499893757991728,-1.5024,-0.0851189,2.60453
1499893758013733,-1.50136,-0.0846191,2.60346
1499893758056753,-1.49969,-0.0831738,2.60218
1499893758067745,-1.49953,-0.0813293,2.60171
1499893758073703,-1.49843,-0.0802723,2.60162
1499893758088704,-1.49634,-0.0796832,2.60061
1499893758111717,-1.49391,-0.0780799,2.59911
1499893758140753,-1.49517,-0.0762392,2.59783
1499893758156709,-1.49866,-0.0750898,2.59601
1499893758179716,-1.50247,-0.0738737,2.59358
1499893758200775,-1.50677,-0.0727751,2.59219
1499893758216746,-1.51148,-0.0723592,2.59053
1499893758239709,-1.51391,-0.0714149,2.5894
1499893758261723,-1.5157,-0.0707328,2.58853
1499893758282728,-1.5184,-0.0710331,2.58802
1499893758299714,-1.52164,-0.0713268,2.58823
1499893758321714,-1.5236,-0.0715436,2.58863
1499893758336724,-1.52398,-0.0716514,2.58919
1499893758359715,-1.52398,-0.0716314,2.58926
1499893758381718,-1.52381,-0.0716865,2.58912
1499893758395729,-1.52357,-0.0714398,2.58967
1499893758419755,-1.52336,-0.0715792,2.5896
1499893758441761,-1.52353,-0.0716062,2.58967
1499893758455732,-1.52353,-0.0716062,2.58967
1499893758479724,-1.52308,-0.0717491,2.58917
1499893758501744,-1.52344,-0.072127,2.58869
1499893758515741,-1.52389,-0.0723166,2.58814
1499893758539736,-1.52401,-0.0721659,2.58779
1499893758561764,-1.5245,-0.0722295,2.5871
1499893758575740,-1.52536,-0.0720994,2.58663
1499893758599731,-1.52552,-0.0720291,2.58607
1499893758621731,-1.52556,-0.0716832,2.58552
1499893758635743,-1.52658,-0.0713549,2.58527
1499893758649773,-1.52736,-0.0710454,2.58529
1499893758672761,-1.52736,-0.0710454,2.58529
1499893758687754,-1.52667,-0.0709199,2.58541
1499893758709769,-1.52626,-0.0709115,2.58561
1499893758732767,-1.52683,-0.0710643,2.58604
1499893758747755,-1.52716,-0.0713581,2.58654
1499893758769752,-1.52717,-0.0716195,2.58703
1499893758792755,-1.52635,-0.0717473,2.58735
1499893758806811,-1.52536,-0.0718483,2.58761
1499893758829783,-1.52536,-0.0718483,2.58761
1499893758852768,-1.52536,-0.0718483,2.58761
1499893758866795,-1.52536,-0.0718483,2.58761
1499893758889786,-1.52475,-0.0721238,2.58767
1499893758911786,-1.52475,-0.0722059,2.5876
1499893758926764,-1.52438,-0.0724622,2.58738
1499893758949790,-1.52388,-0.0725049,2.58716
1499893758972173,-1.52459,-0.0725894,2.58717
1499893758987154,-1.52405,-0.0725521,2.58716
1499893759010148,-1.52368,-0.0726041,2.58722
1499893759032169,-1.52294,-0.0727681,2.58714
1499893759047169,-1.52233,-0.0725971,2.58691
1499893759070149,-1.52233,-0.0725971,2.58691
1499893759092172,-1.52233,-0.0725971,2.58691
1499893759107180,-1.52311,-0.0727333,2.58721
1499893759130154,-1.52311,-0.0727333,2.58721
1499893759152180,-1.52278,-0.0726189,2.58727
1499893759167180,-1.52261,-0.0725917,2.5872
1499893759190155,-1.52294,-0.0726861,2.58721
1499893759212180,-1.52348,-0.0725591,2.58736
1499893759227182,-1.52348,-0.0725591,2.58736
1499893759250158,-1.52331,-0.072512,2.58735
1499893759272145,-1.52331,-0.072512,2.58735
1499893759288173,-1.52405,-0.0723679,2.58737
1499893759310163,-1.52422,-0.0723951,2.58744
1499893759332187,-1.52401,-0.0724522,2.58744
1499893759349151,-1.52401,-0.0724522,2.58744
1499893759370168,-1.5245,-0.0726758,2.58738
1499893759392190,-1.5245,-0.0726758,2.58738
1499893759409161,-1.5245,-0.0726758,2.58738
1499893759430168,-1.52454,-0.0725915,2.58731
1499893759452198,-1.52512,-0.0723803,2.58739
1499893759469157,-1.52512,-0.0723803,2.58739
1499893759490179,-1.52512,-0.0724003,2.58733
1499893759512242,-1.52512,-0.0723803,2.58739
1499893759529159,-1.52512,-0.0723803,2.58739
1499893759557204,-1.52495,-0.0723531,2.58732
1499893759572203,-1.52495,-0.0723531,2.58732
1499893759589163,-1.52537,-0.0723612,2.58712
1499893759610184,-1.52541,-0.072277,2.58705
1499893759632167,-1.52541,-0.0721948,2.58712
1499893759649167,-1.52541,-0.0721948,2.58712
1499893759670185,-1.52541,-0.0721948,2.58712
1499893759692212,-1.52541,-0.0721948,2.58712
1499893759710171,-1.52541,-0.0721948,2.58712
1499893759730169,-1.52541,-0.0721948,2.58712
1499893759752185,-1.52541,-0.0721948,2.58712
1499893759770174,-1.52466,-0.0721946,2.58718
1499893759790195,-1.52471,-0.0720903,2.58718
1499893759812219,-1.52467,-0.0721745,2.58725
1499893759830176,-1.52467,-0.0721745,2.58725
1499893759850188,-1.52466,-0.0721946,2.58718
1499893759872223,-1.52466,-0.0721946,2.58718
1499893759890181,-1.52466,-0.0721946,2.58718
1499893759910183,-1.52467,-0.0722566,2.58717
1499893759932221,-1.52467,-0.0722566,2.58717
1499893759950193,-1.52467,-0.0722566,2.58717
1499893759970207,-1.52426,-0.0724129,2.58723
1499893759992225,-1.52426,-0.0724129,2.58723
1499893760010187,-1.52409,-0.0723857,2.58717
1499893760030209,-1.52409,-0.0723857,2.58717
1499893760052233,-1.52409,-0.0723857,2.58717
1499893760070190,-1.52409,-0.0723857,2.58717
1499893760090213,-1.52426,-0.0724129,2.58723
1499893760112232,-1.52409,-0.0723857,2.58717
1499893760130195,-1.52409,-0.0723857,2.58717
1499893760150210,-1.52409,-0.0723857,2.58717
1499893760172240,-1.52409,-0.0723857,2.58717
1499893760190209,-1.52409,-0.0723857,2.58717
1499893760210224,-1.52426,-0.0724129,2.58723
1499893760232239,-1.52426,-0.0724129,2.58723
1499893760250203,-1.52426,-0.0724129,2.58723
1499893760270230,-1.52426,-0.0724129,2.58723
1499893760292205,-1.52426,-0.072495,2.58716
1499893760315207,-1.52426,-0.072495,2.58716
1499893760331216,-1.52409,-0.0724679,2.58709
1499893760352218,-1.52426,-0.072495,2.58716
1499893760370208,-1.52426,-0.0724129,2.58723
1499893760391210,-1.52425,-0.0724329,2.58717
1499893760412219,-1.52372,-0.0723557,2.58729
1499893760430211,-1.52327,-0.0722319,2.58707
1499893760451229,-1.52327,-0.0722319,2.58707
1499893760472222,-1.52327,-0.0722319,2.58707
1499893760490229,-1.52327,-0.0722319,2.58707
1499893760511227,-1.52327,-0.0722319,2.58707
1499893760532259,-1.52327,-0.0722319,2.58707
1499893760550219,-1.52327,-0.0722319,2.58707
1499893760571231,-1.52327,-0.0722319,2.58707
1499893760592261,-1.52327,-0.0722319,2.58707
1499893760610223,-1.52364,-0.0721599,2.58708
1499893760632223,-1.52364,-0.0721599,2.58708
1499893760652268,-1.52364,-0.0721599,2.58708
1499893760670227,-1.52368,-0.0720757,2.58701
1499893760692226,-1.52368,-0.0720757,2.58701
1499893760712232,-1.52368,-0.0720757,2.58701
1499893760735255,-1.52368,-0.0720757,2.58701
1499893760757269,-1.52368,-0.0720757,2.58701
1499893760772276,-1.52368,-0.0720757,2.58701
1499893760795259,-1.52368,-0.0720757,2.58701
1499893760812236,-1.52364,-0.0721599,2.58708
1499893760832277,-1.52364,-0.0721599,2.58708
1499893760855258,-1.52364,-0.0721599,2.58708
1499893760872238,-1.52364,-0.072242,2.58701
1499893760892299,-1.52364,-0.072242,2.58701
1499893760915252,-1.52364,-0.072242,2.58701
1499893760932240,-1.52364,-0.072242,2.58701
1499893760952282,-1.52364,-0.072242,2.58701
1499893760974281,-1.52364,-0.072242,2.58701
1499893760992246,-1.52364,-0.072242,2.58701
1499893761012289,-1.52364,-0.072242,2.58701
1499893761034256,-1.52364,-0.072242,2.58701
1499893761052249,-1.52323,-0.0723162,2.58714
1499893761072290,-1.52323,-0.0723162,2.58714
1499893761095274,-1.52323,-0.0723162,2.58714
1499893761112255,-1.52327,-0.0722319,2.58707
1499893761132291,-1.52327,-0.0722319,2.58707
1499893761154252,-1.52344,-0.0722591,2.58714
1499893761172290,-1.5234,-0.0723434,2.58721
1499893761192298,-1.52339,-0.0723634,2.58715
1499893761214295,-1.5234,-0.0723434,2.58721
1499893761232259,-1.5234,-0.0723434,2.58721
1499893761253274,-1.5234,-0.0724254,2.58714
1499893761274299,-1.52323,-0.0723983,2.58707
1499893761292263,-1.52323,-0.0723983,2.58707
1499893761313282,-1.52319,-0.0724826,2.58714
1499893761335293,-1.52323,-0.0723983,2.58707
1499893761352265,-1.52319,-0.0724826,2.58714
1499893761373281,-1.52323,-0.0723983,2.58707
1499893761395289,-1.52323,-0.0723983,2.58707
1499893761412299,-1.52323,-0.0723983,2.58707
1499893761433285,-1.52323,-0.0723983,2.58707
1499893761455270,-1.52323,-0.0723983,2.58707
1499893761472272,-1.52323,-0.0723782,2.58714
1499893761493283,-1.5229,-0.0723039,2.58707
1499893761514313,-1.5227,-0.0725051,2.58699
1499893761532277,-1.5227,-0.0725051,2.58699
1499893761553286,-1.52216,-0.0727139,2.58677
1499893761574346,-1.522,-0.0726867,2.5867
1499893761592278,-1.52216,-0.0727139,2.58677
1499893761615282,-1.52188,-0.0728177,2.58711
1499893761634292,-1.52188,-0.0728177,2.58711
1499893761652282,-1.52188,-0.0728177,2.58711
1499893761675284,-1.52188,-0.0728177,2.58711
1499893761702330,-1.52188,-0.0728177,2.58711
1499893761712292,-1.52171,-0.0727905,2.58704
1499893761735296,-1.52171,-0.0727905,2.58704
1499893761755309,-1.52151,-0.0729717,2.58703
1499893761772290,-1.52151,-0.0729717,2.58703
1499893761795290,-1.52147,-0.0730561,2.5871
1499893761814338,-1.52098,-0.0730165,2.58695
1499893761832293,-1.52098,-0.0730165,2.58695
1499893761855294,-1.52093,-0.0731009,2.58702
1499893761875329,-1.52094,-0.0731829,2.58695
1499893761892295,-1.52045,-0.0731232,2.58686
1499893761915299,-1.52044,-0.0731432,2.5868
1499893761935316,-1.52061,-0.0730885,2.58694
1499893761960311,-1.52044,-0.0731432,2.5868
1499893761975302,-1.52045,-0.0731232,2.58686
1499893761994342,-1.52044,-0.0731432,2.5868
1499893762012303,-1.52045,-0.0731232,2.58686
1499893762035311,-1.52045,-0.0731232,2.58686
1499893762055310,-1.52045,-0.0731232,2.58686
1499893762072308,-1.5204,-0.0732077,2.58693
1499893762095317,-1.5204,-0.0732077,2.58693
1499893762116308,-1.52024,-0.0731804,2.58686
1499893762132309,-1.52024,-0.0732624,2.58679
1499893762155345,-1.52024,-0.0732424,2.58686
1499893762176313,-1.52024,-0.0732624,2.58679
1499893762192317,-1.52024,-0.0732424,2.58686
1499893762215325,-1.52024,-0.0732424,2.58686
1499893762237316,-1.52024,-0.0732424,2.58686
1499893762252317,-1.52024,-0.0731605,2.58693
1499893762274322,-1.52044,-0.0732252,2.58673
1499893762295379,-1.52045,-0.0731232,2.58686
1499893762312320,-1.52045,-0.0731232,2.58686
1499893762334322,-1.52045,-0.0731232,2.58686
1499893762355388,-1.52028,-0.073096,2.5868
1499893762372323,-1.52028,-0.073096,2.5868
1499893762394326,-1.52028,-0.073096,2.5868
1499893762415328,-1.52028,-0.073096,2.5868
1499893762431347,-1.51962,-0.0729891,2.58671
1499893762454328,-1.51942,-0.0729445,2.58685
1499893762475404,-1.51914,-0.0730289,2.58726
1499893762492331,-1.51844,-0.0734736,2.58745
1499893762514331,-1.5175,-0.0734716,2.58771
1499893762537343,-1.51571,-0.0735024,2.58781
1499893762552334,-1.51379,-0.0735033,2.5877
1499893762575335,-1.51228,-0.073795,2.5878
1499893762597347,-1.51114,-0.0740149,2.58792
1499893762612338,-1.50992,-0.0744046,2.58817
1499893762634339,-1.5085,-0.0747117,2.5887
1499893762657349,-1.50675,-0.0751278,2.58894
1499893762671377,-1.50399,-0.0762197,2.58831
1499893762694354,-1.50196,-0.0768829,2.58805
1499893762716381,-1.50224,-0.0774497,2.58841
1499893762731360,-1.50314,-0.0778011,2.5887
1499893762754360,-1.50318,-0.077716,2.58863
1499893762776357,-1.50176,-0.0775762,2.58888
1499893762791360,-1.49977,-0.0770168,2.58899
1499893762814350,-1.49839,-0.0765686,2.58933
1499893762837352,-1.49763,-0.0760924,2.59016
1499893762851353,-1.49735,-0.0756762,2.59107
1499893762874353,-1.49663,-0.0751607,2.59247
1499893762896364,-1.49531,-0.0747441,2.59414
1499893762911365,-1.49355,-0.0745482,2.59524
1499893762934357,-1.49267,-0.0752271,2.59605
1499893762956367,-1.49183,-0.075532,2.59638
1499893762971359,-1.49436,-0.0762703,2.59754
1499893762994372,-1.49571,-0.0769498,2.59853
1499893763016382,-1.496,-0.0767652,2.59903
1499893763038387,-1.49665,-0.0775,2.59917
1499893763054364,-1.49769,-0.0785914,2.59966
1499893763076375,-1.49831,-0.0801241,2.59987
1499893763097431,-1.49907,-0.0819508,2.6
1499893763114392,-1.5004,-0.0842952,2.60014
1499893763136379,-1.5012,-0.0868499,2.60006
1499893763158397,-1.50148,-0.089797,2.59955
1499893763174394,-1.50225,-0.0928645,2.59912
1499893763196388,-1.50359,-0.0956558,2.59879
1499893763218396,-1.50607,-0.0980576,2.5985
1499893763234374,-1.51032,-0.10055,2.59827
1499893763256385,-1.51389,-0.101834,2.59826
1499893763278401,-1.51535,-0.102048,2.59781
1499893763294377,-1.51468,-0.101826,2.59715
1499893763316394,-1.51375,-0.101131,2.59642
1499893763337422,-1.51401,-0.100557,2.59587
