timestamp,roll,pitch,yaw
1499893706922898,-1.55135,-0.0413058,2.4984
1499893706944967,-1.55188,-0.0401113,2.4991
1499893706967903,-1.55258,-0.039078,2.49965
1499893706983902,-1.55316,-0.0380712,2.50001
1499893707005902,-1.55407,-0.0367133,2.50084
1499893707028929,-1.55466,-0.0353015,2.50207
1499893707043929,-1.55416,-0.0334022,2.5033
1499893707064950,-1.55172,-0.0317836,2.50464
1499893707088910,-1.55043,-0.0304645,2.50606
1499893707119939,-1.5487,-0.0283634,2.50797
1499893707128928,-1.54507,-0.0264872,2.50931
1499893707149953,-1.54117,-0.0245552,2.50999
1499893707170979,-1.53613,-0.021675,2.51061
1499893707185923,-1.53306,-0.0193191,2.51202
1499893707208954,-1.53198,-0.0161751,2.51419
1499893707238929,-1.53074,-0.0136432,2.51677
1499893707248961,-1.52552,-0.0131752,2.51803
1499893707268927,-1.51813,-0.011603,2.5177
1499893707282984,-1.51497,-0.0102047,2.51735
1499893707304988,-1.51723,-0.00883939,2.51716
1499893707327995,-1.52276,-0.00738556,2.51796
1499893707349968,-1.52318,-0.00689655,2.51824
1499893707364985,-1.52001,-0.00628389,2.51651
1499893707387969,-1.51832,-0.00488891,2.51477
1499893707409969,-1.52636,-0.00402046,2.51437
1499893707424963,-1.53284,-0.00421594,2.51452
1499893707447974,-1.53697,-0.00371633,2.51443
1499893707469970,-1.53965,-0.00369401,2.51441
1499893707484975,-1.54509,-0.0037354,2.51473
1499893707507935,-1.5492,-0.00400458,2.51504
1499893707529934,-1.55013,-0.00473754,2.51538
1499893707545007,-1.55041,-0.0050137,2.51593
1499893707567947,-1.55075,-0.00558993,2.51654
1499893707589978,-1.55092,-0.00564843,2.51709
1499893707605005,-1.55016,-0.00584627,2.51702
1499893707627940,-1.54832,-0.00580433,2.51661
1499893707649982,-1.54767,-0.0061316,2.51606
1499893707664982,-1.54853,-0.00650279,2.51578
1499893707687982,-1.54881,-0.00712454,2.51543
1499893707709959,-1.54821,-0.0073686,2.51482
1499893707725004,-1.54783,-0.00788473,2.51433
1499893707747995,-1.54833,-0.00850905,2.51439
1499893707769992,-1.54892,-0.00923751,2.51404
1499893707785023,-1.54914,-0.00966653,2.51349
1499893707807993,-1.54915,-0.0103751,2.51335
1499893707829953,-1.55029,-0.010667,2.51341
1499893707847953,-1.55028,-0.010693,2.51334
1499893707867987,-1.55028,-0.010693,2.51334
1499893707889954,-1.55028,-0.010693,2.51334
1499893707904984,-1.55077,-0.0109084,2.51335
1499893707927959,-1.5511,-0.0108523,2.51348
1499893707949998,-1.5511,-0.0108523,2.51348
1499893707965013,-1.55072,-0.0108284,2.51355
1499893707988001,-1.55072,-0.0108284,2.51355
1499893708009996,-1.55067,-0.0113442,2.5132
1499893708025033,-1.55018,-0.0117244,2.51265
1499893708048013,-1.55072,-0.012072,2.51231
1499893708070010,-1.55229,-0.0123059,2.51224
1499893708085015,-1.55229,-0.0123059,2.51224
1499893708107972,-1.55191,-0.0127151,2.5119
1499893708130009,-1.55186,-0.013257,2.51148
1499893708145009,-1.55159,-0.0139096,2.51106
1499893708168011,-1.55193,-0.0148069,2.51086
1499893708190013,-1.55253,-0.0154816,2.51051
1499893708205049,-1.55227,-0.0162207,2.51057
1499893708227980,-1.55157,-0.0168795,2.51043
1499893708252978,-1.5512,-0.0174824,2.51043
1499893708267979,-1.5517,-0.0179445,2.51063
1499893708288030,-1.55171,-0.0183016,2.51083
1499893708310019,-1.55139,-0.0184702,2.5111
1499893708327990,-1.5508,-0.0186379,2.5111
1499893708348022,-1.55075,-0.018802,2.5111
1499893708370024,-1.5514,-0.0188273,2.51131
1499893708387989,-1.5514,-0.0188273,2.51131
1499893708408034,-1.55043,-0.0188636,2.51151
1499893708429994,-1.54919,-0.0189247,2.51137
1499893708448004,-1.54924,-0.0188676,2.51123
1499893708475013,-1.54919,-0.0190061,2.5113
1499893708490003,-1.54919,-0.0190061,2.5113
1499893708507994,-1.54919,-0.0190061,2.5113
1499893708527994,-1.54935,-0.0190596,2.5113
1499893708550034,-1.54935,-0.0190596,2.5113
1499893708567996,-1.54897,-0.0192239,2.51116
1499893708588036,-1.54827,-0.0193625,2.51095
1499893708610037,-1.54697,-0.0195616,2.51088
1499893708627999,-1.54638,-0.019648,2.51094
1499893708649030,-1.54596,-0.0199505,2.51087
1499893708670040,-1.54494,-0.0201769,2.511
1499893708688003,-1.5442,-0.0204609,2.51141
1499893708709037,-1.54323,-0.0206302,2.5114
1499893708730004,-1.54264,-0.0205035,2.51175
1499893708748008,-1.54184,-0.0203508,2.51216
1499893708769042,-1.5406,-0.0200365,2.51243
1499893708790050,-1.53936,-0.0198289,2.51256
1499893708808010,-1.53845,-0.0199968,2.51242
1499893708829052,-1.53796,-0.0200797,2.51222
1499893708850051,-1.53737,-0.0203542,2.51208
1499893708868013,-1.53786,-0.0205955,2.51201
1499893708889023,-1.53846,-0.0208923,2.51207
1499893708910082,-1.53846,-0.0208923,2.51207
1499893708928017,-1.53813,-0.021135,2.51173
1499893708951038,-1.53813,-0.021135,2.51173
1499893708970062,-1.5384,-0.0212097,2.51139
1499893708988021,-1.53904,-0.0214235,2.51138
1499893709011022,-1.53904,-0.0214235,2.51138
1499893709030022,-1.53851,-0.0215083,2.51132
1499893709048023,-1.53813,-0.0215909,2.51124
1499893709071025,-1.53813,-0.0215909,2.51124
1499893709090069,-1.53771,-0.0217058,2.51138
1499893709108027,-1.53712,-0.0217117,2.51151
1499893709131029,-1.53696,-0.0216583,2.51151
1499893709150073,-1.53734,-0.0220659,2.51158
1499893709168030,-1.53793,-0.0220601,2.51144
1499893709191058,-1.53793,-0.0220601,2.51144
1499893709210071,-1.53734,-0.0221723,2.51143
1499893709228043,-1.53734,-0.0222279,2.51144
1499893709251034,-1.53734,-0.0222279,2.51144
1499893709270075,-1.53734,-0.0222279,2.51144
1499893709288038,-1.53729,-0.0223111,2.51151
1499893709311039,-1.5368,-0.0222571,2.51137
1499893709330078,-1.53643,-0.0223952,2.5113
1499893709348041,-1.53643,-0.0223952,2.5113
1499893709371046,-1.53675,-0.0225832,2.51123
1499893709390087,-1.53675,-0.0225832,2.51123
1499893709408045,-1.53675,-0.0225832,2.51123
1499893709431055,-1.53691,-0.0226366,2.51123
1499893709450109,-1.53712,-0.0226324,2.51109
1499893709468049,-1.53755,-0.0227605,2.51075
1499893709491048,-1.53788,-0.0229486,2.51068
1499893709510077,-1.5389,-0.0231056,2.51068
1499893709528051,-1.5389,-0.0231056,2.51068
1499893709551055,-1.5389,-0.0231056,2.51068
1499893709572056,-1.5389,-0.0231056,2.51068
1499893709588056,-1.5389,-0.0231867,2.51061
1499893709611056,-1.53885,-0.0232698,2.51068
1499893709632059,-1.53901,-0.0234297,2.51054
1499893709648057,-1.53982,-0.0235909,2.51068
1499893709671067,-1.54068,-0.0237756,2.51061
1499893709692076,-1.54127,-0.0236891,2.51055
1499893709708070,-1.54127,-0.0236891,2.51055
1499893709731070,-1.54127,-0.0236891,2.51055
1499893709752065,-1.54127,-0.0236891,2.51055
1499893709768065,-1.54127,-0.0236891,2.51055
1499893709791074,-1.54127,-0.0236891,2.51055
1499893709812070,-1.54176,-0.0239564,2.51041
1499893709828071,-1.54176,-0.0239564,2.51041
1499893709851069,-1.54176,-0.0239564,2.51041
1499893709872073,-1.54176,-0.0239564,2.51041
1499893709888072,-1.54176,-0.0239564,2.51041
1499893709918073,-1.54176,-0.0239564,2.51041
1499893709932094,-1.54192,-0.0239845,2.51048
1499893709953144,-1.54192,-0.0239845,2.51048
1499893709970078,-1.54192,-0.0239845,2.51048
1499893709992097,-1.54215,-0.0243387,2.51055
1499893710013145,-1.54215,-0.0243387,2.51055
1499893710030080,-1.54215,-0.0243387,2.51055
1499893710052095,-1.54215,-0.0242575,2.51061
1499893710073138,-1.54231,-0.024311,2.51061
1499893710090095,-1.54231,-0.024311,2.51061
1499893710112124,-1.54231,-0.0243923,2.51055
1499893710133155,-1.54231,-0.0243923,2.51055
1499893710150086,-1.54231,-0.0243923,2.51055
1499893710172121,-1.54226,-0.024531,2.51062
1499893710193148,-1.5421,-0.0245029,2.51055
1499893710210091,-1.5421,-0.0245029,2.51055
1499893710232125,-1.5421,-0.0245029,2.51055
1499893710253157,-1.5421,-0.0245029,2.51055
1499893710270126,-1.54221,-0.0247205,2.51054
1499893710292128,-1.54221,-0.0247205,2.51054
1499893710313141,-1.54221,-0.0247205,2.51054
1499893710330098,-1.54221,-0.0247205,2.51054
1499893710352131,-1.54221,-0.0247205,2.51054
1499893710373142,-1.54221,-0.0247205,2.51054
1499893710390124,-1.54221,-0.0247205,2.51054
1499893710412117,-1.54275,-0.0247983,2.51048
1499893710433169,-1.54275,-0.0247983,2.51048
1499893710450127,-1.54269,-0.0248812,2.51054
1499893710472139,-1.5427,-0.0249625,2.51048
1499893710493178,-1.54269,-0.0249878,2.5104
1499893710510107,-1.54281,-0.0250989,2.51054
1499893710532144,-1.54222,-0.0252665,2.51054
1499893710553172,-1.54217,-0.0253494,2.51061
1499893710570125,-1.54216,-0.025456,2.51046
1499893710592147,-1.54293,-0.0256747,2.51075
1499893710621179,-1.54353,-0.0260783,2.51067
1499893710630116,-1.54396,-0.026403,2.51067
1499893710652151,-1.54396,-0.026403,2.51067
1499893710673160,-1.54435,-0.0268666,2.51075
1499893710690126,-1.54435,-0.0268666,2.51075
1499893710712153,-1.54435,-0.0268666,2.51075
1499893710733163,-1.54435,-0.0268666,2.51075
1499893710750121,-1.54435,-0.0268919,2.51067
1499893710772157,-1.54435,-0.0268919,2.51067
1499893710793186,-1.54451,-0.0269202,2.51075
1499893710817148,-1.54451,-0.0269202,2.51075
1499893710832161,-1.54446,-0.027003,2.51081
1499893710855127,-1.54446,-0.0271096,2.51067
1499893710870130,-1.54446,-0.0271096,2.51067
1499893710892165,-1.54463,-0.0271379,2.51075
1499893710915130,-1.54463,-0.0271379,2.51075
1499893710930134,-1.54463,-0.0271379,2.51075
1499893710952168,-1.54462,-0.0271632,2.51067
1499893710975135,-1.54462,-0.0271632,2.51067
1499893710989135,-1.54457,-0.0272459,2.51074
1499893711012135,-1.54474,-0.0273556,2.51075
1499893711035154,-1.54474,-0.0273556,2.51075
1499893711049138,-1.54469,-0.0274384,2.51081
1499893711072141,-1.54469,-0.027545,2.51067
1499893711095150,-1.54485,-0.0275733,2.51075
1499893711109141,-1.54485,-0.0275733,2.51075
1499893711132186,-1.5448,-0.027656,2.51081
1499893711155158,-1.5448,-0.0277374,2.51075
1499893711169145,-1.5448,-0.0277627,2.51067
1499893711192151,-1.5448,-0.0277627,2.51067
1499893711215149,-1.54496,-0.027791,2.51075
1499893711229149,-1.54491,-0.0278737,2.51081
1499893711252188,-1.54442,-0.0279012,2.5106
1499893711275152,-1.54454,-0.0280122,2.51074
1499893711289155,-1.54454,-0.0280122,2.51074
1499893711312190,-1.54453,-0.0280375,2.51067
1499893711335158,-1.54453,-0.0280375,2.51067
1499893711356197,-1.54453,-0.0280375,2.51067
1499893711372190,-1.54453,-0.0281189,2.5106
1499893711395160,-1.5447,-0.0281472,2.51068
1499893711416203,-1.54465,-0.0282299,2.51074
1499893711432188,-1.54465,-0.0282552,2.51067
1499893711455165,-1.54465,-0.0283366,2.5106
1499893711476202,-1.5446,-0.0284193,2.51067
1499893711492202,-1.54541,-0.0285804,2.51081
1499893711515166,-1.54541,-0.0285804,2.51081
1499893711536191,-1.54536,-0.0286631,2.51088
1499893711552192,-1.54552,-0.0287166,2.51088
1499893711575170,-1.54552,-0.0287166,2.51088
1499893711596213,-1.54552,-0.0287166,2.51088
1499893711612199,-1.54552,-0.0287166,2.51088
1499893711635173,-1.54569,-0.0287702,2.51088
1499893711656245,-1.54569,-0.0287702,2.51088
1499893711672188,-1.54569,-0.0287702,2.51088
1499893711695176,-1.54569,-0.0288516,2.51081
1499893711716218,-1.54585,-0.0289051,2.51082
1499893711732190,-1.54666,-0.0289846,2.51103
1499893711755179,-1.54666,-0.0290098,2.51095
1499893711777220,-1.54666,-0.0290913,2.51089
1499893711792190,-1.54683,-0.0291196,2.51096
1499893711815184,-1.54733,-0.0297447,2.51103
1499893711837193,-1.54733,-0.0297447,2.51103
1499893711852195,-1.54729,-0.0301851,2.5113
1499893711875188,-1.54709,-0.0307604,2.51137
1499893711897187,-1.54726,-0.0312784,2.51143
1499893711912194,-1.54721,-0.0314426,2.51143
1499893711935191,-1.54737,-0.0314961,2.51143
1499893711957209,-1.54737,-0.0314961,2.51143
1499893711971204,-1.54737,-0.0314961,2.51143
1499893711995194,-1.54754,-0.0315495,2.51143
1499893712017194,-1.54749,-0.0317137,2.51143
1499893712031221,-1.54749,-0.0317137,2.51143
1499893712055216,-1.54749,-0.0317137,2.51143
1499893712077197,-1.54743,-0.0318215,2.51143
1499893712091221,-1.5476,-0.0318498,2.5115
1499893712115202,-1.5476,-0.0319314,2.51143
1499893712137200,-1.5476,-0.0319314,2.51143
1499893712151269,-1.5476,-0.0319314,2.51143
1499893712175206,-1.54755,-0.0320392,2.51143
1499893712197204,-1.54771,-0.0321491,2.51144
1499893712211271,-1.54771,-0.0321491,2.51144
1499893712235208,-1.54771,-0.0321491,2.51144
1499893712257208,-1.54771,-0.0321491,2.51144
1499893712278275,-1.54771,-0.0321491,2.51144
1499893712295223,-1.54788,-0.0322026,2.51144
1499893712317211,-1.54783,-0.0323668,2.51144
1499893712338284,-1.54783,-0.0323668,2.51144
1499893712355217,-1.5475,-0.0324481,2.51122
