timestamp,x,y,z,w
1499879139893063,-0.639465,-0.15332,0.127014,0.742554
1499879139909111,-0.637878,-0.152466,0.12793,0.744019
1499879139930125,-0.636597,-0.151733,0.128967,0.745056
1499879139954068,-0.636108,-0.15155,0.130005,0.7453
1499879139969067,-0.635315,-0.15155,0.13147,0.745728
1499879139990067,-0.633911,-0.150818,0.133179,0.746826
1499879140014104,-0.632568,-0.14978,0.134521,0.747864
1499879140045110,-0.631042,-0.148865,0.135315,0.749207
1499879140054072,-0.628906,-0.148376,0.135498,0.751038
1499879140075111,-0.62616,-0.147766,0.13678,0.753235
1499879140089099,-0.621277,-0.146729,0.138489,0.757141
1499879140110137,-0.615234,-0.145081,0.139343,0.762268
1499879140134115,-0.612427,-0.144104,0.139343,0.764709
1499879140180136,-0.61554,-0.143982,0.139038,0.762268
1499879140181084,-0.620911,-0.144226,0.138916,0.757874
1499879140193092,-0.623596,-0.144348,0.138428,0.755737
1499879140216119,-0.624146,-0.143616,0.137817,0.755554
1499879140231124,-0.625549,-0.14325,0.137329,0.754517
1499879140255101,-0.627686,-0.143433,0.136536,0.752869
1499879140269094,-0.629089,-0.143738,0.135925,0.75177
1499879140292112,-0.629761,-0.144165,0.135376,0.751221
1499879140315090,-0.630493,-0.144775,0.134766,0.750549
1499879140329139,-0.630981,-0.145386,0.134155,0.750122
1499879140352104,-0.631409,-0.145752,0.133484,0.749878
1499879140375129,-0.632019,-0.146301,0.13324,0.749268
1499879140396133,-0.63208,-0.14679,0.132874,0.749146
1499879140412105,-0.632263,-0.146851,0.132324,0.749084
1499879140435097,-0.632629,-0.146851,0.131897,0.748901
1499879140456105,-0.633362,-0.146729,0.13147,0.748352
1499879140472109,-0.633789,-0.146606,0.131287,0.748047
1499879140495110,-0.634277,-0.146362,0.130981,0.747742
1499879140516112,-0.634521,-0.145935,0.130493,0.747681
1499879140532112,-0.635071,-0.145813,0.129883,0.747375
1499879140555115,-0.635681,-0.145813,0.129517,0.746887
1499879140576148,-0.635986,-0.146057,0.129456,0.746643
1499879140592138,-0.635986,-0.146118,0.129272,0.746643
1499879140615108,-0.635864,-0.14624,0.129028,0.746765
1499879140636148,-0.636108,-0.146423,0.128784,0.746582
1499879140652142,-0.636353,-0.146606,0.128601,0.746338
1499879140675141,-0.636475,-0.146851,0.128479,0.746216
1499879140696152,-0.636475,-0.146912,0.128296,0.746216
1499879140714115,-0.636414,-0.14679,0.128113,0.746338
1499879140735141,-0.636597,-0.146851,0.127991,0.746155
1499879140756158,-0.637146,-0.147034,0.127808,0.745728
1499879140772127,-0.637512,-0.147095,0.127625,0.745422
1499879140795132,-0.637512,-0.147095,0.127625,0.745422
1499879140817138,-0.637695,-0.147095,0.127502,0.7453
1499879140832130,-0.637939,-0.147095,0.127319,0.745117
1499879140855133,-0.638245,-0.147156,0.127258,0.744873
1499879140877123,-0.638428,-0.147156,0.127136,0.74469
1499879140892134,-0.638428,-0.147278,0.126953,0.74469
1499879140915127,-0.638794,-0.147339,0.126648,0.744385
1499879140937143,-0.639282,-0.147522,0.126343,0.744019
1499879140952137,-0.639465,-0.147766,0.12616,0.743835
1499879140975139,-0.639771,-0.148132,0.126038,0.74353
1499879141005154,-0.640015,-0.148315,0.125977,0.743347
1499879141012130,-0.640015,-0.148315,0.125977,0.743347
1499879141035152,-0.640259,-0.148376,0.126038,0.743103
1499879141057148,-0.640259,-0.148376,0.126038,0.743103
1499879141072133,-0.640259,-0.148315,0.126038,0.743103
1499879141095134,-0.640259,-0.148315,0.126038,0.743103
1499879141117162,-0.640259,-0.148315,0.126099,0.743103
1499879141132173,-0.640442,-0.148315,0.126099,0.74292
1499879141161179,-0.640442,-0.148315,0.126099,0.74292
1499879141177157,-0.640442,-0.148254,0.125854,0.742981
1499879141200148,-0.640625,-0.148315,0.125671,0.742798
1499879141221182,-0.640686,-0.148315,0.125488,0.742798
1499879141237162,-0.640991,-0.148438,0.125244,0.742554
1499879141260144,-0.641296,-0.148499,0.125122,0.74231
1499879141281187,-0.641602,-0.148621,0.125,0.742065
1499879141297188,-0.641846,-0.148743,0.125,0.74176
1499879141320159,-0.641907,-0.148926,0.124878,0.74176
1499879141342168,-0.641907,-0.148865,0.124878,0.74176
1499879141357188,-0.641907,-0.148865,0.124878,0.74176
1499879141380162,-0.642029,-0.149048,0.125,0.741577
1499879141402193,-0.64209,-0.149231,0.125061,0.741516
1499879141417171,-0.641907,-0.149292,0.125061,0.741638
1499879141440156,-0.641907,-0.149292,0.125061,0.741638
1499879141462157,-0.641846,-0.149292,0.125061,0.741699
1499879141477159,-0.641907,-0.149292,0.125061,0.741638
1499879141507196,-0.641907,-0.149292,0.125061,0.741638
1499879141522186,-0.641907,-0.149292,0.125061,0.741638
1499879141537194,-0.641907,-0.149353,0.125,0.741638
1499879141560161,-0.641907,-0.149353,0.125,0.741638
1499879141582174,-0.641907,-0.149353,0.125,0.741638
1499879141597166,-0.641907,-0.149292,0.125061,0.741638
1499879141620167,-0.641846,-0.14917,0.125,0.741699
1499879141642178,-0.641846,-0.149109,0.125061,0.741699
1499879141657180,-0.641846,-0.149109,0.125061,0.741699
1499879141680197,-0.641602,-0.149109,0.124939,0.741943
1499879141702174,-0.641541,-0.149109,0.124695,0.742065
1499879141717171,-0.641785,-0.149292,0.124451,0.741882
1499879141740184,-0.641968,-0.149475,0.124207,0.741699
1499879141762173,-0.641602,-0.149475,0.124084,0.742004
1499879141777204,-0.641541,-0.149536,0.12384,0.742126
1499879141800176,-0.641663,-0.149719,0.123657,0.742004
1499879141822184,-0.641724,-0.149902,0.123596,0.741882
1499879141843177,-0.641785,-0.149902,0.123596,0.741882
1499879141860191,-0.641846,-0.149963,0.123535,0.74176
1499879141882180,-0.642029,-0.150024,0.123596,0.741638
1499879141903245,-0.642273,-0.150146,0.123596,0.741394
1499879141920194,-0.642334,-0.150208,0.123596,0.741333
1499879141942193,-0.6427,-0.150269,0.123535,0.740967
1499879141963246,-0.643066,-0.150452,0.123596,0.740601
1499879141980199,-0.643555,-0.150696,0.123657,0.740173
1499879142002191,-0.643555,-0.150696,0.123657,0.740173
1499879142023253,-0.643677,-0.150818,0.123718,0.73999
1499879142040191,-0.643677,-0.150818,0.123718,0.73999
1499879142062199,-0.643677,-0.150818,0.123718,0.740051
1499879142083514,-0.643738,-0.151184,0.123718,0.739868
1499879142099484,-0.643799,-0.151489,0.123718,0.739746
1499879142122448,-0.643799,-0.151489,0.123718,0.739807
1499879142144490,-0.643799,-0.151489,0.123718,0.739807
1499879142166475,-0.643799,-0.151489,0.123718,0.739807
1499879142182480,-0.643799,-0.151489,0.123718,0.739807
1499879142203522,-0.64386,-0.151611,0.123657,0.739685
1499879142220457,-0.643921,-0.151611,0.123657,0.739685
1499879142242487,-0.643677,-0.151489,0.123535,0.739868
1499879142264518,-0.643677,-0.151489,0.123535,0.739929
1499879142279513,-0.643677,-0.151489,0.123535,0.739868
1499879142302491,-0.643677,-0.151489,0.123535,0.739868
1499879142324500,-0.643677,-0.151489,0.123535,0.739868
1499879142339519,-0.643677,-0.151489,0.123535,0.739868
1499879142362495,-0.643433,-0.151306,0.123535,0.740112
1499879142384530,-0.643494,-0.151245,0.123535,0.740112
1499879142399509,-0.643494,-0.151245,0.123535,0.740112
1499879142422483,-0.643494,-0.151245,0.123535,0.740112
1499879142444500,-0.643372,-0.151123,0.123596,0.740234
1499879142459467,-0.643372,-0.151184,0.123596,0.740234
1499879142482470,-0.643372,-0.151184,0.123596,0.740234
1499879142504476,-0.643372,-0.151184,0.123596,0.740234
1499879142519480,-0.643372,-0.151184,0.123596,0.740234
1499879142542474,-0.643372,-0.151184,0.123596,0.740234
1499879142564503,-0.643372,-0.151184,0.123596,0.740234
1499879142579481,-0.643372,-0.151184,0.123596,0.740234
1499879142602477,-0.643372,-0.151184,0.123596,0.740234
1499879142624523,-0.643372,-0.151184,0.123596,0.740234
1499879142639478,-0.643372,-0.151184,0.123596,0.740234
1499879142662492,-0.643311,-0.151123,0.123596,0.740295
1499879142684525,-0.643311,-0.151123,0.123596,0.740295
1499879142706509,-0.643433,-0.151001,0.123474,0.740234
1499879142722505,-0.643311,-0.150818,0.123413,0.740356
1499879142744528,-0.643311,-0.150818,0.123413,0.740356
1499879142765525,-0.643555,-0.150696,0.123352,0.740234
1499879142782498,-0.643555,-0.150696,0.123352,0.740234
1499879142804529,-0.643555,-0.150696,0.123352,0.740234
1499879142826518,-0.643555,-0.150696,0.123352,0.740234
1499879142842526,-0.643555,-0.150696,0.123352,0.740234
1499879142865492,-0.643555,-0.150696,0.123352,0.740234
1499879142885491,-0.643555,-0.150696,0.123352,0.740234
1499879142902493,-0.643494,-0.150574,0.123413,0.740295
1499879142924536,-0.643494,-0.150635,0.123413,0.740295
1499879142945495,-0.643494,-0.150635,0.123413,0.740295
1499879142962531,-0.643494,-0.150391,0.123352,0.740356
1499879142984517,-0.643433,-0.150391,0.123352,0.740356
1499879143005498,-0.643555,-0.150391,0.123352,0.740295
1499879143022511,-0.643555,-0.150452,0.123352,0.740234
1499879143050541,-0.643555,-0.150452,0.123352,0.740234
1499879143066526,-0.643555,-0.150452,0.123352,0.740234
1499879143082503,-0.643738,-0.150391,0.123108,0.740112
1499879143104574,-0.643799,-0.150391,0.123108,0.740112
1499879143125575,-0.643616,-0.150146,0.123108,0.740295
1499879143142521,-0.643494,-0.149963,0.123047,0.740479
1499879143164582,-0.643494,-0.149963,0.123108,0.740479
1499879143185578,-0.643494,-0.149963,0.123047,0.740479
1499879143201545,-0.643494,-0.149963,0.123047,0.740479
1499879143224577,-0.643494,-0.149963,0.123047,0.740479
1499879143247515,-0.643494,-0.149963,0.123047,0.740479
1499879143262524,-0.643494,-0.149963,0.123108,0.740479
1499879143284562,-0.643494,-0.149902,0.123108,0.740479
1499879143307527,-0.643555,-0.149963,0.123108,0.740356
1499879143322518,-0.643555,-0.149963,0.123108,0.740417
1499879143344567,-0.643555,-0.149963,0.123169,0.740417
1499879143367520,-0.643494,-0.149963,0.123169,0.740417
1499879143381556,-0.643494,-0.149963,0.123169,0.740417
1499879143404569,-0.643494,-0.149902,0.123169,0.740417
1499879143427535,-0.643494,-0.149902,0.123169,0.740417
1499879143441560,-0.643494,-0.149902,0.123169,0.740417
1499879143464575,-0.643616,-0.14978,0.123108,0.740417
1499879143487538,-0.643799,-0.149719,0.122925,0.740295
1499879143501564,-0.643799,-0.149719,0.122925,0.740295
1499879143524576,-0.643799,-0.149658,0.122925,0.740295
1499879143547542,-0.643799,-0.149658,0.122925,0.740295
1499879143561571,-0.643799,-0.149658,0.122925,0.740295
1499879143584543,-0.643799,-0.149658,0.122986,0.740295
1499879143607545,-0.643921,-0.14978,0.122925,0.740112
1499879143621571,-0.643921,-0.14978,0.122986,0.740112
1499879143644598,-0.643982,-0.14978,0.122986,0.740112
1499879143667549,-0.643982,-0.14978,0.122986,0.740112
1499879143681539,-0.643921,-0.14978,0.122986,0.740112
1499879143704554,-0.643921,-0.14978,0.122986,0.740173
1499879143727552,-0.643921,-0.14978,0.122986,0.740173
1499879143748564,-0.64386,-0.14978,0.122925,0.740173
1499879143764613,-0.643677,-0.149658,0.122925,0.740356
1499879143787544,-0.643738,-0.149475,0.122803,0.740356
1499879143808611,-0.643799,-0.149353,0.122681,0.740356
1499879143824612,-0.643738,-0.149048,0.12262,0.74054
1499879143847553,-0.643555,-0.148804,0.122559,0.740723
1499879143868612,-0.643555,-0.148804,0.122559,0.740723
1499879143884568,-0.643555,-0.148804,0.122559,0.740723
1499879143907562,-0.643433,-0.148621,0.12262,0.740845
1499879143928569,-0.643188,-0.148499,0.122681,0.741089
1499879143944585,-0.642883,-0.148376,0.122803,0.741394
1499879143967556,-0.642639,-0.148438,0.122986,0.741516
1499879143988598,-0.642822,-0.148621,0.12323,0.741272
1499879144004600,-0.642883,-0.148987,0.123596,0.741089
1499879144027569,-0.642883,-0.149353,0.12384,0.740967
1499879144048562,-0.643066,-0.149658,0.124023,0.740723
1499879144064594,-0.642944,-0.149963,0.124268,0.740723
1499879144087583,-0.642822,-0.150208,0.124512,0.740723
1499879144108603,-0.642639,-0.150452,0.124634,0.740845
1499879144132565,-0.642578,-0.150452,0.124634,0.740906
1499879144147566,-0.642578,-0.150452,0.124634,0.740906
1499879144169589,-0.642578,-0.150452,0.124634,0.740906
1499879144184578,-0.642517,-0.150391,0.124695,0.740906
1499879144207584,-0.642517,-0.150391,0.124695,0.740906
1499879144229620,-0.642517,-0.150269,0.124512,0.740967
1499879144244620,-0.642517,-0.150269,0.124512,0.740967
1499879144267571,-0.642578,-0.150269,0.124512,0.740967
1499879144289583,-0.642578,-0.150269,0.124512,0.740967
1499879144304609,-0.642517,-0.150146,0.124634,0.741028
1499879144327577,-0.642273,-0.150208,0.124634,0.741211
1499879144349580,-0.642212,-0.150146,0.124634,0.741211
1499879144364577,-0.642273,-0.15033,0.124817,0.74115
1499879144387593,-0.642273,-0.15033,0.124817,0.74115
1499879144409600,-0.642517,-0.150391,0.124817,0.740906
1499879144424580,-0.6427,-0.150452,0.124878,0.740723
1499879144447591,-0.642944,-0.150452,0.124939,0.74054
1499879144469605,-0.643127,-0.150452,0.124939,0.740356
1499879144484585,-0.643066,-0.150513,0.124939,0.740417
1499879144507596,-0.643066,-0.150513,0.124939,0.740417
1499879144529619,-0.643127,-0.150513,0.124939,0.740356
1499879144544623,-0.643127,-0.150452,0.124939,0.740356
1499879144567601,-0.643005,-0.150391,0.125,0.740417
1499879144589620,-0.642822,-0.150513,0.125305,0.740601
1499879144604592,-0.642578,-0.15094,0.12561,0.740601
1499879144627625,-0.64209,-0.151306,0.126099,0.740906
1499879144649604,-0.64093,-0.151489,0.126709,0.74176
1499879144670634,-0.639282,-0.151672,0.127625,0.742981
1499879144687614,-0.637756,-0.152222,0.128662,0.743958
1499879144709620,-0.63678,-0.153198,0.129211,0.744568
1499879144730637,-0.635864,-0.154297,0.130005,0.744934
1499879144747615,-0.635254,-0.155396,0.130981,0.745117
1499879144769626,-0.634705,-0.156616,0.131897,0.745117
1499879144790643,-0.634155,-0.157715,0.13269,0.745239
1499879144807616,-0.633545,-0.158691,0.132996,0.745483
1499879144829620,-0.633179,-0.159424,0.13324,0.745605
1499879144850645,-0.633118,-0.160156,0.133606,0.745422
1499879144867606,-0.633118,-0.160828,0.134155,0.745178
1499879144889631,-0.632568,-0.161255,0.134644,0.745483
1499879144910648,-0.631775,-0.161438,0.134949,0.746033
1499879144917648,-0.631165,-0.161499,0.135071,0.746521
1499879144932655,-0.630798,-0.161621,0.13501,0.746826
1499879144955688,-0.630798,-0.161804,0.135193,0.746704
1499879144977656,-0.630615,-0.16217,0.135498,0.746765
1499879144992685,-0.630127,-0.162415,0.135864,0.74707
1499879145015655,-0.629333,-0.162781,0.136292,0.747559
1499879145037627,-0.628357,-0.163208,0.136963,0.748169
1499879145052620,-0.62738,-0.163757,0.137634,0.748779
1499879145075686,-0.626343,-0.164429,0.138245,0.749329
1499879145097668,-0.625305,-0.165344,0.138855,0.749878
1499879145112663,-0.624634,-0.16626,0.139587,0.750122
1499879145135694,-0.624329,-0.167419,0.140625,0.749939
1499879145157698,-0.624451,-0.168823,0.141724,0.749329
