timestamp,x,y,z,w
1499879214591687,-0.64447,-0.151672,0.102234,0.742432
1499879214614688,-0.643982,-0.151855,0.102539,0.742737
1499879214637688,-0.643433,-0.1521,0.102783,0.743164
1499879214653690,-0.642151,-0.151611,0.103577,0.744263
1499879214674690,-0.640076,-0.150818,0.10498,0.745972
1499879214698693,-0.636902,-0.149475,0.105469,0.748901
1499879214713707,-0.635132,-0.149231,0.104065,0.750671
1499879214758711,-0.635742,-0.149353,0.103821,0.750122
1499879214767697,-0.636841,-0.148804,0.105957,0.749084
1499879214774724,-0.63855,-0.14856,0.106873,0.747498
1499879214795761,-0.63501,-0.147461,0.107727,0.75061
1499879214818713,-0.631836,-0.145935,0.108765,0.753418
1499879214841706,-0.633423,-0.145813,0.109314,0.752075
1499879214894770,-0.63623,-0.146179,0.109375,0.749573
1499879214895710,-0.637817,-0.14624,0.109131,0.74823
1499879214896711,-0.637756,-0.146362,0.108643,0.748352
1499879214915720,-0.638062,-0.146912,0.108093,0.748047
1499879214937749,-0.638855,-0.147766,0.107483,0.747314
1499879214951745,-0.639832,-0.148499,0.107117,0.746338
1499879214974743,-0.640381,-0.149231,0.106873,0.74585
1499879214996756,-0.640625,-0.149597,0.106445,0.745544
1499879215011759,-0.641052,-0.149658,0.10614,0.745239
1499879215034757,-0.641968,-0.149719,0.106018,0.744446
1499879215056782,-0.64209,-0.149536,0.105896,0.744385
1499879215071755,-0.642029,-0.14917,0.105713,0.744568
1499879215094729,-0.642578,-0.149048,0.105286,0.744141
1499879215116765,-0.643433,-0.148865,0.105042,0.743469
1499879215131766,-0.643921,-0.148926,0.105042,0.743042
1499879215154764,-0.643921,-0.148987,0.104736,0.743103
1499879215176763,-0.64447,-0.149292,0.104126,0.742676
1499879215191724,-0.644653,-0.149414,0.103638,0.742554
1499879215214759,-0.644775,-0.149719,0.103088,0.742432
1499879215236748,-0.645386,-0.150146,0.1026,0.741943
1499879215251768,-0.645569,-0.150513,0.102234,0.741699
1499879215274773,-0.64563,-0.150452,0.101929,0.741699
1499879215296798,-0.645874,-0.150513,0.101868,0.741516
1499879215311781,-0.646118,-0.150635,0.101868,0.741272
1499879215334745,-0.64624,-0.150513,0.101868,0.74115
1499879215356734,-0.646362,-0.150269,0.101868,0.741089
1499879215371783,-0.646484,-0.150024,0.101746,0.741089
1499879215394777,-0.646851,-0.149963,0.101624,0.740784
1499879215416798,-0.646973,-0.149841,0.101501,0.740723
1499879215431783,-0.647278,-0.149841,0.101379,0.740479
1499879215454746,-0.647278,-0.149841,0.101379,0.740479
1499879215476784,-0.6474,-0.149963,0.101257,0.740356
1499879215491787,-0.6474,-0.149963,0.101257,0.740356
1499879215514818,-0.647522,-0.150024,0.101196,0.740234
1499879215536788,-0.647583,-0.150024,0.101196,0.740234
1499879215551790,-0.647522,-0.150024,0.101196,0.740234
1499879215574817,-0.647583,-0.150024,0.101013,0.740234
1499879215596749,-0.647705,-0.149963,0.10083,0.740173
1499879215611791,-0.647705,-0.149963,0.100891,0.740173
1499879215634787,-0.648132,-0.150024,0.100952,0.739746
1499879215656830,-0.648376,-0.149902,0.10083,0.739563
1499879215671798,-0.648376,-0.149902,0.10083,0.739563
1499879215694764,-0.648438,-0.149902,0.100647,0.739563
1499879215716822,-0.648682,-0.150024,0.100586,0.739258
1499879215731799,-0.648682,-0.150024,0.100586,0.739319
1499879215757790,-0.648682,-0.150024,0.100586,0.739319
1499879215776828,-0.648682,-0.150024,0.100586,0.739319
1499879215791803,-0.648682,-0.150024,0.100586,0.739319
1499879215814792,-0.648926,-0.150146,0.100708,0.739014
1499879215836825,-0.648926,-0.150146,0.100647,0.739014
1499879215851773,-0.648926,-0.150208,0.100647,0.739014
1499879215877763,-0.648926,-0.150208,0.100647,0.739075
1499879215896825,-0.648926,-0.150208,0.100647,0.739075
1499879215914765,-0.648926,-0.150208,0.100647,0.739075
1499879215937807,-0.648926,-0.150208,0.100647,0.739075
1499879215956813,-0.648926,-0.150208,0.100647,0.739075
1499879215974777,-0.648926,-0.150208,0.100647,0.739075
1499879216001817,-0.648804,-0.150085,0.100525,0.739258
1499879216016833,-0.648743,-0.150024,0.100525,0.739258
1499879216034782,-0.649109,-0.149902,0.100403,0.738953
1499879216057779,-0.649292,-0.14978,0.100342,0.738892
1499879216076823,-0.649536,-0.149658,0.100342,0.738708
1499879216094776,-0.649658,-0.149658,0.100342,0.738586
1499879216117777,-0.64978,-0.149597,0.100281,0.738464
1499879216136777,-0.64978,-0.149597,0.100281,0.738464
1499879216154780,-0.650085,-0.149597,0.10022,0.73822
1499879216177782,-0.650146,-0.149658,0.10022,0.738159
1499879216196820,-0.650146,-0.149719,0.10022,0.738159
1499879216214818,-0.650146,-0.149719,0.10022,0.738159
1499879216237785,-0.650391,-0.149841,0.100159,0.737915
1499879216256853,-0.650574,-0.149841,0.100098,0.737793
1499879216274790,-0.650574,-0.14978,0.100098,0.737793
1499879216297788,-0.650574,-0.14978,0.100098,0.737793
1499879216316789,-0.650574,-0.14978,0.100098,0.737793
1499879216334792,-0.650574,-0.149841,0.100098,0.737793
1499879216357796,-0.650635,-0.149841,0.0999756,0.737671
1499879216376865,-0.65094,-0.149841,0.0997314,0.737488
1499879216394794,-0.651123,-0.14978,0.0997314,0.737305
1499879216417795,-0.651245,-0.149719,0.0997925,0.737183
1499879216438795,-0.651245,-0.149719,0.0997925,0.737183
1499879216454796,-0.651245,-0.149719,0.0997925,0.737183
1499879216477797,-0.651489,-0.149658,0.0996704,0.737
1499879216498817,-0.651489,-0.149658,0.0996704,0.737
1499879216514800,-0.65155,-0.149658,0.0996094,0.737
1499879216537814,-0.651489,-0.149719,0.0996094,0.737
1499879216558812,-0.651672,-0.149658,0.0995483,0.736877
1499879216574815,-0.6521,-0.14978,0.0994873,0.736511
1499879216597804,-0.652222,-0.149841,0.0993042,0.736389
1499879216618815,-0.652161,-0.149841,0.0993042,0.73645
1499879216634839,-0.652466,-0.14978,0.0991821,0.736206
1499879216657807,-0.652893,-0.149963,0.098999,0.73584
1499879216678841,-0.652893,-0.149963,0.098999,0.73584
1499879216694809,-0.652588,-0.149841,0.0990601,0.736145
1499879216717811,-0.65271,-0.14978,0.0991821,0.735962
1499879216737857,-0.652893,-0.149719,0.0993042,0.73584
1499879216754817,-0.652893,-0.149719,0.0993042,0.73584
1499879216776860,-0.652893,-0.149719,0.0993042,0.73584
1499879216798826,-0.652893,-0.149719,0.0993042,0.73584
1499879216820818,-0.653015,-0.149719,0.0992432,0.735779
1499879216836830,-0.653137,-0.14978,0.0992432,0.735657
1499879216858836,-0.653137,-0.149719,0.0992432,0.735657
1499879216879869,-0.653137,-0.14978,0.0992432,0.735657
1499879216896823,-0.653076,-0.14978,0.0992432,0.735657
1499879216918861,-0.653076,-0.14978,0.0991821,0.735657
1499879216939868,-0.653137,-0.14978,0.0992432,0.735657
1499879216956837,-0.653076,-0.14978,0.0991821,0.735657
1499879216986828,-0.653076,-0.14978,0.0992432,0.735657
1499879216999872,-0.653137,-0.149658,0.0992432,0.735596
1499879217016840,-0.653137,-0.149658,0.0992432,0.735596
1499879217038852,-0.653137,-0.149719,0.0992432,0.735596
1499879217053868,-0.653137,-0.149719,0.0992432,0.735596
1499879217076833,-0.653137,-0.149719,0.0992432,0.735657
1499879217098853,-0.653137,-0.149719,0.0991821,0.735657
1499879217113838,-0.653198,-0.149658,0.0991211,0.735596
1499879217136837,-0.653198,-0.149658,0.0991211,0.735596
1499879217158840,-0.653259,-0.149597,0.0991211,0.735596
1499879217173839,-0.653198,-0.149597,0.0991211,0.735596
1499879217196840,-0.653198,-0.149658,0.0991211,0.735596
1499879217218842,-0.653259,-0.149658,0.0991211,0.735596
1499879217233843,-0.653198,-0.149658,0.0991211,0.735596
1499879217256843,-0.653259,-0.149658,0.0991211,0.735596
1499879217278847,-0.653259,-0.149658,0.0991211,0.735596
1499879217299891,-0.653259,-0.149658,0.0991211,0.735596
1499879217316845,-0.653259,-0.149658,0.0991211,0.735535
1499879217338875,-0.653259,-0.149658,0.0991211,0.735535
1499879217359847,-0.653259,-0.149658,0.0991211,0.735535
1499879217376889,-0.65332,-0.149536,0.0991211,0.735474
1499879217398865,-0.65332,-0.149536,0.0991211,0.735474
1499879217419894,-0.65332,-0.149536,0.0991211,0.735535
1499879217436873,-0.65332,-0.149536,0.0991211,0.735535
1499879217458852,-0.65332,-0.149536,0.0991211,0.735535
1499879217479900,-0.65332,-0.149536,0.0991211,0.735535
1499879217496863,-0.65332,-0.149536,0.0991211,0.735535
1499879217518856,-0.65332,-0.149475,0.0991211,0.735474
1499879217539878,-0.65332,-0.149475,0.0991821,0.735474
1499879217556859,-0.65332,-0.149475,0.0991821,0.735474
1499879217578859,-0.65332,-0.149475,0.0991821,0.735474
1499879217599907,-0.65332,-0.149475,0.0991211,0.735535
1499879217616909,-0.65332,-0.149475,0.0991211,0.735535
1499879217638875,-0.65332,-0.149536,0.0991211,0.735535
1499879217659910,-0.653442,-0.149658,0.0991211,0.735352
1499879217676906,-0.653625,-0.149902,0.0992432,0.735168
1499879217698890,-0.653625,-0.149902,0.0992432,0.735168
1499879217719913,-0.653625,-0.149902,0.0992432,0.735168
1499879217736911,-0.653625,-0.149902,0.0992432,0.735168
1499879217758885,-0.653625,-0.149902,0.0992432,0.735168
1499879217781913,-0.653625,-0.149902,0.0992432,0.735168
1499879217796885,-0.653564,-0.149902,0.0992432,0.735168
1499879217818892,-0.653564,-0.149902,0.0992432,0.735168
1499879217841916,-0.653564,-0.149902,0.0992432,0.735168
1499879217856918,-0.653625,-0.149902,0.0992432,0.735168
1499879217878901,-0.653625,-0.149902,0.0992432,0.735168
1499879217901922,-0.653625,-0.149902,0.0992432,0.735168
1499879217915892,-0.653625,-0.149902,0.0992432,0.735168
1499879217938901,-0.653625,-0.149902,0.0992432,0.735168
1499879217961906,-0.653625,-0.149902,0.0992432,0.735168
1499879217975887,-0.653625,-0.149902,0.0992432,0.735168
1499879217998889,-0.653625,-0.149902,0.0992432,0.735168
1499879218021946,-0.653625,-0.149902,0.0992432,0.735168
1499879218035893,-0.653625,-0.149902,0.0992432,0.735168
1499879218058914,-0.653625,-0.149841,0.0993042,0.735168
1499879218081929,-0.653809,-0.149902,0.0993042,0.734985
1499879218095912,-0.653809,-0.149902,0.0993042,0.734985
1499879218118895,-0.653809,-0.149902,0.0993042,0.734985
1499879218141933,-0.653809,-0.149902,0.0993042,0.734985
1499879218155909,-0.65387,-0.149902,0.0992432,0.734924
1499879218178922,-0.654053,-0.149841,0.0991821,0.734802
1499879218201935,-0.654053,-0.149841,0.0991821,0.734802
1499879218222969,-0.654053,-0.149841,0.0991821,0.734802
1499879218238923,-0.654053,-0.149841,0.0991821,0.734741
1499879218261941,-0.654114,-0.149841,0.0991821,0.734741
1499879218282899,-0.654114,-0.149841,0.0991821,0.734741
1499879218298918,-0.654053,-0.149841,0.0991821,0.734741
1499879218321925,-0.654053,-0.149841,0.0991821,0.734802
1499879218342947,-0.654236,-0.150024,0.0992432,0.734558
1499879218358931,-0.654297,-0.150146,0.0993652,0.734497
1499879218381944,-0.654297,-0.150146,0.0993652,0.734497
1499879218402978,-0.654297,-0.150146,0.0993652,0.734497
1499879218418931,-0.654236,-0.150146,0.0993652,0.734497
1499879218441950,-0.654236,-0.150146,0.0993042,0.734497
1499879218462922,-0.654236,-0.150146,0.0993042,0.734497
1499879218478943,-0.654236,-0.150146,0.0993652,0.734497
1499879218501956,-0.654236,-0.150146,0.0993652,0.734558
1499879218522988,-0.654236,-0.150146,0.0993652,0.734558
1499879218538918,-0.654236,-0.150146,0.0993652,0.734558
1499879218561959,-0.654297,-0.149963,0.0994873,0.734497
1499879218589967,-0.654297,-0.149963,0.0994873,0.734497
1499879218598924,-0.654297,-0.149963,0.0994873,0.734497
1499879218621949,-0.654297,-0.150024,0.0994873,0.734497
1499879218642951,-0.654297,-0.149963,0.0994873,0.734497
1499879218658939,-0.654297,-0.149963,0.0994873,0.734497
1499879218681966,-0.654297,-0.149963,0.0994873,0.734497
1499879218703932,-0.654297,-0.149963,0.0994873,0.734497
1499879218718932,-0.654297,-0.149963,0.0994873,0.734497
1499879218741971,-0.654297,-0.149963,0.0994873,0.734558
1499879218763935,-0.654236,-0.149963,0.0994873,0.734558
1499879218778936,-0.654175,-0.149963,0.0994873,0.734619
1499879218801974,-0.654297,-0.149902,0.0994873,0.734497
1499879218823938,-0.654297,-0.149902,0.0994263,0.734497
1499879218838941,-0.654297,-0.149902,0.0994873,0.734497
1499879218861941,-0.654297,-0.149719,0.0993042,0.734558
1499879218883953,-0.654297,-0.149719,0.0993042,0.734558
1499879218898943,-0.654297,-0.149719,0.0993042,0.734558
1499879218921981,-0.654297,-0.149719,0.0993042,0.734558
1499879218943944,-0.654297,-0.149719,0.0993042,0.734558
1499879218958946,-0.654297,-0.149719,0.0993042,0.734558
1499879218981957,-0.65448,-0.149841,0.0992432,0.734436
1499879219003948,-0.654602,-0.150024,0.0992432,0.734253
1499879219018951,-0.654358,-0.150085,0.0993042,0.734497
1499879219041976,-0.654297,-0.150085,0.0993042,0.734497
1499879219063953,-0.654297,-0.150085,0.0992432,0.734497
1499879219078019,-0.654297,-0.150085,0.0992432,0.734497
1499879219101949,-0.654297,-0.150085,0.0992432,0.734497
1499879219123973,-0.654297,-0.150085,0.0992432,0.734558
1499879219138958,-0.654236,-0.150085,0.0992432,0.734558
1499879219161994,-0.654236,-0.150146,0.0992432,0.734558
1499879219183977,-0.654236,-0.150085,0.0992432,0.734558
1499879219204996,-0.654236,-0.150085,0.0992432,0.734619
1499879219221998,-0.654236,-0.150085,0.0992432,0.734619
1499879219243963,-0.654236,-0.150085,0.0992432,0.734558
1499879219265029,-0.654236,-0.150085,0.0992432,0.734619
1499879219281999,-0.654236,-0.150085,0.0993042,0.734619
1499879219303967,-0.654236,-0.150085,0.0992432,0.734619
1499879219325004,-0.654236,-0.150085,0.0992432,0.734619
1499879219341971,-0.654236,-0.150085,0.0992432,0.734619
1499879219363970,-0.654175,-0.150085,0.0992432,0.734619
1499879219385018,-0.654175,-0.150085,0.0992432,0.734619
1499879219401999,-0.654175,-0.150085,0.0992432,0.734619
1499879219423974,-0.654236,-0.150208,0.0993652,0.734558
1499879219446999,-0.654175,-0.150208,0.0993652,0.734558
1499879219462004,-0.654175,-0.150208,0.0993652,0.734558
1499879219483977,-0.654175,-0.150208,0.0993652,0.734558
1499879219505046,-0.654175,-0.150208,0.0993652,0.734619
1499879219522000,-0.654175,-0.150208,0.0993652,0.734619
1499879219543981,-0.654175,-0.150208,0.0993652,0.734619
1499879219565046,-0.653931,-0.150146,0.0993652,0.734863
1499879219582000,-0.653687,-0.150085,0.0992432,0.735046
1499879219603984,-0.653687,-0.150085,0.0992432,0.735046
1499879219626999,-0.653442,-0.150024,0.0991821,0.735291
1499879219648979,-0.653137,-0.150085,0.0991211,0.735596
1499879219663981,-0.653137,-0.150085,0.0991211,0.735596
1499879219686981,-0.653137,-0.150085,0.0991211,0.735596
1499879219702000,-0.653076,-0.150085,0.0991211,0.735596
1499879219723983,-0.653076,-0.150085,0.0991211,0.735596
1499879219746036,-0.652893,-0.150208,0.0991211,0.735779
1499879219762001,-0.652832,-0.150208,0.0991211,0.735779
1499879219784001,-0.652832,-0.150208,0.0991211,0.735779
1499879219807000,-0.652832,-0.150208,0.0991211,0.735779
1499879219820989,-0.652832,-0.150208,0.0991211,0.735779
1499879219844011,-0.652832,-0.150208,0.0991211,0.73584
1499879219867001,-0.652832,-0.150208,0.0991211,0.73584
1499879219889001,-0.652832,-0.150269,0.0990601,0.73584
1499879219903998,-0.652771,-0.150269,0.0990601,0.73584
1499879219927003,-0.652832,-0.15033,0.0991211,0.735779
1499879219941002,-0.652832,-0.150391,0.0991211,0.735779
1499879219964006,-0.652771,-0.15033,0.0991211,0.73584
1499879219987005,-0.652771,-0.15033,0.0991211,0.73584
1499879220001000,-0.652771,-0.15033,0.0991211,0.73584
1499879220024001,-0.652771,-0.15033,0.0991211,0.73584
1499879220047008,-0.652649,-0.15033,0.0991821,0.735962
1499879220061019,-0.652649,-0.15033,0.0991821,0.735962
1499879220084004,-0.652588,-0.15033,0.0991821,0.735962
1499879220107012,-0.652588,-0.15033,0.0991821,0.736023
1499879220128014,-0.652588,-0.15033,0.0991821,0.736023
1499879220144010,-0.652588,-0.15033,0.0991821,0.736023
1499879220167015,-0.652344,-0.15033,0.0993652,0.736145
1499879220188025,-0.652344,-0.15033,0.0993652,0.736206
1499879220204011,-0.652344,-0.15033,0.0993652,0.736206
1499879220227019,-0.652283,-0.15033,0.0993652,0.736206
1499879220248026,-0.652283,-0.150269,0.0993652,0.736267
1499879220264022,-0.652283,-0.150269,0.0993652,0.736267
1499879220287020,-0.652283,-0.150269,0.0993652,0.736267
1499879220308024,-0.652222,-0.150269,0.0993652,0.736328
1499879220324018,-0.652222,-0.150269,0.0993652,0.736328
1499879220347026,-0.652222,-0.150269,0.0993652,0.736328
1499879220368035,-0.652222,-0.150269,0.0993652,0.736328
1499879220384026,-0.652161,-0.150269,0.0993652,0.736328
1499879220407029,-0.652161,-0.150269,0.0993652,0.736328
1499879220428025,-0.652161,-0.150269,0.0993652,0.736328
1499879220444024,-0.652161,-0.150269,0.0993652,0.736389
1499879220467033,-0.652161,-0.150269,0.0993652,0.736389
1499879220488039,-0.652161,-0.150269,0.0993652,0.736328
1499879220504028,-0.652222,-0.15033,0.0993042,0.736328
1499879220527036,-0.652466,-0.15033,0.0990601,0.736145
1499879220548045,-0.653076,-0.150513,0.098877,0.735596
1499879220564032,-0.653015,-0.150513,0.0988159,0.735596
1499879220587039,-0.65271,-0.150513,0.0988159,0.735901
1499879220609055,-0.65271,-0.150513,0.0988159,0.735901
1499879220624036,-0.65271,-0.150513,0.0988159,0.735901
1499879220647044,-0.652344,-0.150391,0.0986938,0.736267
1499879220669040,-0.651917,-0.150269,0.0986328,0.736633
1499879220684039,-0.651917,-0.150269,0.0986328,0.736694
1499879220707045,-0.6521,-0.150269,0.0985718,0.736572
1499879220729049,-0.652039,-0.150208,0.0985718,0.736572
1499879220743055,-0.652039,-0.150208,0.0985718,0.736572
1499879220767050,-0.652039,-0.150208,0.0985718,0.736572
1499879220789046,-0.652039,-0.150208,0.0985718,0.736572
1499879220803053,-0.652039,-0.150208,0.0985718,0.736572
1499879220827055,-0.652039,-0.150208,0.0985718,0.736572
1499879220849056,-0.652039,-0.150208,0.0985718,0.736572
1499879220870082,-0.652039,-0.150208,0.0985718,0.736572
1499879220887057,-0.652039,-0.150208,0.0985718,0.736572
1499879220909052,-0.652039,-0.150208,0.0985718,0.736633
1499879220923064,-0.651978,-0.15033,0.0988159,0.736572
1499879220947061,-0.651855,-0.150452,0.098999,0.736633
1499879220969061,-0.651733,-0.150574,0.0992432,0.736694
1499879220983068,-0.651428,-0.150696,0.0994263,0.736938
1499879221007067,-0.651184,-0.150696,0.0996704,0.737122
1499879221029059,-0.650818,-0.150818,0.0998535,0.737366
1499879221043060,-0.650635,-0.151001,0.0996704,0.737549
1499879221067068,-0.65094,-0.151306,0.0995483,0.737183
