timestamp,emg1,emg2,emg3,emg4,emg5,emg6,emg7,emg8
1501932443682753,59,3,14,51,6,3,13,-97
1501932443682753,-59,-15,13,-40,-11,-5,16,-3
1501932443683755,2,-24,-7,-9,-5,-5,-7,64
1501932443683755,74,-21,7,3,-6,-9,-49,80
1501932443684754,-56,28,-26,12,8,12,57,59
1501932443684754,-77,-15,3,-16,-6,-12,-73,-53
1501932443688765,4,30,12,-4,-1,-1,37,65
1501932443688765,8,-10,-1,-15,-6,-16,-60,8
1501932443694826,-69,-37,-25,-60,-17,-19,-24,-13
1501932443694826,31,21,8,51,10,12,52,21
1501932443703776,26,1,-20,-27,-10,-5,-27,39
1501932443703776,38,-6,6,0,0,6,67,-48
1501932443710802,-76,31,15,9,9,9,1,-55
1501932443710802,71,18,-5,15,3,-1,-9,20
1501932443725760,34,-7,6,5,0,8,81,14
1501932443725760,-57,2,-4,26,0,7,31,6
1501932443733767,62,-16,-4,-2,-2,-9,-76,-46
1501932443733767,78,4,-38,-16,3,15,117,54
1501932443748768,-34,6,35,25,11,10,5,-3
1501932443748768,-92,21,5,9,6,1,-10,-42
1501932443755830,-33,-14,-14,-18,-11,-10,-19,43
1501932443755830,16,28,-3,7,-1,9,36,29
1501932443769792,6,-9,-19,20,7,-2,22,-74
1501932443769792,-11,-1,15,35,5,11,46,-52
1501932443811762,9,0,8,-7,-1,10,18,70
1501932443811762,11,-5,10,12,2,7,10,-19
1501932443815795,70,-38,-14,-17,1,10,-3,81
1501932443815795,33,13,13,3,2,-1,22,-12
1501932443816773,-10,7,-6,19,6,4,-41,-25
1501932443816773,26,12,23,42,12,19,77,-7
1501932443817785,13,-9,4,-60,-9,-13,-48,90
1501932443817785,-85,10,-7,-7,-11,6,30,-5
1501932443822802,15,-2,-41,1,0,-7,-10,-40
1501932443822802,-5,-9,19,-13,-9,-16,-44,13
1501932443829771,-22,16,7,34,7,-2,24,-69
1501932443829771,51,-3,5,12,7,3,14,-16
1501932443836822,6,39,31,-9,-1,3,67,-46
1501932443836822,-51,-2,-24,-7,-3,-4,6,-15
1501932443851807,21,-8,-34,4,-6,-6,53,-40
1501932443851807,-38,15,10,4,1,1,-2,7
1501932443859806,22,-29,-1,2,3,1,-35,70
1501932443859806,62,11,18,5,-2,-4,-2,12
1501932443883780,-21,10,-22,-9,1,20,34,-45
1501932443883780,56,1,18,8,-3,-2,26,-33
1501932443883780,-73,-26,-2,-1,-3,-8,-77,41
1501932443883780,-17,-2,-25,-4,-6,-5,-17,12
1501932443897802,-82,-5,0,-12,-5,-8,-11,-10
1501932443897802,47,4,-1,22,4,1,-21,9
1501932443898765,10,-1,17,22,1,3,19,-4
1501932443898765,37,-13,-11,-37,-2,-3,22,-35
1501932443919813,-12,13,12,28,-1,-3,-38,-51
1501932443919813,7,-11,-8,-5,3,-3,-47,-45
1501932443920777,-36,-4,-1,-20,-11,-12,16,9
1501932443920777,15,0,-23,6,-2,0,-6,-29
1501932443943788,6,7,17,36,7,5,-6,-6
1501932443943788,-5,-4,-6,-34,-5,-4,-28,17
1501932443943788,98,-14,12,17,2,-5,-8,5
1501932443943788,-21,17,2,10,2,1,3,56
1501932443957832,61,15,11,-1,-2,-6,-3,-51
1501932443957832,-11,10,-1,17,0,-3,-28,15
1501932443958770,-7,6,-5,-32,-7,0,18,-23
1501932443958770,-37,1,0,-10,-4,-1,-34,7
1501932443979794,-28,0,5,-2,-1,-6,-16,6
1501932443979794,17,-6,-9,-6,-1,5,-13,3
1501932443980779,30,12,31,-1,2,3,13,-31
1501932443980779,13,-19,-32,-7,-4,-16,-26,-42
1501932444003788,-44,-9,-2,-9,-4,1,32,31
1501932444003788,-104,-11,7,7,2,3,55,-10
1501932444003788,-34,-10,-30,5,-5,0,-18,38
1501932444003788,27,-6,11,10,2,-2,0,44
1501932444017773,-29,-7,-11,1,-4,0,-7,20
1501932444017773,20,-8,-15,-32,-8,-10,-5,12
1501932444018783,-4,4,-3,-5,-1,-5,9,-2
1501932444018783,5,-8,17,9,2,1,9,-21
1501932444039814,-35,-7,-24,-3,-1,-5,-33,-17
1501932444039814,-60,8,19,1,0,-6,-41,-10
1501932444040785,7,2,1,-28,-5,0,-14,7
1501932444040785,-19,-16,-20,-3,5,6,3,-1
1501932444063795,27,6,22,4,-1,-1,28,-37
1501932444063795,30,-11,-15,18,0,-4,19,11
1501932444063795,-25,-3,-8,-9,-5,-6,11,-13
1501932444063795,-10,11,5,-17,0,2,-19,-21
1501932444077819,-11,-18,12,-3,1,-1,-3,62
1501932444077819,62,5,-10,10,1,7,2,-37
1501932444078810,17,5,6,11,7,5,15,-26
1501932444078810,15,1,-17,-8,-7,-2,-9,-25
1501932444099816,31,1,7,6,-1,-13,-45,47
1501932444099816,7,-14,-5,-11,-6,1,-13,4
1501932444100785,-36,-4,-5,6,-1,-3,-9,5
1501932444100785,-8,12,16,11,0,1,8,57
1501932444122817,68,-8,-8,-11,1,0,-4,0
1501932444122817,35,-23,-12,3,-7,-3,-11,4
1501932444123807,82,0,-16,-14,-9,-6,-8,9
1501932444123807,-36,-3,-5,-5,0,0,6,-1
1501932444137848,4,9,23,15,1,4,30,20
1501932444137848,-11,-11,-22,7,2,-9,3,63
1501932444138780,-30,-1,16,-9,-2,9,-14,-8
1501932444138780,71,25,-24,3,-2,-5,9,-10
1501932444159823,-47,-1,-10,-29,-7,4,-32,-118
1501932444159823,-39,1,6,-2,-2,2,-5,-14
1501932444160806,46,-9,-12,20,4,-1,26,56
1501932444160806,-93,15,14,-8,-1,0,-15,-37
1501932444182782,-17,9,-4,-6,0,-1,-4,3
1501932444182782,33,-3,-3,-11,-3,-1,6,66
1501932444183798,-4,-25,-5,6,-4,-8,-37,-27
1501932444183798,69,2,12,-3,-1,1,35,-4
1501932444196832,-8,9,8,7,2,3,55,19
1501932444196832,-16,0,-8,-10,-1,2,-14,-41
1501932444204806,-12,11,-3,1,-1,-4,22,-13
1501932444204806,-15,-43,-5,-8,-8,-5,0,29
1501932444219855,5,-8,-1,7,5,0,-16,-32
1501932444219855,-34,-8,7,-3,-1,-5,-5,-29
1501932444220792,45,18,-7,0,3,9,23,-11
1501932444220792,11,1,29,4,-3,-5,-24,-6
1501932444242826,-11,-16,-16,-9,-5,-7,-13,-7
1501932444242826,-45,-11,-4,-8,-4,-7,-12,-15
1501932444243785,-27,-3,-16,-1,3,4,9,-24
1501932444243785,-12,0,11,6,3,2,-4,7
1501932444256855,13,-3,-7,5,-1,-9,-10,4
1501932444256855,27,-2,-4,15,1,2,-1,51
1501932444264860,53,2,11,-16,-6,-5,-15,-45
1501932444264860,1,-11,-25,-25,-6,1,-4,0
1501932444279851,-20,8,3,3,-4,0,-40,37
1501932444279851,-11,12,21,0,-2,-6,11,-34
1501932444280807,-56,-30,-3,11,-3,-2,5,-17
1501932444280807,33,-6,-3,-1,-2,-5,-23,-30
1501932444302823,-22,-2,-9,-7,2,4,6,37
1501932444302823,15,13,15,11,3,5,-4,-16
1501932444303791,0,-13,-21,-1,-6,-2,-15,73
1501932444303791,8,7,1,-5,0,2,18,-21
1501932444316807,51,-3,-5,3,0,0,26,-8
1501932444316807,-9,-6,6,0,4,3,14,-21
1501932444324832,49,3,25,-1,3,-1,-3,-1
1501932444324832,-41,11,-25,-2,-1,-2,-9,4
1501932444339835,44,9,1,27,4,1,-8,1
1501932444339835,-12,15,-6,-45,-1,4,4,68
1501932444340792,-43,13,2,4,0,-6,6,-47
1501932444340792,25,-1,8,10,5,2,-12,32
1501932444362833,-63,0,11,4,-1,0,8,-7
1501932444362833,25,2,-20,1,4,1,6,-1
1501932444363793,-38,6,-12,-9,-3,-6,-26,-4
1501932444363793,-47,-14,7,14,4,7,44,21
1501932444376861,-24,-4,9,0,2,2,-1,-25
1501932444376861,21,-18,-19,1,-4,-2,10,-19
1501932444384809,-66,12,12,-18,-9,-3,-15,14
1501932444384809,-6,-4,-17,2,-3,-2,1,-13
1501932444399835,21,-15,-27,-7,-7,-8,-24,-4
1501932444399835,13,13,29,13,0,-2,12,9
1501932444400802,66,-7,6,5,3,1,-4,-46
1501932444400802,2,-5,1,-1,3,2,3,-5
1501932444422836,-1,6,6,-1,0,4,8,7
1501932444422836,-11,3,1,-24,-10,-13,-1,13
1501932444423799,8,7,-1,8,5,1,-14,-38
1501932444423799,8,-2,5,1,-2,-2,11,-5
1501932444445846,-4,13,7,22,6,6,21,0
1501932444445846,64,-4,-10,-31,-11,-4,33,-26
1501932444446810,20,-13,-16,-18,-3,4,11,22
1501932444446810,1,6,20,4,-5,-7,-27,-9
1501932444459862,-75,-5,-15,-6,1,0,-7,-15
1501932444459862,10,-2,-5,23,5,10,20,17
1501932444460806,-25,0,-4,-12,-4,-7,-17,-7
1501932444460806,53,1,5,-2,-2,-1,17,1
1501932444482801,13,-12,-10,15,0,1,5,-15
1501932444482801,-13,0,-1,-24,2,1,-48,-5
1501932444483801,1,-9,11,5,-3,-4,18,9
1501932444483801,-22,-1,-9,-2,3,5,-1,-24
1501932444496833,51,-4,4,-8,-9,-2,29,16
1501932444496833,-11,-8,-3,19,3,-2,0,7
1501932444504800,23,-4,-29,6,3,4,9,2
1501932444504800,-11,-1,5,6,-2,-1,23,106
1501932444519807,45,-7,4,-30,-8,-7,-33,-10
1501932444519807,-19,13,7,11,3,1,5,12
1501932444520802,-36,-1,14,5,2,4,-2,3
1501932444520802,-82,-10,-23,-3,-1,-4,-29,-22
1501932444542861,45,15,1,7,-2,-2,-1,0
1501932444542861,-13,-14,-1,-11,-1,-5,-14,-4
1501932444543804,1,9,9,4,-8,0,-24,12
1501932444543804,63,3,3,-9,2,-4,-10,-17
1501932444556869,-42,-3,-16,-6,-6,2,12,54
1501932444556869,-7,1,-2,10,0,-1,2,-44
1501932444564870,-22,-4,5,13,7,3,14,2
1501932444564870,0,-1,-2,-13,-5,-5,-41,-37
1501932444579847,34,-3,10,-16,4,1,8,-14
1501932444579847,3,9,3,45,-2,0,-12,7
1501932444587849,-10,-13,-20,-11,-7,-4,17,28
1501932444587849,-20,-6,-11,-16,-5,1,-3,-53
1501932444602850,23,-1,-3,-17,2,0,-16,-32
1501932444602850,-42,2,3,-9,2,7,35,-5
1501932444603807,26,2,8,27,0,-1,22,-7
1501932444603807,-24,5,-7,-9,-2,-2,-10,10
1501932444625846,-9,0,-3,12,5,4,15,11
1501932444625846,61,3,-3,-50,-4,-1,-31,41
1501932444626820,5,2,2,14,0,-1,12,1
1501932444626820,-5,6,19,69,1,-1,2,-6
1501932444640869,1,4,9,-55,-5,0,4,2
1501932444640869,-12,-5,-37,-52,-1,0,-17,26
1501932444641810,-30,5,-4,5,0,-3,2,76
1501932444641810,-12,-1,12,7,0,0,18,12
1501932444662848,-6,8,11,60,2,-3,-4,-41
1501932444662848,-24,-1,-1,1,-3,1,0,-25
1501932444663811,-17,13,-2,-22,-2,2,-15,15
1501932444663811,17,-20,-25,-39,-3,2,39,11
1501932444685853,5,-2,7,18,0,-7,-11,10
1501932444685853,10,-6,14,58,5,-2,-30,-28
1501932444686846,23,5,-27,-77,-4,7,26,-55
1501932444686846,-8,9,22,19,7,-1,-33,17
1501932444699850,-29,11,-2,-11,-10,-3,-3,44
1501932444699850,-26,-12,-16,6,-7,-5,12,-31
1501932444700818,-34,0,22,49,8,1,8,-20
1501932444700818,-14,1,7,-22,-2,-3,-5,-11
1501932444722852,29,-3,-34,-26,-4,-12,-2,-48
1501932444722852,-17,-16,4,-29,1,-2,-12,18
1501932444723814,38,11,13,30,5,-5,-36,-35
1501932444723814,-31,-12,-4,-14,1,-1,-9,-32
1501932444745882,0,-5,3,74,-2,-11,-40,-47
1501932444745882,-2,14,4,-4,-2,4,35,15
1501932444746815,-42,-1,-13,-7,1,-4,-6,6
1501932444746815,36,-5,13,-21,0,-1,14,43
1501932444759855,14,-10,8,-3,2,5,-14,-18
1501932444759855,-17,17,-3,-8,-4,-1,3,-16
1501932444760832,15,-4,1,-34,-7,-6,-12,22
1501932444760832,49,4,-9,18,1,4,18,-6
1501932444781885,-71,7,21,-7,6,10,15,6
1501932444781885,1,-9,-1,12,1,-4,-3,7
1501932444790861,7,5,2,17,0,1,-3,-46
1501932444790861,-9,-7,-8,-35,-6,-4,-16,19
1501932444805884,12,-4,-3,-8,-4,-1,8,23
1501932444805884,24,-8,8,23,1,-10,-58,-7
1501932444807834,34,2,-6,36,1,4,3,76
1501932444807834,-7,6,-6,-52,-8,-2,2,-20
1501932444828840,-19,4,0,-16,-4,1,23,17
1501932444828840,-28,2,11,-1,3,2,11,-9
1501932444829821,-13,-8,4,19,3,-4,15,2
1501932444829821,-23,1,-3,-5,-7,3,8,-20
1501932444841883,18,-3,-12,-19,-4,-4,-31,31
1501932444841883,21,-6,-1,-4,-6,-4,-4,2
1501932444850842,-13,3,6,-1,3,0,-5,6
1501932444850842,-60,6,-4,12,1,-2,-40,-17
1501932444865871,42,-12,-3,3,0,1,26,-10
1501932444865871,9,2,-19,-10,-4,-7,-18,-18
1501932444867833,25,1,4,32,-2,-1,4,-27
1501932444867833,-7,5,-6,-26,-6,-8,-1,18
1501932444888845,19,-11,-2,-8,-3,-4,5,3
1501932444888845,39,14,3,-6,1,6,9,-37
1501932444889823,-18,-17,-35,-28,-9,-7,-8,-23
1501932444889823,10,0,-5,25,7,5,1,3
1501932444901864,0,5,9,21,3,4,16,-13
1501932444901864,-4,-3,6,-22,-3,-7,12,9
1501932444910855,24,-9,21,-41,-5,-4,-27,39
1501932444910855,34,11,-3,74,4,1,1,-13
1501932444925867,-20,0,-11,-29,-2,1,14,3
1501932444925867,-3,-6,-6,14,-1,-6,-10,-7
1501932444927861,1,6,16,-13,3,5,-6,10
1501932444927861,-4,-12,-7,5,-1,-1,-12,1
1501932444948846,-26,0,7,14,2,4,16,23
1501932444948846,-19,7,28,40,2,-2,-11,16
1501932444949828,33,-8,-17,-44,-3,0,33,-26
1501932444949828,4,-3,-10,-25,-3,-1,-6,5
1501932444961873,-25,5,-4,-26,-6,-4,-19,-14
1501932444961873,6,-9,-1,7,1,4,23,7
1501932444970835,-11,-8,-3,6,-1,-4,-8,11
1501932444970835,8,5,14,23,0,-5,10,6
1501932444985870,22,-7,-6,-31,1,1,-19,-16
1501932444985870,-2,-8,-21,-9,-2,1,4,-3
1501932444987830,-15,8,17,23,-3,-4,-17,-5
1501932444987830,1,-5,14,19,2,-1,24,58
1501932445008726,16,-12,-5,-7,3,-7,-22,1
1501932445008726,-12,10,6,14,-10,-5,-22,-5
1501932445009657,-12,3,-18,-11,2,3,7,-31
1501932445009657,9,-8,2,-14,-10,-2,3,-8
1501932445021699,-32,6,-14,35,6,1,-1,-5
1501932445021699,26,-10,-7,-11,-4,-5,-5,-14
1501932445030660,-72,1,-1,-2,-7,3,14,34
1501932445030660,7,-6,7,-8,3,-1,-8,-9
1501932445045692,-6,2,-20,5,3,1,-13,5
1501932445045692,-9,-11,-18,-22,-13,-3,-16,7
1501932445047661,13,-3,-2,46,4,2,7,25
1501932445047661,-11,9,-3,-76,-7,4,35,-6
1501932445068666,-1,1,8,18,0,3,16,12
1501932445068666,-5,6,9,10,5,-1,7,16
1501932445069661,0,-1,3,20,2,0,-4,-16
1501932445069661,9,-14,13,29,-1,-1,-18,-16
1501932445081703,2,-5,-12,-14,2,4,16,66
1501932445081703,35,13,14,-32,1,6,15,20
1501932445090672,3,-8,-9,-65,-10,-5,-15,-18
1501932445090672,2,-3,-18,56,-1,-6,-15,-9
1501932445105702,-24,5,2,-29,-6,0,-1,-2
1501932445105702,-69,-12,6,30,4,-2,-11,2
1501932445107664,-1,-1,6,-16,1,-2,16,17
1501932445107664,4,9,15,0,6,7,-3,-8
1501932445128729,-1,6,-1,30,11,2,-9,3
1501932445128729,-5,3,-17,-64,-13,-2,5,-18
1501932445130664,-5,-23,6,59,1,-6,-26,-26
1501932445130664,12,1,-1,78,0,-2,2,14
1501932445150730,-53,-11,5,-36,-4,-7,-26,-21
1501932445150730,0,-1,-14,17,1,0,28,-2
1501932445152676,10,10,-6,-43,-1,3,-8,-43
1501932445152676,41,1,5,3,2,-2,11,18
1501932445165708,11,-4,-3,64,-8,-2,10,-22
1501932445165708,4,5,1,1,-1,-4,-8,8
1501932445167665,-4,6,4,-29,-11,-4,-12,2
1501932445167665,3,10,-15,8,3,2,17,19
1501932445188734,-28,32,19,15,2,-3,-16,-53
1501932445188734,31,-32,-14,-14,-6,-5,-6,-4
1501932445189669,26,-2,1,48,3,0,11,0
1501932445189669,-5,12,4,-22,0,1,-16,-11
1501932445210712,-33,-17,-5,7,-11,-13,17,5
1501932445210712,-14,17,2,-1,5,15,28,16
1501932445212669,-18,-9,7,-9,6,2,-2,-16
1501932445212669,-15,-21,-32,-20,-5,-4,27,-15
1501932445225670,53,-23,1,-44,0,1,8,5
1501932445225670,-39,8,15,46,-5,-5,-13,-4
1501932445227680,-8,0,-12,-52,-1,-4,8,9
1501932445227680,-2,6,20,91,1,7,-31,15
1501932445248738,-34,-2,-23,-32,-6,-2,-21,47
1501932445248738,29,2,6,-14,10,6,21,-33
1501932445249673,28,-3,10,17,-3,-4,-11,12
1501932445249673,0,-1,-7,-15,2,1,6,-8
1501932445271673,11,-5,3,-30,-2,0,1,29
1501932445271673,10,-5,-4,24,3,-1,-7,-6
1501932445272682,-17,0,-2,30,4,-1,-16,6
1501932445272682,-19,-8,0,-72,-9,-3,20,-18
1501932445284738,35,1,0,9,-2,1,1,-5
1501932445284738,-33,6,-4,2,3,-6,-9,6
1501932445291690,49,6,-10,-7,1,7,10,-3
1501932445291690,-31,3,0,-12,-5,-6,-27,4
1501932445308738,26,3,7,6,2,0,0,-24
1501932445308738,-1,-11,-6,-10,-3,-6,6,-4
1501932445309690,-10,-12,4,27,4,-1,16,11
1501932445309690,-6,-3,-12,-52,-5,-4,-33,-22
1501932445330731,16,6,14,-3,0,0,15,-13
1501932445330731,-10,2,-1,-77,-18,2,-5,-42
1501932445332675,-13,-7,-23,-10,-1,-2,-4,-3
1501932445332675,34,5,1,-3,0,-8,-9,41
1501932445345709,-7,10,1,-12,-1,4,7,-2
1501932445345709,6,-3,-6,41,2,2,-13,70
1501932445351728,-43,12,6,-6,-4,2,16,3
1501932445351728,-7,-18,6,18,3,-1,-20,-24
1501932445368751,3,4,1,23,5,-5,-50,-10
1501932445368751,-29,0,-2,-12,2,-1,15,10
1501932445369679,36,7,7,-23,-3,5,-1,14
1501932445369679,-12,-4,-15,26,2,-3,3,-2
1501932445390745,-2,-20,0,-48,-8,-5,-8,10
1501932445390745,5,4,6,12,-4,-3,-11,-5
1501932445392691,-2,-5,8,31,-1,-7,-17,-35
1501932445392691,-1,0,-9,-45,-4,-1,6,-13
1501932445405691,0,-3,13,34,7,6,29,3
1501932445405691,-16,-23,-4,36,-5,-10,-36,-14
1501932445411747,12,14,-8,-29,1,3,14,-21
1501932445411747,7,0,17,14,-1,0,-3,-5
1501932445428753,1,3,-36,18,0,0,18,-17
1501932445428753,-11,-7,-7,-29,-1,1,18,19
1501932445429683,0,-4,0,-51,-7,-6,-13,17
1501932445429683,-16,3,0,22,4,0,4,-7
1501932445450725,20,3,-5,20,-9,-4,7,7
1501932445450725,16,10,8,8,9,5,18,-22
1501932445452683,-13,-1,-2,33,5,1,-10,-15
1501932445452683,-1,6,4,-45,0,1,7,4
1501932445465695,2,-12,-7,-54,-9,-3,-9,9
1501932445465695,6,10,-5,49,5,-5,8,-2
1501932445471756,-27,-6,4,-24,-13,-4,8,-4
1501932445471756,2,-12,-19,32,3,-2,-21,3
1501932445488730,7,6,7,3,0,-2,-5,30
1501932445488730,38,-4,-1,-26,2,2,-11,-2
1501932445489685,-11,-1,-3,38,-3,-6,-1,-7
1501932445489685,-9,7,17,-11,-3,-2,-4,1
1501932445510729,-18,-7,-4,26,0,-5,-23,-25
1501932445510729,25,0,1,-32,-3,7,21,1
1501932445512686,-17,0,3,32,2,0,8,22
1501932445512686,6,2,-11,-6,-4,-2,-5,2
1501932445524722,-12,1,19,4,-1,-2,12,-1
1501932445524722,-53,-2,-4,-4,1,-3,-33,-12
1501932445531730,18,-7,0,-1,-2,-5,-1,-8
1501932445531730,-9,9,5,42,8,4,34,16
1501932445548698,1,-4,-11,-83,-8,1,-2,-31
1501932445548698,-5,-8,-18,18,-7,-2,-15,-53
1501932445549700,-13,9,0,-10,5,1,3,0
1501932445549700,-17,-5,-11,11,-9,-5,-10,-10
1501932445570723,-7,2,10,17,7,3,0,14
1501932445570723,31,13,-3,8,-3,-1,-5,-8
1501932445572691,2,-1,-1,-25,0,0,-10,-11
1501932445572691,11,-3,4,18,2,1,7,0
1501932445584742,21,3,3,37,6,2,10,1
1501932445584742,11,-3,-1,-35,-18,-9,3,9
1501932445591732,-9,7,-11,26,5,4,6,6
1501932445591732,13,-6,12,-7,2,3,12,1
1501932445608710,4,-1,-19,14,-2,-3,0,5
1501932445608710,-4,-2,14,-11,7,0,2,4
1501932445609694,-3,-3,-11,-2,-5,-5,6,9
1501932445609694,12,-11,-19,-2,-14,-13,-32,31
1501932445630697,-4,0,7,43,5,3,-1,-25
1501932445630697,11,3,0,-58,-3,0,8,10
1501932445632695,-16,-2,6,-8,0,2,0,-1
1501932445632695,-11,0,-8,-37,1,0,-2,24
1501932445644758,7,8,3,12,0,3,11,-25
1501932445644758,-10,2,3,-6,0,-7,-23,10
1501932445653708,-14,-10,-6,15,-2,0,-14,2
1501932445653708,17,-3,-10,27,3,1,-1,-3
1501932445668763,11,-6,5,-33,-12,-6,5,11
1501932445668763,-21,5,17,63,9,4,0,-12
1501932445669695,16,3,-5,-29,1,-1,4,22
1501932445669695,12,-3,9,-23,-7,-2,7,-43
1501932445690711,-7,4,-1,0,-3,-2,6,7
1501932445690711,-9,-7,1,22,4,-2,-1,88
1501932445692696,47,8,-3,40,4,-1,-14,-41
1501932445692696,-7,4,-10,-93,-14,-2,-5,-20
1501932445704759,-17,-10,-11,1,8,-1,-11,3
1501932445704759,-5,-5,1,27,-2,4,11,5
1501932445713698,-15,-2,-8,3,-3,-1,-8,-12
1501932445713698,-17,-3,14,10,-4,-4,-8,29
1501932445728763,15,0,5,-33,-4,-1,0,-8
1501932445728763,12,1,4,89,8,1,-11,-1
1501932445729700,5,0,0,-69,-5,-4,-4,7
1501932445729700,-6,-9,-20,7,1,-1,-16,-24
1501932445750719,8,14,19,-9,4,6,46,8
1501932445750719,2,-4,2,-9,-5,1,15,-32
1501932445752702,-20,-9,-5,11,-1,0,1,-9
1501932445752702,5,-3,22,11,3,-1,-4,4
1501932445764762,-8,-2,-25,-6,-5,-4,-26,20
1501932445764762,7,1,2,2,2,2,28,-50
1501932445773717,-28,2,6,3,1,0,-21,-5
1501932445773717,24,-2,-8,-40,-1,-1,27,-14
1501932445788768,-9,-9,6,38,-2,-4,-20,-5
1501932445788768,20,-8,-8,-16,-2,-4,18,4
1501932445789704,-27,1,-13,-20,-8,-10,-7,28
1501932445789704,-9,-1,2,26,7,3,36,3
1501932445810706,-8,1,-6,-7,-3,1,-58,2
1501932445810706,6,3,18,-4,4,-2,31,1
1501932445812714,-32,-6,-9,-2,3,8,19,-8
1501932445812714,-10,-6,-1,-20,-8,-10,-31,-10
1501932445824770,3,10,10,31,-1,5,25,3
1501932445824770,-4,-3,-7,20,-4,-2,1,-4
1501932445833719,12,-6,8,-55,-4,-5,-20,-20
1501932445833719,-9,6,1,18,3,5,-4,14
1501932445848710,-7,-8,-4,-36,0,-1,-28,3
1501932445848710,-3,2,-6,-6,0,-6,-52,20
1501932445849706,27,-12,-9,24,-6,0,11,-12
1501932445849706,-18,9,8,10,-2,-3,-8,-3
1501932445870777,4,-5,0,36,4,-8,-8,-1
1501932445870777,-6,3,-9,-106,-6,1,6,9
1501932445872716,6,-1,2,17,0,0,3,0
1501932445872716,1,12,0,15,4,4,21,9
1501932445884770,35,-9,3,1,1,1,29,6
1501932445884770,10,4,-7,-6,-1,-4,-38,-8
1501932445893710,2,-5,-19,10,-6,5,38,5
1501932445893710,-29,-7,16,2,0,0,-47,-20
1501932445908739,-14,-1,8,19,3,-4,23,-7
1501932445908739,5,1,-8,-42,-7,-1,-1,-1
1501932445909711,10,2,10,16,0,-3,-15,5
1501932445909711,11,-7,-3,21,3,-1,6,27
1501932445930773,23,-8,-17,-29,-8,-5,-17,-3
1501932445930773,-18,4,-3,18,1,0,10,0
1501932445932736,12,18,24,-40,5,4,-4,9
1501932445932736,7,-5,-3,33,-5,-6,-3,-28
1501932445944773,-29,-4,-9,-8,-9,1,30,5
1501932445944773,-9,0,0,33,4,-1,11,16
1501932445959771,10,2,-3,-20,-4,-5,-6,-19
1501932445959771,-3,2,-10,-11,1,-4,-18,-50
1501932445968752,-31,-1,8,-30,-1,-11,-73,-9
1501932445968752,-1,-5,-5,58,-1,18,89,35
1501932445969713,24,0,12,20,2,-5,7,-11
1501932445969713,-9,-7,-11,-24,-1,1,-3,10
1501932445990758,-10,-1,1,5,1,-2,3,-14
1501932445990758,-6,-10,6,-39,-6,-3,-15,1
1501932445992714,1,-2,-11,12,-2,-7,-25,11
1501932445992714,0,3,3,7,-1,0,11,3
1501932446004778,-3,2,-4,-53,-7,-5,-55,24
1501932446004778,-17,0,-4,8,3,0,21,-33
1501932446013715,7,-7,10,3,-2,1,-13,-1
1501932446013715,6,1,-11,-4,6,1,-2,0
1501932446028716,-2,2,2,29,-2,1,19,-1
1501932446028716,10,-4,-1,-8,0,-4,-18,-11
1501932446029716,-8,2,0,5,-3,0,39,18
1501932446029716,-1,-1,11,-38,-3,-4,42,8
1501932446050718,2,-5,-25,1,-2,-2,13,-11
1501932446050718,1,2,3,-26,3,4,-6,-5
1501932446052717,-12,1,0,33,-1,0,-25,-18
1501932446052717,5,6,8,22,2,2,-21,0
1501932446073719,23,4,12,11,3,6,45,14
1501932446073719,-4,-1,0,-6,-3,-7,-53,1
1501932446074718,-12,11,2,8,4,4,-13,-23
1501932446074718,26,-13,-20,-10,-11,-11,-75,-24
1501932446088751,-8,-3,-11,8,-7,-6,-1,13
1501932446088751,0,4,-10,11,-1,2,18,-7
1501932446089741,26,-13,7,-31,-4,-4,18,25
1501932446089741,-12,-5,-6,11,4,6,-21,-14
1501932446110720,-3,-7,2,-12,-1,1,22,-16
1501932446110720,-26,-6,2,14,1,3,-17,-13
1501932446112721,28,6,-16,-9,0,-2,21,27
1501932446112721,-7,-1,3,-5,0,-4,-4,8
1501932446133728,-3,3,1,5,5,-3,6,-9
1501932446133728,31,-5,-8,-27,-2,0,-29,6
1501932446134721,-20,-2,-7,55,-3,6,52,-19
1501932446134721,-3,1,-3,10,0,8,39,-6
1501932446148740,0,7,8,31,6,3,-7,-14
1501932446148740,14,1,-3,-27,-5,-4,26,27
1501932446149724,-7,-10,2,9,-2,-7,-45,-14
1501932446149724,2,5,-12,-62,-6,-1,12,21
1501932446170767,-1,6,19,8,2,9,24,-5
1501932446170767,24,-10,-17,20,-5,-14,-54,-23
1501932446172733,-5,1,-1,-12,2,6,10,15
1501932446172733,-19,6,4,2,2,1,45,-17
1501932446193744,11,-4,-5,-6,0,4,-31,-1
1501932446193744,-12,2,-4,-4,-5,-8,-27,-17
1501932446194739,-17,-1,1,-11,3,-3,-12,-9
1501932446194739,13,1,-1,25,2,1,7,10
1501932446207798,-2,0,2,-24,-4,-2,-44,-15
1501932446207798,-14,-8,17,41,0,-4,-19,-3
1501932446214767,-8,2,2,-53,-7,-2,-15,-4
1501932446214767,-11,0,-11,3,-2,-3,-19,-15
1501932446238742,26,-8,0,2,0,-6,-20,13
1501932446238742,-4,18,11,22,4,4,10,15
1501932446239735,-7,-8,-3,-16,1,-2,-1,-13
1501932446239735,13,-5,-6,4,-2,4,23,-2
1501932446253748,-11,0,0,0,-5,-3,6,-11
1501932446253748,-2,-1,4,-21,2,-3,7,-24
1501932446254740,16,6,12,16,1,1,18,32
1501932446254740,-43,-10,-6,8,-4,-9,-29,-16
1501932446267801,2,0,-10,-28,0,7,9,3
1501932446267801,0,-1,2,-19,0,2,16,0
1501932446274769,-4,0,-16,36,-1,-6,-50,-3
1501932446274769,9,0,7,-3,-3,-3,26,25
1501932446290770,-5,-2,-6,-22,1,-3,38,15
1501932446290770,24,-15,1,35,1,9,-8,30
1501932446292731,-18,-3,22,15,-5,-6,39,-14
1501932446292731,19,5,-18,-15,-3,0,33,20
1501932446313747,-2,2,-9,-12,-1,-5,25,7
1501932446313747,-2,9,5,18,5,0,10,10
1501932446314735,6,-7,-14,-39,0,-2,-27,9
1501932446314735,-3,-7,-2,25,-8,-6,-32,-19
1501932446327776,-8,-3,2,4,-7,3,-1,-9
1501932446327776,7,3,0,-26,-5,-5,15,-2
1501932446334807,7,4,5,10,6,4,7,-3
1501932446334807,-7,6,15,-8,4,2,-10,-1
1501932446350777,-12,-5,-18,10,-2,-3,-25,11
1501932446350777,6,-4,-4,-4,0,0,37,2
1501932446352737,-41,0,6,6,2,3,3,-9
1501932446352737,14,-10,-5,-15,0,2,11,-1
1501932446373764,17,3,14,24,4,4,20,-9
1501932446373764,-13,-3,2,-31,-1,2,0,-14
1501932446374738,-8,-5,-31,-38,-6,-3,-1,2
1501932446374738,-5,2,9,35,3,-1,-4,-2
1501932446387776,-2,3,2,-10,-2,0,-8,8
1501932446387776,7,-5,-6,48,2,-3,4,-2
1501932446394778,2,-1,-5,-79,-5,6,57,7
1501932446394778,-4,2,-1,-17,0,1,18,2
1501932446410780,-7,-5,0,6,3,3,16,1
1501932446410780,2,-1,-3,-9,-3,-7,-99,-16
1501932446412748,21,-2,-10,22,-2,-1,-16,4
1501932446412748,-1,-4,9,-12,-3,-5,-12,-13
1501932446433754,-12,6,12,43,2,3,-15,-9
1501932446433754,-67,-9,1,-17,-8,-4,6,-10
1501932446434741,42,-2,-5,14,1,-6,-26,18
1501932446434741,-5,4,10,-21,1,-1,-62,9
1501932446447786,11,3,-8,27,-1,-4,10,-21
1501932446447786,-7,-2,-15,-5,-5,0,3,7
1501932446454781,-9,-2,4,17,-2,-2,-18,-19
1501932446454781,-2,-2,12,6,0,-9,-25,6
1501932446470780,1,-3,-13,-7,-2,1,34,4
1501932446470780,16,2,-6,4,-2,-3,15,-1
1501932446472751,-7,-3,-4,-20,-2,8,8,10
1501932446472751,18,8,-11,29,2,1,13,2
1501932446493758,-11,-13,15,-15,-3,-6,-17,-19
1501932446493758,2,1,1,2,-4,-1,14,6
1501932446494746,-8,-1,9,24,1,-4,0,13
1501932446494746,-26,-3,-15,-14,-2,3,-3,-8
1501932446515792,33,10,5,2,5,-7,-52,14
1501932446515792,12,-1,-14,11,-1,2,19,-10
1501932446517746,27,-2,16,21,-5,-16,-69,-23
1501932446517746,-6,-12,-27,-29,-7,0,30,14
1501932446530786,-12,-3,-18,-29,-4,-3,-9,4
1501932446530786,5,2,19,16,6,3,-25,-10
1501932446532746,-17,5,-17,3,0,-1,20,7
1501932446532746,49,-1,19,20,0,-1,-29,20
1501932446553757,-5,0,-10,-2,-4,0,4,-3
1501932446553757,-1,-2,-3,-13,-1,0,-8,-5
1501932446554758,-7,0,-9,-5,-2,0,5,-8
1501932446554758,-15,1,7,-12,1,2,53,-21
1501932446566767,-5,-2,-7,-14,4,12,45,18
1501932446566767,-9,-3,5,37,-4,-8,-52,-15
1501932446575787,4,-4,4,16,-4,-6,-17,11
1501932446575787,2,-1,0,2,6,10,48,-2
1501932446590812,-8,-3,-11,5,-4,-6,22,24
1501932446590812,-13,0,-6,10,3,3,61,2
1501932446592748,-1,-1,7,-23,-4,-6,-21,8
1501932446592748,9,-2,1,-1,4,-3,-68,-3
1501932446613764,-40,-1,-10,-52,-12,-4,21,-15
1501932446613764,-12,-11,0,24,-2,-8,-17,-2
1501932446614751,12,-1,-6,7,1,3,15,-51
1501932446614751,-13,7,17,57,11,13,64,61
1501932446626815,13,4,6,-14,3,-3,-53,-29
1501932446626815,-3,-1,-15,-78,-12,-8,-18,-22
1501932446635785,-6,2,8,13,2,4,25,-39
1501932446635785,-19,-3,-5,-25,-2,-2,-2,-41
1501932446650796,-1,0,4,34,7,-1,-24,-3
1501932446650796,20,6,5,-12,1,-4,10,28
1501932446652752,-2,-5,-7,6,-2,-5,-78,72
1501932446652752,-10,1,5,28,1,0,13,-16
1501932446673770,19,-3,14,6,0,-2,-12,-46
1501932446673770,0,2,5,55,2,1,17,-15
1501932446674755,23,6,7,-87,7,9,78,11
1501932446674755,-15,-2,-6,48,-7,-8,-60,-20
1501932446686819,-6,-6,-4,-4,-10,-10,-35,-2
1501932446686819,-21,-1,5,-18,5,9,-3,45
1501932446695803,14,0,-14,42,3,-7,-6,-5
1501932446695803,18,0,-4,-45,-12,-3,3,44
1501932446710788,14,-2,-14,-9,-1,-2,8,-38
1501932446710788,16,1,1,-4,1,-3,-70,-6
1501932446712757,-12,-7,10,17,-3,-10,14,33
1501932446712757,4,1,-2,-17,-8,-2,17,-18
1501932446733756,-9,3,4,4,1,1,23,32
1501932446733756,-1,2,1,-17,3,3,20,-14
1501932446734764,-18,-3,-6,-18,-2,-5,-5,-34
1501932446734764,-29,-3,-6,6,-2,-4,2,1
1501932446746827,24,0,11,-4,0,1,0,-20
1501932446746827,-4,3,-2,-9,-1,1,56,19
1501932446755786,-38,-4,-12,19,-1,0,-2,18
1501932446755786,2,7,-2,12,-1,-5,-30,-49
1501932446770821,-9,-1,-3,-64,-4,5,25,-9
1501932446770821,10,3,6,-22,-3,3,11,-4
1501932446772759,-2,-6,-1,14,-1,6,1,-14
1501932446772759,-3,-7,-8,-28,-7,-5,0,-5
1501932446793775,-41,-6,9,23,1,3,-54,74
1501932446793775,-25,-1,-1,2,6,2,-9,57
1501932446794762,13,8,-8,-12,-3,5,-13,-20
1501932446794762,8,0,5,13,0,2,2,12
1501932446806825,10,-4,-3,15,0,-4,11,-8
1501932446806825,-3,-2,-8,6,1,-1,31,-12
1501932446815801,-10,2,16,12,2,0,-46,15
1501932446815801,-58,0,-10,18,7,2,10,43
1501932446830799,34,0,10,-63,-8,-6,10,-5
1501932446830799,23,-2,-22,-16,-5,-2,-16,53
1501932446832762,1,-2,-3,10,-2,0,9,-50
1501932446832762,19,1,0,-27,1,-1,-44,-17
1501932446853778,-16,-5,-17,30,4,0,10,4
1501932446853778,-8,-2,-1,8,-3,-5,-1,-24
1501932446854766,2,-8,11,0,-2,1,16,27
1501932446854766,6,-5,-14,-15,-4,-7,-33,13
1501932446866806,-5,3,6,27,2,4,1,-9
1501932446866806,20,-6,0,-5,-2,-2,-12,-15
1501932446875800,9,5,0,-12,-2,2,50,24
1501932446875800,12,-3,3,-1,2,5,30,-26
1501932446890808,-8,-2,1,10,-1,-4,-62,-42
1501932446890808,-13,-3,0,-27,-3,-4,24,-23
1501932446892767,-7,-10,-13,-3,0,4,18,-12
1501932446892767,3,3,5,-8,0,-3,8,0
1501932446913784,2,-1,-8,-13,-3,-3,-4,70
1501932446913784,-55,-4,-9,20,0,8,71,-45
1501932446914768,16,4,26,48,2,-3,-48,3
1501932446914768,8,3,-10,-37,0,10,61,19
1501932446926830,-1,0,1,22,2,-1,24,7
1501932446926830,8,2,4,-5,-9,-4,-15,14
1501932446935806,-6,-4,-10,-16,-3,-2,10,-11
1501932446935806,-1,0,10,5,-4,-12,-18,-10
1501932446950815,6,2,3,21,2,-2,-44,-25
1501932446950815,-27,1,2,-2,2,-1,-10,2
1501932446952769,-4,2,7,-5,3,2,76,13
1501932446952769,4,-6,0,2,0,-1,-20,-7
1501932446973792,-4,0,-9,-5,-3,2,51,-7
1501932446973792,16,-5,1,2,1,4,-34,-23
1501932446974772,26,0,-5,-9,-1,-9,-49,3
1501932446974772,-9,2,4,22,7,2,36,66
1501932446986837,3,-1,-1,-28,-6,4,16,-36
1501932446986837,48,-2,-6,13,2,-2,-6,-6
1501932446995790,-8,1,-10,-24,0,5,6,-16
1501932446995790,4,-3,8,14,0,-2,-33,-2
1501932447009813,-9,-1,-4,-38,-3,-4,7,0
1501932447009813,5,-1,4,6,-1,-3,10,3
1501932447016812,-15,0,2,2,1,-1,-16,-11
1501932447016812,10,1,-10,18,0,3,-21,-20
1501932447033791,-23,-2,1,2,3,-3,19,-20
1501932447033791,34,1,-5,23,3,0,23,28
1501932447034776,-3,7,6,-53,-1,5,43,21
1501932447034776,-2,-3,11,43,-8,-2,9,-12
1501932447055815,-10,-8,-13,3,-1,-6,-13,7
1501932447055815,-8,-6,-10,-16,0,-2,-38,1
1501932447057785,4,3,-4,33,4,-4,-13,3
1501932447057785,17,4,-9,-80,-6,-8,3,-16
1501932447070838,-2,4,8,16,-1,3,11,8
1501932447070838,14,-4,-4,-7,1,-2,-3,7
1501932447072777,-2,-2,-5,32,-2,-11,-25,-17
1501932447072777,6,-1,-7,-7,1,1,-12,2
1501932447093793,-7,-6,8,27,1,2,-2,3
1501932447093793,1,9,1,-39,2,9,-24,-50
1501932447094778,-4,7,16,52,2,0,9,0
1501932447094778,8,-9,-17,-37,-8,0,13,22
1501932447115846,12,4,6,12,0,-13,-63,-5
1501932447115846,-17,-4,6,-11,-1,8,13,10
1501932447117781,6,-2,2,-6,0,3,-11,-20
1501932447117781,-49,2,2,18,5,-2,-28,-15
1501932447130828,31,-1,-4,3,-1,0,6,34
1501932447130828,1,-1,5,7,-5,-10,5,-6
1501932447132782,4,-1,3,-22,4,11,59,7
1501932447132782,-6,-8,-9,24,-2,-2,27,0
1501932447153797,-22,-1,5,4,-2,0,17,-1
1501932447153797,-5,-3,-13,7,-1,0,59,3
1501932447154783,-25,-3,3,-6,-5,-3,-15,-3
1501932447154783,10,0,18,-11,2,1,-20,-3
1501932447175823,0,7,-23,5,0,1,17,0
1501932447175823,-5,-7,2,-3,-2,-9,-41,-13
1501932447177784,-16,-7,-4,-20,-6,-2,-24,15
1501932447177784,6,1,-2,-9,2,3,43,-12
1501932447189825,-14,2,6,21,4,1,-15,-29
1501932447189825,-22,9,3,-38,-4,-5,-63,4
1501932447196851,-2,-7,-20,-20,-8,-2,43,6
1501932447196851,-1,-3,2,-5,-2,-4,-42,-5
1501932447213803,13,-5,3,11,3,4,29,18
1501932447213803,-1,3,1,7,-1,-3,13,-7
1501932447214787,0,0,3,4,1,3,-11,-8
1501932447214787,-18,1,-10,1,-2,-2,-16,0
1501932447235827,33,1,6,-29,-2,-1,-14,-3
1501932447235827,-8,-7,3,24,-3,-2,-1,62
1501932447237795,5,3,-7,-6,-3,-5,-22,-11
1501932447237795,14,-2,1,2,0,4,16,4
1501932447249825,-7,-4,3,8,1,0,-17,-23
1501932447249825,10,-1,9,1,-2,-2,-24,-5
1501932447256845,1,-5,-9,-3,-1,-1,4,9
1501932447256845,15,3,1,-6,4,5,25,5
1501932447273799,-26,-4,-5,-13,-7,-4,7,6
1501932447273799,25,-1,-5,0,-1,-1,-1,-20
1501932447274790,-11,0,3,4,3,1,-18,-10
1501932447274790,5,-3,-3,-11,0,-1,10,-7
1501932447295831,-3,1,3,10,-1,3,6,5
1501932447295831,-7,-4,0,-10,-3,-2,1,12
1501932447297821,0,-2,-13,-3,-3,1,33,17
1501932447297821,1,-1,-8,-7,-2,-2,-12,0
1501932447309854,4,-2,-3,-2,-1,-3,-10,7
1501932447309854,-12,0,0,21,0,-4,-33,2
1501932447316824,-9,0,10,5,3,-1,10,-1
1501932447316824,-11,-5,2,13,-5,-6,-17,-17
1501932447332791,-10,-9,-8,-22,-4,-3,-1,-20
1501932447332791,6,2,-5,-7,0,4,6,8
1501932447334801,-16,-1,-1,-5,-5,-2,-13,-12
1501932447334801,-17,-2,-2,7,-2,-3,-15,0
1501932447355864,0,0,0,-11,0,-4,0,-23
1501932447355864,-9,-1,2,26,4,-3,-27,-8
1501932447357827,14,1,-19,-51,-7,7,31,9
1501932447357827,-3,-10,8,0,0,1,26,-12
1501932447369861,5,4,5,-3,4,3,-21,-10
1501932447369861,-10,2,-6,-1,0,2,32,-12
1501932447376866,3,4,0,24,-1,-6,-32,-9
1501932447376866,2,-4,-12,-50,-5,-2,-11,17
1501932447393814,4,1,-1,4,1,6,39,17
1501932447393814,23,3,11,18,1,-3,14,-15
1501932447394795,-3,-2,2,35,4,2,-38,-11
1501932447394795,-3,2,2,-31,-8,0,-8,7
1501932447415864,-2,-10,0,1,-2,-8,-28,-12
1501932447415864,7,4,-2,-22,1,3,21,-4
1501932447417832,13,-7,-13,29,-2,4,16,9
1501932447417832,-2,4,6,26,3,-2,-12,-16
1501932447429863,6,0,-22,-3,-6,-4,-10,17
1501932447429863,-14,-3,7,4,-3,2,19,14
1501932447436863,-7,-6,9,9,8,0,-18,-10
1501932447436863,15,5,-3,-41,-2,4,5,3
1501932447453815,-16,2,-1,30,-6,-5,-20,-6
1501932447453815,-11,-4,-9,-5,-4,-2,-6,-12
1501932447454799,5,2,10,0,-2,-9,-23,11
1501932447454799,-20,-7,1,26,5,0,21,7
1501932447475843,-3,1,1,-7,1,1,-8,2
1501932447475843,-12,0,-7,-20,-5,4,12,-14
1501932447477835,0,2,2,0,3,-7,-23,-9
1501932447477835,8,1,-1,13,-3,-6,-34,-7
1501932447489863,8,-2,-1,-12,-5,-5,15,-4
1501932447489863,-39,-9,-2,10,-1,4,23,-13
1501932447498814,24,5,2,-9,0,4,18,-15
1501932447498814,-6,-1,-3,-7,2,-3,18,-18
1501932447513822,27,-7,-8,-17,-3,2,-14,4
1501932447513822,3,3,-12,22,-2,-3,-28,-12
1501932447514835,-27,-12,1,-20,-8,-4,1,-8
1501932447514835,0,6,6,41,0,-4,-28,-8
1501932447535851,-8,1,-5,1,0,-1,0,0
1501932447535851,-2,-7,4,-26,-10,-6,-9,7
1501932447537804,28,4,-10,-14,-3,-4,11,19
1501932447537804,14,-1,6,17,3,4,10,2
1501932447549877,-8,1,0,-4,4,2,3,9
1501932447549877,3,-3,-9,-1,-1,-4,-1,-9
1501932447558817,-10,-2,-1,-12,-1,3,31,9
1501932447558817,-3,-2,3,8,-2,-2,6,4
1501932447573828,-8,0,2,7,2,2,-6,6
1501932447573828,-2,-2,1,-24,0,-4,-21,-12
1501932447574815,-10,-7,4,11,1,6,-6,7
1501932447574815,-16,6,-10,-6,-1,-2,-1,15
1501932447595854,28,-4,8,2,1,3,25,11
1501932447595854,17,0,-2,7,1,-1,-5,10
1501932447597827,6,3,3,-22,-4,-5,-3,-8
1501932447597827,-7,-3,-4,-7,-3,-1,-23,-18
1501932447609865,-16,-2,6,7,0,-4,-13,-6
1501932447609865,-8,0,-10,-5,-2,1,33,12
1501932447618808,15,2,-4,-6,1,0,-3,13
1501932447618808,4,-4,-7,-9,-2,-2,5,14
1501932447632808,-5,-1,4,2,0,0,3,-5
1501932447632808,-18,5,3,0,2,1,-11,-10
1501932447634808,-21,-16,-4,5,-2,-3,-16,-5
1501932447634808,6,-2,2,-1,-1,-4,2,11
1501932447655853,-13,3,3,2,1,-1,-22,-8
1501932447655853,-4,-7,2,5,1,-1,3,42
1501932447657820,25,0,-4,20,-1,-5,12,0
1501932447657820,-8,1,0,-28,-9,6,-5,-11
1501932447669874,8,-7,-7,-8,-4,-5,2,3
1501932447669874,11,9,12,4,0,3,37,-5
1501932447678813,-59,-2,-12,-13,0,-1,3,-40
1501932447678813,39,-2,-4,14,1,-1,20,16
1501932447693831,-14,-7,-9,-14,-2,-3,-2,7
1501932447693831,12,2,14,-15,4,4,-11,-6
1501932447694813,-12,4,2,-6,0,-5,-29,5
1501932447694813,-17,-5,-6,21,-11,-5,10,0
1501932447715854,9,-2,-7,-6,0,4,2,-4
1501932447715854,-8,-3,-1,11,-1,-5,-15,-14
1501932447717818,2,6,15,13,5,2,1,-5
1501932447717818,10,-3,-13,-14,3,0,0,10
1501932447729881,8,-1,-17,-8,-5,-1,-10,34
1501932447729881,-1,-2,-8,2,0,0,25,-13
1501932447738816,0,-1,5,-2,-5,0,-3,-9
1501932447738816,4,1,9,6,1,-5,-10,15
1501932447753818,-25,-3,7,13,0,-1,-12,1
1501932447753818,26,-3,-5,-10,2,11,35,-4
1501932447754816,-21,-3,-11,-11,-7,-8,-21,-7
1501932447754816,-9,1,4,3,3,2,-1,4
1501932447775855,4,0,7,-5,-2,-2,11,-8
1501932447775855,-4,-4,3,3,0,-3,-16,-2
1501932447777819,14,-1,-2,15,0,-1,-15,-8
1501932447777819,-8,-4,-14,-41,-10,-2,24,-14
1501932447789893,42,1,-7,1,-2,-3,11,-22
1501932447789893,9,0,4,7,-1,-2,-25,2
1501932447798819,-3,-4,-3,2,1,1,23,5
1501932447798819,7,1,6,17,3,-7,-14,-19
1501932447812860,-1,-3,-5,-14,-1,6,32,8
1501932447812860,-32,-1,0,-1,-2,-2,-11,-5
1501932447814830,9,0,0,1,2,1,1,9
1501932447814830,-9,6,-3,-1,4,4,11,7
1501932447835863,-15,-1,-1,12,-2,-5,-1,-7
1501932447835863,8,0,-3,12,1,1,24,12
1501932447837820,-7,3,-5,-35,-12,-2,6,1
1501932447837820,-3,-4,0,-1,3,1,-20,-11
1501932447849863,-8,1,-6,1,4,3,8,-4
1501932447849863,6,-1,-2,1,-6,-6,-26,5
1501932447858822,11,1,1,13,1,3,-9,-3
1501932447858822,9,3,2,-15,-1,2,14,0
1501932447873844,-7,3,6,6,-1,1,-13,-2
1501932447873844,-17,-2,-5,-13,-2,-1,-4,-5
1501932447874822,34,3,3,3,-1,-4,3,1
1501932447874822,-15,3,2,8,3,1,-10,-2
1501932447895864,10,1,-5,3,-2,1,17,-4
1501932447895864,6,-1,-9,-15,-4,-4,-27,-17
1501932447897827,-2,-1,1,7,-2,-4,11,13
1501932447897827,4,-13,-2,7,1,1,1,-5
1501932447909842,-8,5,-2,-15,-3,0,-2,4
1501932447909842,2,0,8,1,0,0,13,4
1501932447918829,6,7,0,29,3,3,6,-5
1501932447918829,-4,-9,-1,-16,-1,-4,-10,-2
1501932447932826,-14,-2,7,2,-1,2,-13,-19
1501932447932826,12,-3,-8,3,-1,0,-1,10
1501932447934826,2,2,0,-5,-2,-1,-6,6
1501932447934826,-7,2,4,15,2,0,3,-5
1501932447955871,5,-3,0,0,-1,-1,-32,-13
1501932447955871,-6,7,9,6,3,-3,-6,13
1501932447957828,2,-4,-7,-5,0,2,22,18
1501932447957828,-59,5,-5,-1,-5,-1,11,-21
1501932447977836,38,4,5,0,-1,-1,-5,31
1501932447977836,9,-3,-11,-16,-7,-7,-16,-30
1501932447979830,-8,-3,-3,-10,2,-2,-30,-4
1501932447979830,8,2,6,7,0,0,-28,2
1501932447992839,-18,-3,-6,-5,0,0,13,-7
1501932447992839,-6,-3,-4,-1,-1,-1,7,8
1501932447994841,-4,-4,-5,-9,-3,-2,-7,-7
1501932447994841,17,-3,-2,0,-5,-2,-10,-2
1501932448015872,8,-3,9,10,3,-4,-20,-6
1501932448015872,22,4,2,-1,1,9,23,-25
1501932448017847,-42,-9,-14,15,0,-6,-10,-4
1501932448017847,2,2,-3,-36,-3,4,11,3
1501932448038851,-17,-2,6,-11,-3,-6,12,-20
1501932448038851,-2,-7,-11,-2,-4,-1,9,12
1501932448039833,-2,1,-1,-2,-1,1,-1,-6
1501932448039833,25,1,0,17,0,-2,18,-14
1501932448053851,-16,-6,-3,6,0,-2,3,3
1501932448053851,-6,0,7,-5,0,-2,-29,8
1501932448054833,-3,-4,4,-1,2,2,21,-9
1501932448054833,-6,0,-3,3,1,-2,-19,113
1501932448075881,4,3,0,-8,-1,4,17,-72
1501932448075881,-2,-3,-2,7,2,2,6,52
1501932448077836,39,5,-1,-7,-1,-3,-20,-93
1501932448077836,-8,-6,-1,0,0,-2,28,-13
1501932448098854,-3,-4,-4,1,-6,-4,-12,26
1501932448098854,-28,-1,3,-3,-2,-6,11,-3
1501932448099836,10,-9,-3,-1,-5,-2,-19,22
1501932448099836,-6,-7,-4,-1,-1,-1,0,48
1501932448112902,-7,-2,1,5,2,-3,-6,27
1501932448112902,19,-3,2,2,0,-4,-6,49
1501932448119911,-13,2,3,-7,-3,0,-6,-2
1501932448119911,17,0,1,7,1,3,17,-32
1501932448135906,-1,-2,-4,35,0,-2,5,-6
1501932448135906,-11,-4,-8,-58,-12,-3,-15,-24
1501932448137848,-2,-8,-2,-17,-2,-1,17,70
1501932448137848,-47,-3,-2,6,-1,2,3,-65
1501932448158854,13,8,4,7,0,-1,15,-70
1501932448158854,5,8,3,17,3,-4,2,-4
1501932448159872,-14,4,-2,-4,-2,-6,-2,-5
1501932448159872,4,-4,1,-7,-1,2,-21,-19
1501932448172858,-20,-6,-5,1,-1,3,4,44
1501932448172858,-54,-10,-8,0,-3,-6,-14,-51
1501932448180854,8,-3,-3,-2,2,5,-7,21
1501932448180854,-2,0,3,1,2,2,21,-9
1501932448195887,24,1,-2,-12,-5,-9,-38,-79
1501932448195887,5,-4,0,2,-1,2,0,12
1501932448197852,-26,-4,4,7,-1,-3,-19,-1
1501932448197852,57,5,-1,0,-2,-4,-4,-53
1501932448217902,-16,3,3,-13,-1,-1,-3,45
1501932448217902,6,7,-10,2,-1,-1,-1,13
1501932448219842,-5,-7,4,7,-1,0,11,0
1501932448219842,14,6,-8,-9,-6,-6,-21,0
1501932448232876,-69,-3,1,-5,3,9,32,56
1501932448232876,30,-5,6,12,2,3,-2,-65
1501932448239865,-8,7,10,25,5,3,17,-23
1501932448239865,35,-6,-18,-33,-4,-4,-30,77
1501932448255904,-30,0,0,9,-6,-7,-15,30
1501932448255904,-1,1,-2,-1,2,5,10,-5
1501932448257845,9,2,0,-11,-2,0,3,-16
1501932448257845,-24,-3,3,26,1,-4,-8,-11
1501932448278874,40,-10,-6,-9,-5,-5,-14,22
1501932448278874,-2,-8,-2,-8,-2,-3,-12,55
1501932448279883,49,-14,-11,-3,-3,-4,-7,-27
1501932448279883,-28,10,10,5,1,1,-5,-17
1501932448291884,6,0,-1,-5,3,0,8,-9
1501932448291884,13,-9,0,10,-2,1,2,17
1501932448300856,5,3,1,-6,-1,1,10,30
1501932448300856,4,-4,-4,1,-1,0,-2,-5
1501932448315887,12,-1,-7,-11,-4,-3,-4,-20
1501932448315887,-11,6,7,5,2,2,7,2
1501932448317862,-86,-16,-7,-10,-5,-4,-9,-52
1501932448317862,41,0,3,4,-3,-1,25,4
1501932448338878,18,-3,2,3,3,0,2,19
1501932448338878,26,7,-2,-4,-3,0,18,8
1501932448339850,42,3,0,-2,-1,-1,3,-56
1501932448339850,-50,6,5,0,-2,-3,-20,-11
1501932448352853,23,-16,-18,-13,-4,-2,5,-9
1501932448352853,-11,5,2,5,0,0,-10,-38
1501932448359885,4,2,1,24,3,-3,-7,18
1501932448359885,-19,-1,-4,-48,-6,-1,4,-1
1501932448375894,-16,0,2,4,-3,-3,0,6
1501932448375894,4,7,-6,-2,2,-6,-69,-51
1501932448377853,5,1,-3,-4,-2,-2,19,17
1501932448377853,10,-3,2,12,2,5,14,15
1501932448397912,-5,2,-3,-7,0,2,5,5
1501932448397912,-14,1,4,1,-1,-3,-7,-22
1501932448399886,-17,-18,-9,-8,1,1,32,78
1501932448399886,37,-3,-9,2,-2,-4,-15,-86
1501932448412853,16,1,2,2,-1,-1,-17,42
1501932448412853,-17,-11,7,13,2,2,20,10
1501932448419874,-35,8,-2,-27,1,5,23,71
1501932448419874,-8,-5,-3,-3,-4,-3,-5,22
1501932448435898,-16,12,13,11,3,3,19,10
1501932448435898,1,-4,-3,-1,-1,-2,2,-26
1501932448437856,-2,1,4,11,1,-2,-11,-22
1501932448437856,16,-6,0,-6,-1,1,7,9
1501932448457898,-11,1,3,4,-1,0,-1,-26
1501932448457898,-4,-2,0,-3,-2,-5,13,11
1501932448459867,-14,6,-2,-4,-2,3,-14,-13
1501932448459867,-17,-3,-1,15,7,3,5,49
1501932448471902,48,-1,-1,-3,0,0,-4,-18
1501932448471902,8,-3,-4,-6,-4,-2,6,7
1501932448480866,-2,1,1,2,0,-3,-23,-26
1501932448480866,45,0,-4,4,-5,-3,-7,-51
1501932448495924,-9,0,1,-4,0,2,11,-2
1501932448495924,-1,-5,-8,-4,-5,-7,-22,16
1501932448497859,18,4,1,-1,-2,2,16,8
1501932448497859,-7,2,3,1,1,1,14,13
1501932448517933,-23,4,4,-3,-1,0,-2,-7
1501932448517933,19,1,3,20,4,6,29,-11
1501932448519870,19,3,-9,-18,-8,-4,-21,-2
1501932448519870,-16,0,1,3,-4,-7,-15,-19
1501932448531902,-5,0,-2,11,3,3,0,-4
1501932448531902,25,2,0,-1,0,-10,-7,-8
1501932448540871,-16,1,3,-14,-9,2,0,-22
1501932448540871,14,-7,-6,4,0,-3,-13,4
1501932448555895,-3,0,1,-4,-1,0,2,-6
1501932448555895,-9,-5,-2,3,1,2,9,3
1501932448557863,15,-1,5,7,2,1,-10,6
1501932448557863,-9,-5,-9,-10,-5,-5,-19,56
1501932448577904,-6,-4,-2,3,-3,-1,14,-30
1501932448577904,-8,0,-5,-11,-5,-5,-4,-15
1501932448579866,17,-1,-1,2,0,1,-1,17
1501932448579866,-19,4,4,2,1,-3,-1,-23
1501932448591907,-5,-4,-3,-4,0,0,3,-11
1501932448591907,-5,0,-3,-8,-4,-4,2,-4
1501932448600872,-3,2,-3,-2,-1,-1,-3,-40
1501932448600872,14,-3,-1,5,1,-2,-7,-71
1501932448615905,-13,-2,-3,0,-1,-7,-56,1
1501932448615905,0,4,6,-4,0,9,16,-3
1501932448617866,-31,0,-5,5,-3,-7,22,-22
1501932448617866,30,5,5,-1,0,5,25,19
1501932448637935,-1,0,-4,-8,-1,-5,-13,-10
1501932448637935,-7,-2,-3,-5,-3,1,6,82
1501932448639867,-3,-5,3,8,2,-5,-31,26
1501932448639867,2,6,3,0,2,2,8,-33
1501932448651908,7,0,-3,-6,-3,-2,-2,-3
1501932448651908,-16,-4,0,3,0,-2,-8,9
1501932448660905,18,-6,-1,-2,-1,-3,-21,-2
1501932448660905,-27,-1,0,-2,-1,-4,-14,-5
1501932448675890,-5,-2,-1,1,2,9,35,19
1501932448675890,21,2,-2,-2,-2,-6,-19,-79
1501932448677870,4,0,-1,-1,-2,-2,2,-15
1501932448677870,-11,-7,-4,-2,-1,-3,-7,5
1501932448697918,-11,-3,-4,-4,-1,-3,6,-17
1501932448697918,-10,0,-4,-2,0,0,-8,7
1501932448699882,2,2,1,15,5,7,1,7
1501932448699882,-3,-2,-3,1,2,1,14,69
1501932448711944,6,0,-4,-20,-14,-7,-9,5
1501932448711944,-1,-3,-2,-4,-2,-1,1,9
1501932448720872,8,-1,0,-7,-1,-3,-10,-16
1501932448720872,-18,-3,0,9,0,0,1,14
1501932448735912,-1,-1,2,8,2,-2,-3,2
1501932448735912,-2,-1,-4,-7,-3,3,3,1
1501932448737874,-5,1,1,3,0,-2,38,0
1501932448737874,-4,-3,-1,18,-2,0,-4,-15
1501932448757881,4,0,-1,-19,3,0,-3,3
1501932448757881,-3,0,0,-3,-3,4,2,-7
1501932448759886,3,0,-3,8,-2,-3,-29,9
1501932448759886,-5,-1,-1,-23,-2,-3,10,-6
1501932448771943,11,-1,-3,11,-1,0,-8,-15
1501932448771943,-10,-1,0,0,0,1,-6,4
1501932448780889,0,-2,-1,-13,-4,-1,2,-1
1501932448780889,-7,-1,-3,1,-3,-6,-5,-12
1501932448794942,-3,-4,-3,4,0,-5,-7,0
1501932448794942,-3,-3,0,30,9,-2,21,-4
1501932448801910,3,-1,-1,-33,5,-2,-18,10
1501932448801910,-3,1,7,3,-3,2,7,0
1501932448817912,1,0,-7,-4,-5,-3,8,1
1501932448817912,-1,-2,-2,-17,-6,-13,11,4
1501932448819880,1,1,-3,15,6,13,25,7
1501932448819880,-1,1,-4,8,7,6,8,5
1501932448831925,-2,0,3,-3,-2,8,-6,-9
1501932448831925,-1,1,1,6,-3,-6,-17,-2
1501932448840912,-4,-5,-5,-7,-6,-8,-1,-7
1501932448840912,-2,-3,-2,-9,0,1,-7,-5
1501932448854946,0,0,-1,9,2,1,13,10
1501932448854946,-3,0,-1,42,4,2,-5,2
1501932448861946,-2,-3,-6,-68,-19,-9,10,1
1501932448861946,-4,-4,-8,-8,-6,4,-15,1
1501932448879894,2,2,9,10,4,-4,-2,0
1501932448879894,-1,-2,-2,4,0,0,-3,-1
1501932448880882,-1,-3,-2,-5,-2,1,-1,-9
1501932448880882,-1,1,5,-2,1,-8,-15,-9
1501932448900883,-1,-4,-18,5,-3,0,-2,1
1501932448900883,-1,-1,16,15,2,4,1,-8
1501932448902882,-1,0,-4,78,0,-1,-9,-16
1501932448902882,-3,-3,-1,-47,-8,-2,-5,-3
1501932448914948,-1,-1,3,6,9,1,5,4
1501932448914948,-4,-2,-7,-43,-10,-5,-22,-7
1501932448921924,-1,-2,-1,-10,2,-9,-5,5
1501932448921924,0,-1,1,33,2,4,12,-7
1501932448937926,-1,0,1,-3,3,-3,7,-5
1501932448937926,0,0,2,14,-1,7,-9,2
1501932448939917,-2,2,1,-33,-7,-2,-3,-2
1501932448939917,-1,-1,5,43,1,-4,2,4
1501932448960945,-2,-3,-2,-61,-10,-8,-7,1
1501932448960945,-1,-2,-8,-16,4,-4,2,-2
1501932448962895,0,2,7,-1,6,10,4,2
1501932448962895,-1,-3,-12,3,-5,-3,8,0
1501932448974887,-2,-2,13,74,7,3,-5,-1
1501932448974887,0,1,-3,-35,-4,-3,2,3
1501932448981931,0,-1,-1,-47,-10,-3,-3,-2
1501932448981931,-3,-2,0,5,3,-4,-6,0
1501932448997931,1,1,-10,-54,-2,-17,-14,-2
1501932448997931,1,-1,2,66,2,24,29,6
1501932448999888,0,-1,2,7,10,3,2,5
1501932448999888,-2,0,-2,-54,-10,-3,4,-2
1501932449020928,0,-1,-5,-1,-4,3,-9,6
1501932449020928,-1,1,8,55,11,-3,5,-7
1501932449022889,1,1,-5,-63,3,-3,-2,-2
1501932449022889,-4,-3,3,15,-8,-2,-6,-4
1501932449034928,0,1,0,-35,1,3,10,3
1501932449034928,-2,-3,-5,30,0,-7,-14,-2
1501932449041952,0,-2,2,61,4,5,11,2
1501932449041952,0,-1,1,28,6,-7,2,0
1501932449057932,2,-4,-15,-92,-16,10,-13,1
1501932449057932,-2,-3,9,26,5,-2,7,4
1501932449059891,0,2,6,11,11,-2,-1,-11
1501932449059891,0,1,22,-20,11,-1,-5,-4
1501932449080933,-4,-4,-18,44,-16,-10,-28,-10
1501932449080933,1,0,-10,-64,-11,0,56,13
1501932449082894,0,0,-8,12,6,9,9,8
1501932449082894,-1,0,-10,-15,-3,5,-5,0
1501932449094954,1,0,5,6,7,4,17,0
1501932449094954,0,-3,-10,-12,-7,-10,-32,-4
1501932449101937,-5,-1,8,15,-5,-8,-14,-2
1501932449101937,4,1,-11,-37,5,2,24,11
1501932449117936,0,0,6,71,-6,7,1,-2
1501932449117936,-5,-4,-9,-113,-3,-8,-13,-5
1501932449119906,-1,0,14,6,-8,-5,-25,-4
1501932449119906,-5,-3,1,56,2,-2,14,-2
1501932449140940,-1,0,-11,-47,2,2,7,-9
1501932449140940,-1,0,6,83,10,6,-11,-3
1501932449142901,-1,-3,-10,-66,-16,1,-3,-3
1501932449142901,-3,-1,11,57,19,-3,-5,-8
1501932449154958,-1,-1,-5,-52,-28,-3,22,4
1501932449154958,1,2,2,14,0,1,-13,-4
1501932449161966,-3,-4,-9,17,-2,-5,14,-2
1501932449161966,-4,1,-11,2,-9,-1,-5,2
1501932449177960,-4,-2,5,24,9,-1,-4,-5
1501932449177960,-1,2,9,38,4,3,-11,-8
1501932449179897,-6,-6,-28,-80,-15,-5,-5,6
1501932449179897,0,-1,8,71,10,0,-3,-5
1501932449200948,-2,1,1,-27,4,-4,-3,-9
1501932449200948,-1,0,11,-22,-15,-3,-1,2
1501932449202902,4,2,6,92,18,5,-9,0
1501932449202902,-2,-3,-7,-18,-20,1,28,2
1501932449214915,-1,-4,-4,-47,9,-7,-9,-1
1501932449214915,-1,-4,-6,-72,-15,-3,-3,-4
