timestamp,emg1,emg2,emg3,emg4,emg5,emg6,emg7,emg8
1501931983793626,24,-5,4,32,-3,-11,-84,66
1501931983793626,-23,-19,-20,-51,-16,-10,-50,-1
1501931983794567,2,2,15,11,2,-9,2,-70
1501931983794567,17,1,1,-5,0,2,57,1
1501931983795589,48,-18,-13,-3,-6,-17,-74,60
1501931983795589,-55,16,23,21,11,18,46,-43
1501931983796608,30,30,7,4,4,8,7,31
1501931983796608,-32,-6,18,10,3,0,3,9
1501931983800610,14,-11,-16,1,0,2,60,-12
1501931983800610,96,-4,-1,5,-5,-16,1,1
1501931983808589,1,-9,11,-8,-2,4,-51,33
1501931983808589,-13,14,11,13,3,4,-21,-18
1501931983822629,75,-4,7,-14,-1,5,24,-65
1501931983822629,-13,-5,-9,10,-1,-7,-9,-29
1501931983830609,-47,3,-12,6,-1,-12,-68,-46
1501931983830609,-16,-5,-14,-7,0,-6,-47,-24
1501931983836608,-75,1,33,-12,-7,18,75,16
1501931983836608,104,9,0,-3,-1,2,-45,17
1501931983861574,7,3,4,-2,3,-10,-59,-12
1501931983861574,-24,6,4,13,0,-2,32,21
1501931983900575,-40,-1,8,21,6,1,-38,-6
1501931983900575,-13,12,9,-3,1,-2,13,-25
1501931983900575,-17,-29,9,1,3,8,63,8
1501931983900575,-12,12,-16,-8,-6,-8,-36,31
1501931983901574,-34,20,12,19,8,9,80,8
1501931983901574,-2,-5,-2,-23,1,6,-35,0
1501931983904637,13,-29,1,8,3,1,-39,-18
1501931983904637,10,-5,0,2,2,-6,-71,23
1501931983911635,75,15,-7,-16,-8,-15,-100,0
1501931983911635,75,13,9,10,4,5,41,36
1501931983919576,57,16,19,-6,-1,5,19,-14
1501931983919576,-51,-16,-16,3,-4,14,100,77
1501931983928575,68,-5,4,-6,-1,3,16,9
1501931983928575,-7,-3,-13,3,-6,-28,-74,-79
1501931983942643,-12,10,7,30,6,-5,-26,-22
1501931983942643,-21,-2,-3,-27,1,32,95,7
1501931983949580,-14,-4,10,-10,-5,5,0,-23
1501931983949580,-13,-4,-27,4,-4,-9,61,64
1501931983972652,18,1,-1,-12,1,13,17,-12
1501931983972652,-17,7,4,22,6,-14,-61,-17
1501931983974578,13,-10,-5,-24,-7,-7,-26,26
1501931983974578,-58,-1,16,8,5,4,-27,-72
1501931983987588,-33,3,-16,15,-9,-35,-123,-26
1501931983987588,48,3,-2,0,-6,9,100,-8
1501931983989586,12,0,7,18,-5,-3,-15,-20
1501931983989586,11,-4,2,-1,2,5,7,20
1501931984010596,-9,-1,-44,-13,-2,-4,-24,-27
1501931984010596,-39,5,35,-21,-2,-15,-124,-39
1501931984012581,-72,-12,-23,23,5,-1,41,51
1501931984012581,11,8,8,-1,-3,2,17,19
1501931984032628,-56,21,9,18,9,10,23,32
1501931984032628,18,-7,6,-4,-15,-11,-27,-24
1501931984034581,-38,-3,-11,2,-7,-4,-37,-26
1501931984034581,-38,-5,17,25,9,0,-41,-19
1501931984047622,-35,-3,13,27,-4,0,9,-16
1501931984047622,2,5,-7,-81,-11,-6,0,-40
1501931984049592,3,-9,-28,22,0,-8,41,-3
1501931984049592,10,-6,-21,-57,-18,4,-11,-11
1501931984070617,91,-4,0,-7,1,-1,3,61
1501931984070617,-15,-6,-3,29,11,-6,-19,-16
1501931984072582,-52,-13,7,-29,-8,7,62,41
1501931984072582,34,10,5,15,6,4,2,36
1501931984092623,-18,-1,-6,-38,-5,-5,-72,36
1501931984092623,61,7,4,42,11,5,-5,50
1501931984094588,27,10,1,48,12,12,87,32
1501931984094588,10,-8,-9,-35,-15,-6,-41,-58
1501931984107657,-21,-7,16,-12,-5,5,40,5
1501931984107657,-5,-3,-15,-12,-5,-6,-9,10
1501931984109585,9,1,16,4,4,-4,-67,-77
1501931984109585,-60,-19,-8,-23,-7,3,18,-2
1501931984130589,7,-15,-23,22,6,0,15,55
1501931984130589,-12,2,10,1,-2,9,72,45
1501931984132586,39,9,10,-32,-11,-17,-43,-46
1501931984132586,-37,-5,3,31,7,-5,-14,-30
1501931984152600,15,9,2,-69,-8,4,56,-9
1501931984152600,-7,-8,-10,72,8,2,43,20
1501931984154586,-48,-4,10,-2,4,1,-42,43
1501931984154586,9,-14,5,-43,-11,-8,-32,9
1501931984167654,-30,8,6,8,-4,-8,-32,-6
1501931984167654,3,-4,-7,-19,-5,-10,-38,-78
1501931984174605,23,-1,-16,-16,0,4,-50,-32
1501931984174605,7,22,17,15,10,-4,20,9
1501931984190631,-15,-3,-4,-11,0,8,14,29
1501931984190631,9,-2,4,16,-1,-1,-30,-43
1501931984192590,21,-13,-1,-7,-2,-9,5,46
1501931984192590,8,0,-8,29,5,3,18,-21
1501931984212597,-32,-1,4,-27,-15,-7,-6,-44
1501931984212597,7,-22,-22,-6,5,6,3,-11
1501931984214592,13,20,-9,10,6,3,20,12
1501931984214592,61,-4,17,12,1,2,-7,21
1501931984227633,-3,-4,0,15,-8,-19,-70,-90
1501931984227633,-25,-6,-7,4,-3,-1,-25,13
1501931984234613,-32,-10,-4,-14,3,7,25,-44
1501931984234613,-14,0,-8,4,5,2,-4,5
1501931984250633,18,-9,-25,20,3,3,75,44
1501931984250633,-14,23,11,-14,0,-4,-66,-26
1501931984252595,-34,9,4,-25,-4,10,66,23
1501931984252595,-13,3,-18,4,4,3,-24,26
1501931984272634,-8,-3,22,12,-2,2,-16,-6
1501931984272634,17,-1,7,16,7,5,44,5
1501931984274595,5,4,-10,12,0,-6,-31,-49
1501931984274595,-57,0,-15,-33,-12,6,29,-30
1501931984287638,-24,2,31,11,2,-3,-9,-7
1501931984287638,6,-4,-1,-8,1,0,16,3
1501931984294615,25,-11,-59,-6,-6,3,-39,48
1501931984294615,-25,-12,10,0,-8,-10,6,0
1501931984310658,18,10,-14,14,6,1,-38,5
1501931984310658,-2,7,24,-18,-3,-4,-14,-27
1501931984312598,-9,-10,-12,15,1,-13,-45,42
1501931984312598,35,-16,34,-7,-8,2,37,13
1501931984332656,-15,1,7,-23,2,6,28,-11
1501931984332656,4,-8,-4,-11,-7,-12,-67,6
1501931984334631,-21,-2,-3,10,1,-4,-20,-55
1501931984334631,-4,1,-12,5,-1,-5,-34,4
1501931984347640,33,7,18,10,7,6,38,15
1501931984347640,77,0,-14,4,0,3,27,18
1501931984354614,13,4,3,-40,-9,-6,2,-63
1501931984354614,7,1,-1,5,-7,-8,-6,-6
1501931984370611,1,-9,-14,-17,-5,-4,-42,-12
1501931984370611,48,-8,-18,17,3,-8,-18,-34
1501931984372612,6,-2,-3,9,5,12,72,13
1501931984372612,-7,14,12,6,1,-8,-48,3
1501931984392644,-1,-9,-18,1,-6,-9,-18,-38
1501931984392644,-60,-1,-21,1,3,8,56,15
1501931984394603,30,1,66,-15,-6,-10,-40,11
1501931984394603,26,-1,-23,-10,-2,-1,-17,7
1501931984407644,-5,-4,-40,15,1,8,38,47
1501931984407644,31,9,28,-11,0,11,71,57
1501931984414621,-13,-1,8,10,6,5,-4,-46
1501931984414621,-5,2,-3,36,7,4,32,5
1501931984430644,-5,12,29,-28,-10,-10,-66,-25
1501931984430644,-4,1,-4,15,-2,0,-14,-35
1501931984432605,-57,-4,-12,-29,-11,-8,-53,-8
1501931984432605,87,-7,-1,0,6,3,-57,-18
1501931984452650,-43,7,-11,31,6,-2,12,38
1501931984452650,-28,-1,-7,-48,-13,-7,-31,-18
1501931984454606,-16,-9,25,12,1,4,45,20
1501931984454606,-33,0,0,0,-1,-1,17,4
1501931984466667,25,-3,6,13,5,-1,-23,-8
1501931984466667,-53,-10,13,6,3,-2,-33,5
1501931984475615,43,7,-7,30,2,-7,-21,1
1501931984475615,-28,-10,-15,-77,-29,-5,38,-4
1501931984490649,19,-4,9,8,1,-1,21,-10
1501931984490649,-22,-11,-25,-2,-2,-4,5,1
1501931984492608,-2,6,6,-5,-2,-3,-13,-33
1501931984492608,2,1,12,34,13,7,-2,22
1501931984512649,-3,-15,-33,-25,-6,-10,-85,-14
1501931984512649,-7,7,20,-3,-2,7,8,20
1501931984514611,-36,-17,-18,-3,3,3,12,-7
1501931984514611,6,12,3,22,8,4,7,19
1501931984526670,16,-2,20,-28,-14,2,96,-14
1501931984526670,-38,-3,-5,9,2,0,6,-16
1501931984535632,41,-12,10,4,2,-3,-4,28
1501931984535632,63,-7,-15,-8,0,6,30,5
1501931984550652,22,-1,-13,3,-1,-5,57,-10
1501931984550652,-54,-1,25,20,0,-8,-71,-44
1501931984551611,18,0,14,-9,2,4,27,52
1501931984551611,4,-1,13,9,-3,-2,-27,44
1501931984572652,32,5,2,-7,6,5,0,-30
1501931984572652,28,3,-21,13,0,-2,0,-9
1501931984574614,-50,-2,-15,-33,-13,-3,-13,-1
1501931984574614,-53,3,8,16,4,-4,-7,-8
1501931984586646,-37,8,20,15,6,4,-63,-19
1501931984586646,15,-2,-4,-33,-11,-7,8,41
1501931984595612,-1,-4,1,6,2,8,12,3
1501931984595612,-16,3,-21,-5,4,1,42,-46
1501931984610648,23,-3,-31,34,3,8,43,40
1501931984610648,21,0,22,-10,-4,-9,-36,-19
1501931984611616,11,1,-10,-21,-12,-1,25,-83
1501931984611616,-25,-8,-15,0,2,13,30,78
1501931984632656,53,-1,-12,6,3,-2,-17,-54
1501931984632656,-17,2,2,8,7,-5,-42,15
1501931984634650,6,-9,-1,0,-4,6,13,48
1501931984634650,28,9,9,4,-3,-3,9,-1
1501931984646679,-6,11,39,-5,1,4,-7,-48
1501931984646679,-3,-8,-71,15,1,-14,-79,-10
1501931984655635,4,-3,9,-15,-11,-7,13,-45
1501931984655635,-28,4,3,-20,-8,-7,-60,-62
1501931984670665,-9,-9,-35,18,0,-4,-20,102
1501931984670665,27,-12,24,-26,-8,4,51,52
1501931984672618,-53,11,-10,37,12,0,0,36
1501931984672618,5,6,-32,-9,5,-1,-10,-77
1501931984692647,-36,2,19,-32,-18,-4,-12,1
1501931984692647,-2,9,-16,27,6,5,34,9
1501931984694619,-15,-12,-7,3,-4,-10,-29,-24
1501931984694619,-20,10,8,33,6,5,66,-51
1501931984706689,-21,-20,37,-45,-5,-3,14,83
1501931984706689,-64,20,-10,-62,-20,-9,-23,-10
1501931984715639,-34,8,17,21,9,11,8,18
1501931984715639,-51,-1,25,18,6,-9,-31,7
1501931984730664,16,5,-29,20,6,5,-18,42
1501931984730664,54,-12,26,-1,-9,-24,-74,-54
1501931984732635,60,-4,-36,-2,1,4,30,9
1501931984732635,15,9,14,-14,-3,-3,-24,-23
1501931984752657,-11,-9,-7,11,4,2,74,67
1501931984752657,65,-3,10,16,4,1,-15,7
1501931984760642,15,6,-5,-7,2,-5,-8,-6
1501931984760642,-17,-15,33,5,-5,-6,-29,18
1501931984766694,8,5,-30,1,-1,-8,-34,-21
1501931984766694,-52,6,14,3,8,17,85,-38
1501931984775650,-14,-2,-3,19,3,-4,13,88
1501931984775650,4,-9,-21,-71,-21,-2,-32,17
1501931984790667,-16,2,22,-8,2,2,-15,-39
1501931984790667,-37,-9,-21,0,-8,0,25,57
1501931984791658,3,-19,19,3,-4,-4,4,-43
1501931984791658,-41,16,-37,16,8,-6,21,-9
1501931984812694,4,-3,-20,-12,-8,-6,-63,-85
1501931984812694,34,-7,-12,22,6,6,34,-45
1501931984814642,-55,19,17,-18,-11,-8,-36,-30
1501931984814642,41,-29,-17,-11,0,14,76,56
1501931984826694,54,-6,4,-9,-1,-1,-12,-54
1501931984826694,-37,7,15,28,10,4,7,82
1501931984835653,-25,0,14,16,-2,-3,-8,-26
1501931984835653,0,3,-30,-30,-8,-2,-54,8
1501931984850693,-61,-10,5,19,4,3,32,19
1501931984850693,-9,3,-11,-26,-3,0,-36,-11
1501931984851628,12,0,14,14,8,1,7,20
1501931984851628,5,-1,5,18,2,1,-10,9
1501931984872677,-31,-9,-1,-7,-12,1,5,-30
1501931984872677,15,3,-16,5,-6,-7,-5,-9
1501931984879648,10,-2,0,-21,0,0,-35,49
1501931984879648,14,3,2,8,7,5,37,-33
1501931984895688,-7,2,-2,-2,-3,-15,-74,-23
1501931984895688,-10,-4,15,0,3,6,82,-43
1501931984896631,52,15,-12,-9,-4,-3,-33,8
1501931984896631,-53,-18,15,10,-3,-5,22,76
1501931984917675,-64,13,36,18,11,11,49,-53
1501931984917675,49,7,-16,8,1,-5,-24,-20
1501931984919631,15,-12,5,-62,-18,-4,-1,-24
1501931984919631,15,-4,-5,42,-1,-11,-7,55
1501931984931676,-49,2,3,-46,-10,-2,-11,82
1501931984931676,-50,-14,13,15,1,-3,6,-17
1501931984940660,-3,-1,-6,5,1,-1,4,-6
1501931984940660,-30,-3,-4,-16,-6,-3,-10,1
1501931984955783,25,12,0,14,3,-2,-33,-56
1501931984955783,7,0,-20,-10,3,10,46,19
1501931984956716,18,-2,-42,17,0,-3,46,25
1501931984956716,100,8,6,-65,-11,-7,-61,-24
1501931984977728,43,3,-2,19,5,5,1,-2
1501931984977728,13,-4,8,-4,-4,0,-34,-22
1501931984979721,-5,-10,7,8,-1,-1,0,-30
1501931984979721,11,-5,-13,25,8,-1,-11,34
1501931984991788,19,-18,-10,-11,-5,2,76,64
1501931984991788,27,12,20,-4,1,0,32,-42
1501931985000729,2,9,4,-13,-5,2,-21,-13
1501931985000729,-23,-6,10,62,11,-2,-29,-31
1501931985015759,-9,-11,-13,-69,-14,-9,17,26
1501931985015759,11,4,1,10,-4,1,-13,29
1501931985016719,9,0,2,2,6,2,-10,-14
1501931985016719,8,1,0,14,4,2,-18,-2
1501931985038761,17,-5,-11,11,3,-2,-19,-38
1501931985038761,-80,5,17,-5,-2,-1,0,-9
1501931985039719,-11,-2,-7,3,1,-2,-12,-18
1501931985039719,1,-1,7,0,-6,-3,-12,34
1501931985051784,-52,-7,-8,-16,-7,-2,-13,-41
1501931985051784,40,-6,-20,-14,0,2,1,-5
1501931985060732,-39,-2,13,12,3,1,-46,-11
1501931985060732,-1,1,10,-23,-6,-1,26,-39
1501931985075766,-17,11,-12,11,4,0,29,23
1501931985075766,-44,-4,21,3,-1,-5,-46,-74
1501931985076722,5,5,-24,0,2,1,29,29
1501931985076722,-38,-12,-23,10,1,-2,33,41
1501931985097762,3,15,14,-22,-11,0,30,8
1501931985097762,-5,-15,-17,-10,-1,-8,-62,13
1501931985099738,-7,1,-28,0,-2,-4,-5,23
1501931985099738,4,9,0,-6,0,-2,-19,-60
1501931985111795,31,-6,2,22,5,9,-24,6
1501931985111795,16,-2,7,18,4,3,54,20
1501931985120724,11,-12,-7,-27,-5,4,26,-11
1501931985120724,24,-2,11,-4,0,3,61,-19
1501931985135758,-2,4,8,4,-8,-17,-128,-15
1501931985135758,42,-1,-9,-2,-1,6,43,59
1501931985137733,-17,-8,8,8,3,3,2,37
1501931985137733,-21,6,-1,1,5,11,72,-13
1501931985157766,34,-19,37,16,16,4,38,14
1501931985157766,-79,17,23,7,-1,0,-45,-20
1501931985159725,96,10,7,-6,-3,-5,-36,-31
1501931985159725,-41,5,4,3,-2,-5,-37,12
1501931985171774,-5,-2,-43,-26,-11,-6,11,6
1501931985171774,-27,7,2,-26,-2,-2,18,-10
1501931985180740,-20,-20,5,23,-4,-5,17,48
1501931985180740,-2,-4,-13,-6,-2,-4,-77,-85
1501931985195769,28,28,16,13,5,6,15,-12
1501931985195769,10,-4,-30,-10,-1,4,18,35
1501931985196729,39,-6,2,-4,-2,9,-6,-25
1501931985196729,-29,3,15,-9,-4,-4,-59,-28
1501931985217795,-52,-11,5,27,2,-8,-33,-3
1501931985217795,53,-13,11,-13,-4,-9,-30,-3
1501931985219740,-3,-6,2,-18,-8,-8,18,0
1501931985219740,3,-3,-2,1,-5,1,-7,33
1501931985231789,40,17,9,2,3,-2,9,-25
1501931985231789,54,3,-26,4,-7,-14,-54,-7
1501931985240743,9,4,-2,11,12,23,38,-31
1501931985240743,91,-10,-15,-13,-1,-1,38,9
1501931985255772,-16,-1,0,28,-2,-6,-13,-8
1501931985255772,-9,0,-8,-34,-3,4,-32,11
1501931985256733,-2,15,3,4,3,0,48,36
1501931985256733,-47,-4,-3,-10,0,-2,-7,-11
1501931985277775,-12,0,13,20,5,3,-20,15
1501931985277775,-1,4,18,-2,-6,-4,6,7
1501931985279744,-87,-3,-14,2,0,-7,-36,-38
1501931985279744,6,-19,3,-12,-5,-8,2,27
1501931985291795,-31,3,-23,-17,1,9,60,24
1501931985291795,-18,-8,11,21,3,-1,-24,-9
1501931985300746,-28,12,9,-14,-2,-6,-6,7
1501931985300746,10,-4,6,14,5,11,50,-24
1501931985315776,8,-8,-27,4,-6,-19,-95,-14
1501931985315776,-4,-5,-10,1,4,7,55,26
1501931985316742,-2,-1,3,2,-6,-13,-48,7
1501931985316742,-13,6,-13,-5,1,-6,-51,4
1501931985337801,10,-4,11,-17,-5,2,20,-23
1501931985337801,-39,-6,-15,11,2,-4,-12,23
1501931985339738,75,-34,-17,-1,-3,0,-38,-66
1501931985339738,-9,18,5,-1,1,-4,-54,6
1501931985351781,-41,-4,17,-5,-7,1,78,-12
1501931985351781,13,-3,-28,-6,0,-1,28,-16
1501931985360772,-10,4,36,-7,-1,-5,-9,-20
1501931985360772,-24,-8,-18,1,1,2,-8,-81
1501931985375775,28,-4,-4,8,4,3,-41,7
1501931985375775,3,3,2,-17,-3,0,84,29
1501931985376740,-38,-22,-1,-3,-4,-6,-52,-12
1501931985376740,3,18,11,19,2,3,-1,-33
1501931985397781,-55,5,-6,-30,-9,-7,-3,44
1501931985397781,-65,1,-11,-7,7,7,18,-44
1501931985399739,9,12,27,12,1,-5,-15,6
1501931985399739,14,-16,-11,-10,-6,1,43,84
1501931985420808,-27,-17,-14,12,3,13,96,10
1501931985420808,53,0,23,12,0,-10,-34,20
1501931985421742,-6,15,-6,6,1,4,-5,-21
1501931985421742,19,-8,-16,-3,-1,-5,-40,18
1501931985434789,25,-3,0,-7,-6,-3,-5,0
1501931985434789,13,-21,-18,10,-3,-9,-59,-25
1501931985441804,5,6,-19,-32,-10,-7,34,14
1501931985441804,16,0,19,9,-2,5,-1,-31
1501931985457781,26,3,-1,-7,0,-4,-39,-31
1501931985457781,28,-1,-23,1,-4,-7,-65,-22
1501931985459756,70,4,1,4,-5,-5,8,55
1501931985459756,-80,2,15,8,0,-1,37,-48
1501931985480789,51,9,4,-3,0,4,48,27
1501931985480789,14,4,9,0,-1,4,30,-30
1501931985481745,-15,-1,-3,4,3,-5,-35,11
1501931985481745,12,3,5,-10,-5,-6,-24,60
1501931985495787,4,-2,-3,8,5,7,51,14
1501931985495787,-16,9,3,23,3,3,-5,-7
1501931985497746,6,-11,-31,-40,-4,4,-22,-39
1501931985497746,29,-1,20,4,0,0,2,-15
1501931985517785,-18,-9,-22,-8,0,-2,-55,-81
1501931985517785,-3,-4,-11,-7,-6,-4,10,24
1501931985519760,-25,-1,14,19,6,2,4,14
1501931985519760,-29,1,-9,-4,1,3,15,-14
1501931985540795,60,1,0,5,-1,-8,-12,32
1501931985540795,-41,6,-3,4,2,3,10,-5
1501931985541749,-67,-4,2,-21,-4,-4,-11,-18
1501931985541749,15,-18,-4,15,0,0,18,-23
1501931985555795,-21,-6,0,-3,-8,-1,8,-25
1501931985555795,12,-2,29,-10,-6,0,7,8
1501931985556758,-20,1,-19,12,1,3,5,5
1501931985556758,12,-5,22,-4,-3,-7,-23,31
1501931985577785,-29,-10,-38,-4,1,-2,7,-10
1501931985577785,2,4,5,-6,-6,-4,3,7
1501931985579780,15,1,10,9,-1,3,26,51
1501931985579780,-3,6,-18,-11,-4,-5,22,46
1501931985600798,71,17,-10,7,4,-4,-12,22
1501931985600798,-16,-17,14,2,2,6,14,-40
1501931985601752,39,1,29,14,5,3,43,11
1501931985601752,-1,17,5,-6,-4,-7,0,-3
1501931985614824,8,3,-8,-1,0,3,-35,-5
1501931985614824,17,6,19,-2,0,-3,-3,11
1501931985622763,-5,3,0,26,2,1,-3,-10
1501931985622763,-24,-14,-27,-35,-4,3,33,38
1501931985637771,2,-5,14,1,-4,-4,8,4
1501931985637771,-6,5,0,-6,-5,2,-5,5
1501931985637771,-20,-5,-28,-8,2,-1,-10,-6
1501931985637771,2,18,24,17,1,-1,-20,-24
1501931985659763,7,-2,-4,-4,2,-1,3,-19
1501931985659763,-2,-1,24,-2,-4,-12,-39,-20
1501931985660754,1,8,7,6,2,10,79,-23
1501931985660754,-41,-11,-7,5,2,3,11,-4
1501931985673933,5,-9,-6,-11,0,0,-58,-4
1501931985673933,20,-2,-5,24,3,2,42,9
1501931985681899,14,5,-6,-29,-4,-5,-15,8
1501931985681899,-6,-4,-7,0,1,4,14,-2
1501931985696924,20,4,20,6,1,-4,-61,2
1501931985696924,6,-6,8,-2,3,3,13,33
1501931985697891,-45,4,-34,-19,-4,-6,-49,-14
1501931985697891,11,3,2,9,-1,0,1,-11
1501931985719903,-26,2,3,-3,-2,-2,18,12
1501931985719903,7,-4,-3,-6,-1,-6,-42,38
1501931985720864,33,-11,-1,4,2,6,71,-16
1501931985720864,56,2,-19,-8,-2,-7,-26,20
1501931985733927,-65,-13,25,14,-1,0,11,-16
1501931985733927,-31,2,5,-12,-4,-4,-27,-11
1501931985741878,-5,-2,10,5,-2,-2,-22,-7
1501931985741878,-24,-20,-28,14,-1,-3,9,65
1501931985756935,64,0,17,-24,-3,5,91,45
1501931985756935,-50,-2,-5,-3,-3,-2,39,4
1501931985757866,-28,0,-19,0,0,-5,-43,-32
1501931985757866,29,0,11,9,0,-1,-69,-20
1501931985779908,-19,2,-6,-5,-3,-4,-15,7
1501931985779908,67,-3,-15,-5,-3,-3,-10,-12
1501931985780868,22,-4,21,5,2,2,16,29
1501931985780868,38,2,-6,-4,-5,-8,4,10
1501931985793934,-49,1,7,21,6,5,-38,-27
1501931985793934,29,16,-11,-28,-3,-1,19,41
1501931985801867,-41,-3,-2,13,4,2,13,-16
1501931985801867,13,5,5,-9,0,0,-14,-25
1501931985816940,-66,11,-23,-8,-1,0,-8,-10
1501931985816940,-17,-12,-15,3,-3,1,-4,-10
1501931985817906,8,2,-2,0,-4,-4,-16,-1
1501931985817906,32,4,15,-6,0,0,9,-12
1501931985839912,-31,3,0,9,1,2,23,18
1501931985839912,0,3,11,6,1,3,28,0
1501931985840872,-6,15,13,-5,-2,4,9,-32
1501931985840872,-30,-18,-12,-8,-8,-7,-29,-25
1501931985853933,-33,-14,-12,6,2,-2,21,-1
1501931985853933,-4,-3,12,-5,-5,2,-6,-5
1501931985861911,-45,4,-14,1,-1,-3,10,11
1501931985861911,14,-6,40,-4,0,4,33,22
1501931985876932,18,3,-4,8,1,-7,-16,-12
1501931985876932,12,-1,4,8,4,2,-19,-8
1501931985877909,16,-4,6,9,-2,2,-4,16
1501931985877909,-62,-19,-34,-3,-3,0,-11,-18
1501931985899915,20,-5,-2,-32,-7,-7,-29,-40
1501931985899915,4,1,9,-1,2,-3,-3,-16
1501931985900875,9,-7,10,8,-4,-5,-16,-1
1501931985900875,-10,4,29,14,4,2,8,-2
1501931985913946,-10,12,-10,5,4,3,-17,2
1501931985913946,-21,-4,-5,-18,-1,0,-10,-10
1501931985921916,15,3,10,1,-3,-4,14,1
1501931985921916,-7,1,-10,-4,-3,-5,-26,-42
1501931985936920,31,-1,7,-8,-2,-4,-54,-4
1501931985936920,2,7,6,12,5,16,74,28
1501931985937922,-22,-15,-39,-16,-6,-9,-19,-54
1501931985937922,-9,9,13,10,1,4,38,50
1501931985959936,-13,1,-3,-12,-6,-8,-5,-33
1501931985959936,21,0,-19,1,-1,0,-5,2
1501931985960891,-7,-12,-5,-2,-3,0,25,60
1501931985960891,-27,1,-11,-3,2,1,13,-56
1501931985973952,7,-17,19,1,1,-1,16,8
1501931985973952,-6,-4,-20,9,0,1,-27,5
1501931985982899,3,9,15,-8,0,-4,-2,-31
1501931985982899,20,5,4,-9,-1,-7,-32,-18
1501931985996944,-13,1,4,6,0,10,40,35
1501931985996944,11,-12,0,-2,-4,-5,-26,-61
1501931985997916,13,-10,-5,4,0,0,-4,3
1501931985997916,23,1,-13,-5,-3,-6,-15,21
1501931986019922,40,-6,-9,-25,-7,-8,-32,-9
1501931986019922,-25,2,-12,4,1,-3,-5,22
1501931986020906,13,-8,0,-5,-2,1,5,27
1501931986020906,-6,2,6,8,2,4,29,26
1501931986033941,-14,2,-11,28,-2,-6,-25,-17
1501931986033941,11,1,11,-14,0,-2,-9,19
1501931986042902,-71,-3,-13,18,2,2,4,9
1501931986042902,-34,0,-2,-66,-4,0,-10,-10
1501931986056921,31,4,-2,8,2,2,22,23
1501931986056921,15,-6,6,4,-2,-2,-7,-35
1501931986057929,-1,3,7,5,-2,-9,-45,-9
1501931986057929,3,-2,-4,13,2,14,86,24
1501931986079947,-13,-10,-6,1,1,0,9,36
1501931986079947,-4,8,-9,0,0,0,27,-16
1501931986080884,45,-2,18,-10,-3,-3,-3,13
1501931986080884,23,-6,-11,14,-4,-9,-54,-11
1501931986093945,-6,0,-3,-32,0,4,101,-5
1501931986093945,-4,0,-7,33,0,1,9,-11
1501931986101918,-10,8,26,1,-4,-2,-5,-11
1501931986101918,16,-1,-22,-2,-4,-2,2,-17
1501931986116919,-3,0,21,10,1,-3,-30,12
1501931986116919,-5,-2,7,-13,-3,-8,-45,32
1501931986117898,66,7,-39,-14,0,-3,34,-26
1501931986117898,12,-9,1,16,-1,0,-35,-33
1501931986147890,-29,-1,10,1,0,0,-18,-18
1501931986147890,-1,-12,-26,3,-3,-5,-24,22
1501931986148889,21,8,5,2,5,-1,-25,38
1501931986148889,9,2,-10,-5,-1,4,57,24
1501931986153923,38,-10,-9,6,-3,-6,8,-11
1501931986153923,-7,0,2,-16,0,-3,-29,-2
1501931986161899,-23,-7,-3,11,0,1,-12,-2
1501931986161899,-6,6,18,4,1,2,12,17
1501931986176903,-13,1,-4,4,2,9,-10,-23
1501931986176903,20,15,8,-8,-2,0,26,-34
1501931986177890,-32,-1,-5,-8,0,1,-1,29
1501931986177890,-20,0,-1,2,7,3,-6,-12
1501931986199925,9,4,3,-3,-2,-1,-11,-2
1501931986199925,-14,-8,-23,-2,-3,-1,-13,55
1501931986200901,-41,-9,17,-1,0,-2,-7,-34
1501931986200901,105,13,-2,-4,-6,-1,0,22
1501931986222897,-49,-1,4,7,-1,-4,21,9
1501931986222897,-49,-8,-30,-17,-1,-5,-83,6
1501931986223895,-74,-9,21,2,-2,-1,32,-42
1501931986223895,7,5,9,-6,3,4,6,11
1501931986236896,28,2,-2,7,-8,-10,6,17
1501931986236896,0,-9,7,2,-3,2,13,-19
1501931986237905,27,-14,-17,-9,-2,-3,-18,6
1501931986237905,-13,0,9,5,-1,-7,-67,26
1501931986259897,14,-1,-3,6,-1,0,18,-4
1501931986259897,-17,15,2,3,1,-1,29,-26
1501931986260895,71,-1,-4,4,3,8,1,23
1501931986260895,6,-10,-4,-7,-7,-11,-17,-38
1501931986273964,34,-7,-20,-10,0,5,34,51
1501931986273964,-10,-10,-3,2,-4,-7,23,-4
1501931986281958,39,15,-5,-10,-1,3,-5,-109
1501931986281958,0,3,-6,-4,-1,-5,-7,50
1501931986296968,-74,-8,0,-4,-7,-9,-80,12
1501931986296968,4,30,10,6,4,6,31,-79
1501931986297902,40,6,-12,-3,-2,-3,13,-55
1501931986297902,-81,-16,10,8,-2,1,10,-18
1501931986319911,-32,-1,-7,1,2,-1,-28,-30
1501931986319911,73,-4,11,-8,2,6,39,-17
1501931986320931,-88,1,5,16,2,3,18,94
1501931986320931,63,11,-11,-8,-6,-4,1,-24
1501931986333968,5,5,36,2,3,2,-32,-68
1501931986333968,-33,-6,-7,-8,-5,-5,-14,55
1501931986341938,-23,-5,6,0,1,-1,14,6
1501931986341938,79,-5,-4,6,-2,4,11,-59
1501931986356964,-30,10,-8,-1,4,5,18,5
1501931986356964,-11,-9,7,2,-1,-2,-51,-9
1501931986357936,1,2,-4,-6,-5,-4,-40,-86
1501931986357936,-57,-15,-9,-2,2,-1,14,12
1501931986379943,42,10,0,-2,0,2,4,-16
1501931986379943,-17,1,8,7,5,3,15,65
1501931986380918,0,-1,-2,-3,-3,0,35,77
1501931986380918,-62,-8,-10,-6,-1,3,2,9
1501931986402943,79,-15,-6,-6,-4,-10,-14,-44
1501931986402943,-14,2,4,2,2,1,4,-7
1501931986403918,6,-2,1,-1,-2,-2,-33,-10
1501931986403918,-2,16,3,4,2,7,34,-23
1501931986416969,-3,-2,-7,-3,-1,-2,-2,26
1501931986416969,48,-6,-1,-6,-4,-3,3,-25
1501931986417933,62,5,-8,-1,-3,-2,7,23
1501931986417933,-23,1,0,3,3,-2,2,-17
1501931986439976,24,5,13,1,-3,-5,-47,-19
1501931986439976,-5,-9,-11,-4,-3,-1,20,-14
1501931986440914,-3,-6,-1,-1,2,-2,-6,33
1501931986440914,-52,-4,4,-8,-9,-12,-15,-55
1501931986462940,-23,0,-10,-2,3,2,-9,-11
1501931986462940,30,1,27,-3,3,9,23,64
1501931986463917,-4,4,-40,-8,-3,-2,10,-45
1501931986463917,-16,11,19,2,-1,0,11,34
1501931986476971,17,0,-9,2,-3,-3,26,-1
1501931986476971,-14,-11,-8,4,-4,0,-10,-12
1501931986477914,-16,10,2,-4,0,-3,-34,0
1501931986477914,81,-13,-3,-3,-3,-6,-28,53
1501931986499975,-23,10,17,-1,2,10,30,-1
1501931986499975,-30,-5,10,9,0,-3,13,43
1501931986500910,34,4,-30,-7,-4,0,8,-57
1501931986500910,-17,-11,-20,-10,-1,1,-15,-30
1501931986522950,-2,-10,-14,-3,-5,1,53,104
1501931986522950,-31,6,2,2,3,-4,-19,-33
1501931986523924,-7,-9,21,9,5,0,15,24
1501931986523924,34,29,5,8,3,4,-9,-60
1501931986536953,28,-1,5,-3,1,4,42,13
1501931986536953,-78,-10,-9,-9,-8,-9,-70,-80
1501931986537955,74,9,20,3,2,0,22,22
1501931986537955,-39,-4,6,-1,4,2,46,11
1501931986559967,-2,-1,-3,-1,0,0,-14,19
1501931986559967,82,3,8,3,0,0,-19,85
1501931986560912,-53,-16,-2,-7,-4,-1,20,34
1501931986560912,-14,10,-9,-4,-2,-6,-31,19
1501931986582957,-57,1,-10,1,0,-2,-20,7
1501931986582957,-5,4,-11,9,-1,1,9,-19
1501931986583927,-16,-13,21,-19,-5,3,14,60
1501931986583927,15,2,1,4,1,5,1,24
1501931986596975,-31,-8,-17,-2,-2,-5,-21,-41
1501931986596975,4,13,-3,1,0,-4,16,-34
1501931986597922,3,6,0,8,-4,-9,-70,-15
1501931986597922,-70,-22,10,-11,-1,-3,18,-28
1501931986619960,14,8,-11,-2,-2,-1,-3,-57
1501931986619960,-6,-20,-9,-7,-1,2,24,-18
1501931986620915,-40,-11,-20,0,-1,1,2,41
1501931986620915,13,7,-2,3,1,3,24,107
1501931986642959,-5,11,8,2,2,0,-7,-17
1501931986642959,-28,8,24,0,-2,0,-1,-75
1501931986643931,-46,-6,-22,-11,-4,-3,-24,-9
1501931986643931,-9,-7,-10,2,0,-1,8,-24
1501931986656978,-6,3,12,7,-3,-3,1,28
1501931986656978,12,-3,-23,-11,-7,-7,-11,16
1501931986657944,72,15,30,10,7,3,42,-108
1501931986657944,-9,-7,3,6,-6,-9,-43,-72
1501931986679965,-25,-3,5,-10,-3,-6,-41,2
1501931986679965,-10,-6,-57,-45,-6,-1,28,-15
1501931986680934,4,2,13,16,0,-3,-6,14
1501931986680934,-1,1,-32,-8,-6,0,20,28
1501931986701989,-47,-9,11,4,-3,-2,31,-8
1501931986701989,13,11,13,17,6,3,-30,-37
1501931986702922,-24,-2,7,-2,0,1,-12,0
1501931986702922,11,-1,-21,-11,0,1,-49,26
1501931986716983,29,-11,-6,5,0,-9,-6,7
1501931986716983,10,0,3,4,2,16,24,-4
1501931986717926,77,9,-8,-1,-4,-8,-8,-16
1501931986717926,-5,6,31,11,3,7,10,-16
1501931986739969,1,-11,-15,-12,-2,-4,-73,1
1501931986739969,-12,-10,0,11,-3,-2,24,36
1501931986740952,-20,-18,-6,-10,-1,-2,2,-3
1501931986740952,56,-3,-6,-3,-2,-5,0,22
1501931986762091,-63,1,-8,-3,-5,0,10,-58
1501931986762091,14,-4,5,2,-2,-6,4,53
1501931986770085,-14,2,4,2,-4,-1,46,17
1501931986770085,13,-5,20,6,1,-4,-49,2
1501931986777088,24,2,-8,-10,0,-3,-18,7
1501931986777088,4,-1,22,6,0,-2,-10,29
1501931986778062,-18,-1,-8,-4,0,-5,-22,-65
1501931986778062,-25,-3,14,1,-2,-2,-7,-28
1501931986800117,22,1,-3,5,2,6,61,44
1501931986800117,-11,7,20,5,-1,4,47,7
1501931986801052,-16,-1,-22,-4,1,-1,-27,55
1501931986801052,-12,-17,-11,-3,-3,0,20,-29
1501931986822130,28,2,-3,-3,-4,-17,-78,-72
1501931986822130,-15,-4,17,1,-1,-14,-117,-12
1501931986823071,37,-5,9,4,3,13,47,21
1501931986823071,14,5,-5,-8,0,9,41,-25
1501931986837093,-4,-2,11,3,-2,6,21,15
1501931986837093,11,-9,-44,-10,-2,-9,26,-10
1501931986838066,19,0,1,3,-2,-4,-11,17
1501931986838066,-84,6,18,2,2,8,87,-1
1501931986860096,25,3,-1,2,0,5,5,53
1501931986860096,-35,2,2,2,1,2,16,-25
1501931986860096,-10,6,11,3,3,4,-41,-59
1501931986860096,22,-9,-1,-2,-7,-14,-29,17
1501931986882116,-17,0,-12,2,6,2,3,8
1501931986882116,13,-1,0,-1,-2,3,54,5
1501931986883089,-17,-5,-13,-2,-1,-9,-44,36
1501931986883089,-4,-2,-1,-1,1,-2,-28,-28
1501931986897098,11,-7,5,0,-5,2,-20,-3
1501931986897098,10,2,1,-4,-2,-5,-38,23
1501931986898088,1,0,4,4,-3,-4,30,43
1501931986898088,18,1,-2,3,-1,1,29,15
1501931986920096,-4,2,-4,-12,3,4,3,-24
1501931986920096,8,1,-9,-1,2,3,-11,11
1501931986920096,-11,-3,3,-9,-11,-9,-20,-67
1501931986920096,-47,-10,-4,1,1,-3,-60,-14
1501931986942070,61,-9,-7,-5,-5,-7,9,-18
1501931986942070,12,7,7,3,1,-2,-16,-26
1501931986943091,-17,-3,0,-1,2,9,55,44
1501931986943091,10,4,-6,-4,-3,-11,-9,50
1501931986957077,-23,-13,3,0,0,2,33,-6
1501931986957077,7,-4,-4,-4,-3,-1,-7,47
1501931986965100,-52,-19,-2,2,0,-1,-36,34
1501931986965100,-38,15,-8,4,-1,-3,-35,-54
1501931986980101,-44,-6,3,-4,-2,-5,34,54
1501931986980101,-29,-3,2,2,0,1,-53,72
1501931986981063,-9,15,6,8,4,3,-11,-62
1501931986981063,25,-22,-4,7,-2,-15,-67,96
1501931987002124,11,17,-13,-13,-8,-9,-30,-66
1501931987002124,-10,-1,0,-8,-4,-8,-22,-34
1501931987003072,27,6,-2,0,-4,-11,-22,-21
1501931987003072,-25,-5,-6,-17,0,-1,-12,-9
1501931987017089,-1,7,17,20,11,23,78,15
1501931987017089,16,0,-3,-4,-1,-5,51,-102
1501931987025106,24,14,-3,3,2,6,29,9
1501931987025106,-4,-6,-7,6,-4,-6,-27,-12
1501931987040104,-38,-11,1,-3,0,3,48,52
1501931987040104,-9,18,9,12,1,7,49,-13
1501931987041065,-21,3,0,-11,0,2,-46,-7
1501931987041065,-13,16,2,2,3,7,56,3
1501931987062074,17,-1,-7,-15,-9,-14,-26,-18
1501931987062074,-13,-5,-5,-2,-2,-9,-53,11
1501931987063068,-20,0,2,0,1,0,-34,67
1501931987063068,55,10,0,-12,-1,-2,-2,-36
1501931987077089,2,3,10,7,4,9,-54,-4
1501931987077089,-4,-4,-1,-6,-4,-3,-7,-4
1501931987085106,-6,-10,-15,-6,-7,-6,-19,-33
1501931987085106,3,-5,-6,-9,0,1,-2,1
1501931987100113,1,2,3,6,0,-4,-21,-9
1501931987100113,17,2,5,14,7,15,57,21
1501931987101068,15,-8,-6,-17,-3,1,-15,6
1501931987101068,5,-4,-6,-6,-6,3,20,0
1501931987122143,-18,-10,-6,-7,-7,0,30,-62
1501931987122143,-30,-3,5,8,3,-2,-50,43
1501931987123085,-18,4,7,1,4,16,61,-34
1501931987123085,36,-4,2,5,1,-1,-18,-47
1501931987137081,10,-4,-4,-15,-5,-7,11,-6
1501931987137081,-53,-7,-5,-9,-7,-15,-59,-26
1501931987145111,34,9,12,12,7,4,8,-35
1501931987145111,-12,-1,9,1,2,0,-2,42
1501931987160112,35,4,-17,6,-5,-6,-42,-79
1501931987160112,50,2,4,5,-2,-5,11,-71
1501931987161074,-20,-4,-4,-3,-4,-7,9,9
1501931987161074,-15,4,-5,0,1,8,58,9
1501931987182110,-11,-1,-1,6,-3,-14,-107,49
1501931987182110,-8,-9,-4,-7,0,10,90,36
1501931987183083,16,6,-5,-1,1,3,19,-50
1501931987183083,21,-9,-8,-5,-4,-10,-75,-9
1501931987197075,0,-9,1,-1,-2,-4,-22,10
1501931987197075,9,2,-10,-23,-5,3,-27,-25
1501931987205085,-16,-3,2,5,1,-3,18,8
1501931987205085,-23,-1,2,1,-4,-1,-9,-2
1501931987220116,27,-2,-5,-1,0,7,50,18
1501931987220116,-61,-4,1,7,-1,0,-8,-34
1501931987221075,30,-15,-3,-6,-1,-2,-60,-16
1501931987221075,9,3,0,5,0,-1,59,-30
1501931987242144,2,2,6,-4,0,3,17,5
1501931987242144,16,-1,-11,-6,-1,2,7,6
1501931987243110,-20,-5,-4,1,-3,-4,28,33
1501931987243110,-22,3,3,1,0,-1,-10,-16
1501931987257095,-45,-20,15,13,10,6,-56,88
1501931987257095,120,2,-1,-1,2,13,31,28
1501931987265141,-76,12,4,-4,-1,-4,-12,-52
1501931987265141,3,1,2,4,1,-2,-33,-5
1501931987280115,-48,2,-4,-1,1,4,90,8
1501931987280115,8,-3,5,5,0,-2,-8,16
1501931987280115,11,-5,-7,-3,-4,-3,-21,17
1501931987280115,3,6,11,0,2,1,2,-7
1501931987302121,-3,6,0,1,-3,-11,-21,-9
1501931987302121,24,-17,-9,-8,0,6,24,6
1501931987303080,-21,6,-7,-8,-5,-4,47,-5
1501931987303080,-24,3,1,-4,-2,0,22,55
1501931987325126,32,8,-2,2,-3,0,-3,-5
1501931987325126,-17,-6,4,-5,-3,-6,-22,-31
1501931987326125,-4,-9,4,-1,-4,-4,-38,10
1501931987326125,24,2,-6,-1,0,2,11,-7
1501931987340120,1,2,4,1,2,0,-13,-11
1501931987340120,-18,7,2,5,-2,-10,-38,4
1501931987341082,-19,-8,-8,4,2,7,40,-12
1501931987341082,-42,-7,-7,-7,-8,-5,74,12
1501931987362143,-12,16,8,2,2,3,18,-30
1501931987362143,-12,0,2,-1,-2,-6,-9,-8
1501931987363116,9,-1,0,-1,-3,-8,-11,8
1501931987363116,-26,-3,-14,-4,-1,5,-46,92
1501931987385126,-16,-15,0,-2,0,-5,-14,-24
1501931987385126,2,0,-6,2,0,1,31,13
1501931987386136,57,-4,-1,-5,1,1,-18,29
1501931987386136,3,-8,0,-1,3,-3,-24,0
1501931987400128,44,4,2,-3,-5,-4,-35,-13
1501931987400128,-57,-3,-6,3,-1,-8,-48,-10
1501931987401084,51,-1,4,3,2,3,27,35
1501931987401084,17,8,6,3,-2,-3,-11,-48
1501931987422127,-6,-2,-15,-12,-3,0,26,-2
1501931987422127,1,-4,-2,0,-2,-1,16,-3
1501931987423121,-10,1,0,-1,-1,-3,-24,-11
1501931987423121,0,1,3,-1,-3,-1,-23,14
1501931987445128,-6,3,-2,1,1,5,30,11
1501931987445128,-5,2,-5,-1,1,-3,-45,-22
1501931987446130,-13,-4,0,-4,-2,-2,45,39
1501931987446130,2,-4,2,0,0,-4,-29,-30
1501931987460101,0,-4,-4,-1,-2,-2,-11,0
1501931987460101,9,4,2,0,-3,2,44,1
1501931987460101,-12,-2,2,1,-3,-7,-38,-1
1501931987460101,-24,-9,-1,2,0,-5,-56,-19
1501931987482136,12,-2,-6,-4,0,-1,-10,-27
1501931987482136,-37,-5,-1,-7,-3,-1,-10,17
1501931987483123,1,-2,9,3,-1,-1,14,-8
1501931987483123,39,0,-8,-10,-5,-1,21,-17
1501931987505156,-32,4,6,4,0,0,-49,-36
1501931987505156,-7,-15,-4,-2,-4,-7,47,25
1501931987506099,5,3,-5,2,1,-2,-25,14
1501931987506099,-9,-2,4,2,1,3,12,-17
1501931987520132,-12,-1,-3,-3,-5,-4,24,14
1501931987520132,20,-1,2,-2,-5,-14,-113,-3
1501931987520132,-12,-2,-4,-2,-2,-3,43,-4
1501931987520132,-28,-10,-5,-3,-6,-2,19,-49
1501931987542108,-19,-12,-8,-5,-6,-8,-41,-16
1501931987542108,10,11,7,4,2,7,25,22
1501931987543093,5,-2,2,-1,-2,0,0,27
1501931987543093,8,1,-7,6,1,3,13,5
1501931987565924,4,-1,-7,-6,1,-3,1,7
1501931987565924,-5,-1,-9,2,-2,-1,21,-2
1501931987565924,-54,-11,0,8,1,0,-21,-10
1501931987565924,84,2,9,4,0,6,60,15
1501931987579948,-23,4,3,4,1,3,35,22
1501931987579948,7,5,4,0,1,1,-1,-21
1501931987580908,7,-1,-10,-7,-2,-2,4,6
1501931987580908,-20,4,1,-1,-4,-6,-20,-9
1501931987601948,11,-2,-4,-4,-2,1,0,15
1501931987601948,3,2,2,-1,-1,0,5,-21
1501931987602924,-12,-8,-2,-3,0,1,-23,8
1501931987602924,-1,-4,-3,-7,-1,-3,18,26
1501931987625921,20,-26,1,1,1,4,4,0
1501931987625921,2,24,-9,-2,0,-2,7,-10
1501931987625921,7,7,-1,1,-2,4,-3,-3
1501931987625921,-26,5,1,0,5,7,-4,6
1501931987639970,29,-3,2,0,-2,2,24,32
1501931987639970,-26,-11,0,0,-2,-1,18,-4
1501931987640926,7,3,5,2,-2,-2,24,9
1501931987640926,-33,-1,-6,0,2,-1,-14,4
1501931987661954,7,13,6,5,3,-9,-74,54
1501931987661954,-4,-2,-4,0,2,13,51,46
1501931987662937,29,4,-4,-4,-5,-5,-3,0
1501931987662937,-12,-9,4,-3,-3,-6,-3,-16
1501931987685940,-16,1,-6,-3,-3,-2,-3,-4
1501931987685940,5,-6,0,2,1,-4,-21,-9
1501931987685940,3,0,1,-1,0,3,3,-4
1501931987685940,1,-3,-7,-4,1,-1,4,-4
1501931987699977,5,8,4,1,-2,-3,33,1
1501931987699977,12,-5,0,-3,1,-6,-26,-26
1501931987700950,-33,11,3,-7,-7,-4,-26,-51
1501931987700950,-6,-1,-5,3,0,1,-13,56
1501931987721963,-53,9,-3,-12,-4,5,42,-20
1501931987721963,30,3,2,-1,2,1,-1,7
1501931987722922,-7,-9,-6,-2,-2,-4,-33,-2
1501931987722922,4,-1,2,4,1,-6,-8,-14
1501931987745927,-9,1,-4,-1,-1,-9,-41,-32
1501931987745927,10,0,3,-2,-3,-8,-55,10
1501931987745927,-6,-3,7,6,5,10,42,72
1501931987745927,27,7,-5,-5,-3,2,16,-10
1501931987759925,0,-1,8,6,-1,2,14,-17
1501931987759925,-14,2,-6,-7,-4,-5,-18,-38
1501931987760941,17,-7,-10,1,0,-4,0,-14
1501931987760941,-8,-2,3,-1,0,-2,-8,8
1501931987781961,3,-3,1,1,-1,-3,-3,-1
1501931987781961,0,-6,4,5,3,6,24,14
1501931987782919,-17,-2,4,0,-2,-6,-11,2
1501931987782919,-9,-4,-11,-12,-6,2,22,33
1501931987805931,27,5,3,4,2,4,41,-5
1501931987805931,-43,-9,0,-2,-2,1,-16,-9
1501931987805931,22,7,-2,2,2,9,45,-9
1501931987805931,-5,3,6,4,2,1,15,-20
1501931987819923,14,-4,-2,-4,-2,-1,10,-7
1501931987819923,-11,-1,-2,-3,-2,4,73,44
1501931987820920,-7,-6,-2,-3,3,5,-62,19
1501931987820920,85,17,4,3,1,3,32,1
1501931987841992,-80,-12,-7,-3,-4,-3,34,39
1501931987841992,-2,2,2,2,1,8,23,-8
1501931987842929,-1,1,3,1,-2,-15,-59,-41
1501931987842929,13,-4,-2,-2,-1,3,60,29
1501931987865932,-18,8,1,-1,0,3,-3,-8
1501931987865932,71,11,2,4,2,-1,-24,-20
1501931987865932,-11,-7,-9,-6,-3,3,44,1
1501931987865932,7,-9,2,1,1,3,-20,-16
1501931987879939,-8,-2,-2,-4,-4,-6,-56,-29
1501931987879939,-23,-3,-12,-1,-3,-2,0,-19
1501931987880954,9,6,7,-1,-3,2,15,-2
1501931987880954,-13,5,2,4,3,-3,-45,-14
1501931987901984,37,-4,3,0,1,4,52,22
1501931987901984,-11,-1,-6,-8,-2,-6,-13,-3
1501931987902969,14,-5,-4,-2,-1,-5,-32,-17
1501931987902969,-36,-2,-1,-4,-2,-1,-2,-10
1501931987925928,18,-4,9,0,0,-6,-57,-5
1501931987925928,11,3,-1,-2,-1,-2,2,27
1501931987925928,-18,-17,-10,-4,-2,-6,29,10
1501931987925928,-29,9,2,-1,-1,-1,4,0
1501931987938933,-35,-3,-3,2,1,9,49,-12
1501931987938933,19,0,2,0,-2,-6,2,-10
1501931987946966,-21,-5,2,3,-1,-1,-63,-6
1501931987946966,1,-4,-3,-4,-2,0,-22,-27
1501931987961999,18,-4,-2,1,-1,-1,-11,1
1501931987961999,-9,-7,5,-3,-6,-2,-3,-3
1501931987962937,5,1,-10,-7,-2,-4,18,-2
1501931987962937,-1,-8,-3,2,0,0,3,-1
1501931987985949,21,-2,-3,2,-3,-7,-58,-1
1501931987985949,-21,11,-2,0,0,0,-10,24
1501931987985949,25,0,5,3,3,4,19,1
1501931987985949,10,4,1,-2,1,-2,-12,-10
1501931987998976,9,-3,-10,-5,-6,-10,-12,16
1501931987998976,-9,-9,-1,2,1,-3,-14,5
1501931988007003,-10,-3,-4,-5,-4,-7,-55,2
1501931988007003,-26,-6,-1,0,1,2,65,35
1501931988021979,-4,-8,0,2,3,8,-5,-23
1501931988021979,-11,3,0,0,-4,0,13,-7
1501931988022946,17,8,4,1,1,5,30,-6
1501931988022946,2,-10,1,-2,-4,-4,-39,-9
1501931988045944,3,7,-2,-1,0,-2,0,15
1501931988045944,-1,-7,4,-4,0,2,36,-5
1501931988045944,-2,5,-3,1,1,1,6,-25
1501931988045944,-7,1,-3,-1,-3,-1,1,-2
1501931988058996,5,4,2,0,2,1,3,-9
1501931988058996,-51,-9,-1,3,4,7,0,-7
1501931988066996,-16,1,1,2,3,-4,-48,-2
1501931988066996,35,-11,-13,-4,-2,6,55,31
1501931988090961,-3,0,-1,1,-1,-1,-9,28
1501931988090961,28,3,3,3,1,1,18,-11
1501931988090961,-9,-3,-10,-4,-2,-5,-21,3
1501931988090961,-27,-5,-5,-2,-2,-2,-17,0
1501931988105948,26,0,-3,-5,-1,5,37,-17
1501931988105948,29,-6,-3,-3,-1,-9,-17,6
1501931988105948,-46,4,6,1,3,4,10,-21
1501931988105948,-15,5,2,-1,-2,-7,-45,-20
1501931988118983,-2,-4,-2,0,0,-4,3,0
1501931988118983,23,0,3,-2,-2,-2,-18,-6
1501931988127007,0,2,1,-2,-4,-3,18,-9
1501931988127007,2,1,5,6,4,1,48,11
1501931988142004,-14,-2,1,-4,-1,-1,-1,-4
1501931988142004,23,20,-6,0,-1,2,-5,-19
1501931988142970,9,-1,3,0,-2,-7,-4,10
1501931988142970,1,0,3,1,-1,3,33,8
1501931988165941,14,2,0,-3,0,-1,-8,7
1501931988165941,-13,-7,-5,-5,-1,-3,-10,6
1501931988165941,12,0,-5,-4,-3,2,26,-2
1501931988165941,6,5,1,-1,0,-7,-36,-30
1501931988178980,-62,-21,-5,0,-4,-3,-4,-31
1501931988178980,29,-5,-1,-7,-5,-4,-26,6
1501931988186983,16,-1,-6,1,-1,-3,-22,-9
1501931988186983,-7,-4,-3,-1,-3,-12,-28,5
1501931988202011,24,-2,-2,-1,1,7,-7,25
1501931988202011,-32,2,-3,0,3,0,12,3
1501931988202945,14,3,2,1,0,2,8,-7
1501931988202945,-4,0,-4,-7,-6,-10,-83,-10
1501931988225966,12,1,0,3,-1,-5,5,-21
1501931988225966,-6,-8,-3,0,-2,-2,-12,-7
1501931988225966,6,0,0,2,2,3,12,10
1501931988225966,-7,-6,-2,-1,-1,0,25,-17
1501931988239010,7,5,0,-4,-3,-2,19,13
1501931988239010,-46,-3,-1,0,-2,0,6,-11
1501931988247005,-15,-3,-3,-3,-2,-7,-7,-22
1501931988247005,-11,0,0,-3,0,3,31,-8
1501931988262015,90,3,-3,-2,0,1,-63,2
1501931988262015,-32,1,1,7,3,2,30,-22
1501931988262954,-13,6,-4,-9,-5,-5,-85,17
1501931988262954,-29,-5,1,-4,-4,0,11,-2
1501931988285959,8,8,1,2,0,-1,49,-8
1501931988285959,10,-7,-4,-5,-2,-2,-9,3
1501931988285959,31,-2,-1,-1,-1,-2,4,12
1501931988285959,7,0,10,6,2,-2,-39,-25
1501931988307992,-39,-3,3,0,0,-4,-51,1
1501931988307992,46,12,2,0,-1,5,-4,30
1501931988308962,-8,-3,0,-2,0,5,71,1
1501931988308962,10,-7,-2,-4,-5,-4,-55,-18
1501931988321991,7,3,0,3,0,-1,9,-4
1501931988321991,-14,0,-3,-4,-1,-1,-18,11
1501931988322957,-13,-4,0,2,3,3,17,-19
1501931988322957,7,1,1,0,0,3,17,15
1501931988345983,-3,4,-11,-5,-3,0,-7,-26
1501931988345983,-15,-6,0,-2,-1,-1,32,-1
1501931988345983,-1,0,-3,-1,-3,-1,-4,-6
1501931988345983,14,3,-5,-2,3,3,9,8
1501931988367994,-17,5,2,-2,0,0,47,7
1501931988367994,-3,-11,-2,-5,-5,-5,8,1
1501931988368966,-17,2,-1,0,-3,-3,-41,-18
1501931988368966,16,9,6,2,-1,3,-15,-8
1501931988381953,8,-11,2,-1,-2,-1,2,-5
1501931988381953,-9,3,1,0,0,-3,-7,15
1501931988382965,6,-12,-2,3,-1,0,9,26
1501931988382965,13,-4,-7,-6,-4,-5,1,-11
1501931988405985,-10,-2,0,-1,0,-1,9,8
1501931988405985,-5,-2,4,2,-1,-5,-20,-9
1501931988405985,13,-3,-1,-5,-1,-2,4,-2
1501931988405985,-19,1,-4,1,-1,-4,-9,-3
1501931988428022,-1,-4,0,0,1,0,-3,1
1501931988428022,18,-7,-2,1,-1,-5,-23,8
1501931988428968,3,-4,1,1,-1,0,36,-1
1501931988428968,23,1,-12,0,-2,1,52,4
1501931988442002,-20,3,-1,-5,0,4,-20,-24
1501931988442002,8,-4,1,1,2,2,-5,-5
1501931988442966,-4,0,4,3,3,6,40,7
1501931988442966,-35,-7,-8,-3,-1,-5,-40,-22
1501931988465968,6,-2,3,1,0,-1,32,9
1501931988465968,-4,-1,-10,-7,-2,0,18,-9
1501931988465968,-6,-5,2,-2,-3,-5,-22,-9
1501931988465968,-7,-1,2,1,3,4,29,19
1501931988488008,18,-3,-4,-3,-4,-3,-12,12
1501931988488008,-6,4,6,2,0,-4,-26,-31
1501931988488993,-44,-17,2,2,3,9,64,11
1501931988488993,42,8,5,2,0,-6,-8,-20
1501931988502027,-23,9,-3,0,1,2,-29,-16
1501931988502027,13,-2,0,-5,-3,-1,15,1
1501931988502962,-7,1,-5,2,-3,-5,-41,11
1501931988502962,-14,0,1,-2,-2,0,30,-7
1501931988525986,-40,-11,2,-2,-1,-2,-11,13
1501931988525986,3,-11,-6,1,-4,-8,-45,-7
1501931988525986,10,11,-6,-5,-2,-2,6,-1
1501931988525986,-7,-5,1,-2,-1,-1,-26,2
1501931988548033,10,6,0,0,0,-1,20,3
1501931988548033,-20,-1,-1,1,1,-2,-13,-8
1501931988548993,32,-13,-8,-3,-5,-8,-17,12
1501931988548993,7,10,1,0,1,7,21,14
1501931988562009,-13,-6,-3,-4,-3,-4,-2,20
1501931988562009,-3,4,0,0,1,4,-3,-2
1501931988562972,8,5,5,1,1,0,5,-1
1501931988562972,-14,-6,-6,-3,0,-6,-50,-26
1501931988585006,15,2,2,2,3,11,51,27
1501931988585006,-6,-10,-6,-8,-7,-9,-20,21
1501931988586003,25,7,-1,0,1,4,21,-1
1501931988586003,-11,0,3,0,0,-3,-28,-5
1501931988608008,38,11,1,1,1,-1,-2,-8
1501931988608008,13,-1,4,0,-1,0,-3,1
1501931988608979,3,10,-6,-5,0,1,-5,-3
1501931988608979,-28,0,3,3,0,0,4,3
1501931988622037,-18,-2,-7,-3,-4,-4,-19,-6
1501931988622037,-5,2,2,1,0,0,-3,-6
1501931988622976,4,0,3,-2,-2,-3,-6,-15
1501931988622976,-28,-7,3,3,3,5,13,30
1501931988645998,-5,0,-3,0,-1,-4,0,-16
1501931988645998,4,4,-3,-1,0,2,-3,3
1501931988645998,-21,3,5,-1,0,-5,-32,-8
1501931988645998,2,-6,-3,-5,-4,-1,34,12
1501931988668027,-11,-6,-4,1,-1,-3,-9,-3
1501931988668027,2,0,-2,2,0,1,16,-3
1501931988668972,-7,-4,-2,-1,-2,-8,-47,-4
1501931988668972,-7,-3,-1,-1,-2,0,9,4
1501931988682013,75,-11,3,1,1,1,-23,-50
1501931988682013,25,-2,-6,-6,0,3,8,2
1501931988682984,-10,9,-1,-2,-2,-2,11,5
1501931988682984,5,5,6,7,-1,0,-7,-22
1501931988705976,-12,-4,-5,-5,-3,-4,9,14
1501931988705976,-14,-5,3,2,-3,-3,-13,-13
1501931988705976,-4,-7,1,-2,-2,0,-45,6
1501931988705976,-11,-5,-6,-3,-1,6,46,13
1501931988728021,-23,1,-5,-3,1,-1,2,-7
1501931988728021,-12,3,1,0,3,3,13,-8
1501931988728973,2,0,-2,-2,-1,0,12,1
1501931988728973,7,-3,1,-1,-2,-5,-26,-1
1501931988742037,-10,-1,-2,-1,-3,-3,4,16
1501931988742037,-5,-2,-2,-6,-5,-1,6,-7
1501931988742987,0,-7,-3,-2,1,-1,12,-3
1501931988742987,11,-2,-1,0,-1,-4,-12,4
1501931988765043,-2,1,-1,-1,-3,-3,-14,-7
1501931988765043,0,-1,-4,-2,1,1,17,7
1501931988765986,-2,-3,1,1,-1,3,25,4
1501931988765986,7,2,-2,-3,-3,-6,-11,-7
1501931988787984,-20,1,-4,-4,-1,-4,-34,-3
1501931988787984,2,2,1,2,0,3,30,-12
1501931988788976,-20,0,1,3,1,-1,8,-15
1501931988788976,0,-2,-2,-6,-2,0,-8,1
1501931988802048,-10,-2,0,-1,-2,-7,-21,-8
1501931988802048,8,5,5,0,0,1,-2,1
1501931988802985,10,-2,-2,-1,0,4,45,9
1501931988802985,3,-2,-2,-3,-1,-3,-6,-8
1501931988825040,-8,1,-1,1,-2,-4,-34,-15
1501931988825040,-1,1,1,-2,-1,-1,2,18
1501931988826014,-4,0,-1,1,0,-3,6,4
1501931988826014,2,-2,-3,-1,0,3,-15,5
1501931988847990,4,0,-1,1,2,3,19,7
1501931988847990,-4,-2,-4,0,-2,-3,-17,2
1501931988848980,3,-2,-4,-6,-5,-4,2,-2
1501931988848980,4,0,-3,0,0,-1,11,3
1501931988862016,-2,0,1,-4,-2,1,14,7
1501931988862016,-5,-3,-3,-1,-5,-12,-6,-3
1501931988869982,-2,-2,2,3,3,2,-14,-1
1501931988869982,1,0,1,1,0,-4,-10,-5
1501931988885051,-1,1,-4,1,2,11,26,9
1501931988885051,-1,-1,-2,-4,0,-12,-8,1
1501931988886015,4,-2,-1,-2,-8,16,-3,0
1501931988886015,1,1,4,0,4,-1,-1,-2
1501931988908023,1,-2,2,10,-3,4,1,3
1501931988908023,-6,-1,3,8,3,-7,-4,-3
1501931988908983,-2,0,1,-4,-1,-19,-7,-3
1501931988908983,-2,-2,-9,35,-6,8,1,-1
1501931988923018,0,-1,-3,-52,-5,2,6,2
1501931988923018,-3,-1,-2,2,2,4,-6,-2
1501931988930027,-3,-1,5,-3,1,-7,0,-5
1501931988930027,1,0,18,19,4,-3,-7,0
1501931988945032,-2,0,5,29,1,-7,4,4
1501931988945032,-2,-6,-32,18,-2,2,12,1
1501931988945988,2,-2,-6,-82,-10,-5,-42,-5
1501931988945988,-1,-2,-6,-24,-1,3,62,18
1501931988968031,0,2,8,-10,2,1,11,5
1501931988968031,-1,0,1,-11,-7,2,-2,0
1501931988969016,0,-2,0,29,11,4,4,1
1501931988969016,-2,-2,1,14,0,-7,-10,-2
1501931988982042,-3,-4,0,8,-7,-6,-17,-9
1501931988982042,3,-1,-2,38,4,9,24,9
1501931988990025,-6,-9,-25,-81,-10,-5,7,-1
1501931988990025,-1,1,-2,12,5,1,-12,-5
1501931989005053,-2,-3,-3,-27,-21,-12,1,0
1501931989005053,-1,6,26,-5,5,-2,-37,-9
1501931989005990,4,3,3,54,-1,3,-3,6
1501931989005990,-3,-4,-12,13,3,-1,8,0
1501931989028031,-3,-3,-7,-19,4,0,-1,-1
1501931989028031,-2,-1,-4,-15,-12,-7,-9,-3
1501931989028992,-1,1,7,-21,2,1,4,3
1501931989028992,-2,-2,-15,-8,-9,-5,-18,-7
1501931989042021,1,-1,19,52,9,-1,-1,-1
1501931989042021,-1,-4,-1,-48,3,4,9,3
1501931989050032,0,1,13,56,-8,-2,3,-2
1501931989050032,-1,-2,-13,-42,-6,2,-12,-5
1501931989065057,-1,0,-7,-23,6,3,15,-3
1501931989065057,-1,0,13,11,6,-3,-10,1
1501931989066012,0,-3,-5,40,2,-3,4,-3
1501931989066012,0,1,11,-91,0,-4,-8,-1
1501931989088036,0,-1,-3,85,8,1,-2,2
1501931989088036,-1,-1,-7,-33,-10,-3,1,-4
1501931989089009,-2,1,-1,68,10,0,-3,-7
1501931989089009,-2,-3,-4,-13,-4,-2,-5,1
1501931989101993,-3,-3,-8,-18,5,0,-15,2
1501931989101993,-3,0,-8,-25,-9,1,-2,0
1501931989110026,-1,-1,5,7,-1,0,11,-3
1501931989110026,2,2,4,-32,0,3,-5,-2
1501931989125059,-2,-2,-4,22,-8,-4,-4,-2
1501931989125059,0,-3,-7,23,6,3,-4,3
1501931989126002,-2,-1,-9,-42,-3,4,-3,2
1501931989126002,-3,-2,22,76,10,-3,-6,-2
1501931989148038,1,-6,-18,-28,-2,1,4,2
1501931989148038,-5,0,-3,-15,-13,-3,1,-6
1501931989149011,1,1,0,-56,-7,-4,0,0
1501931989149011,-1,-3,-15,-9,-4,-2,-9,-3
1501931989162035,-16,-5,5,18,2,-2,-1,-1
1501931989162035,1,-6,-3,22,11,0,7,-1
1501931989170045,-4,-1,1,-32,-8,0,-4,0
1501931989170045,2,2,3,28,2,0,-2,-3
1501931989185063,9,3,-4,-48,-9,-2,-1,1
1501931989185063,-2,-1,6,19,-3,0,-2,0
1501931989186001,0,-3,-6,7,2,-1,-4,-4
1501931989186001,-3,-7,0,4,-3,-3,5,11
1501931989208071,-10,2,-4,-14,-5,-1,-1,1
1501931989208071,29,9,5,8,9,0,2,-4
1501931989209001,-20,-12,-7,22,0,-1,-5,-2
1501931989209001,-3,5,5,16,-3,0,-1,-3
1501931989230044,-8,-4,2,-17,-2,-2,0,0
1501931989230044,-3,-2,-3,-10,-4,-2,2,-1
1501931989231041,10,3,-4,5,1,-2,-2,2
1501931989231041,-1,-2,-7,-20,-3,-1,-4,-3
1501931989245068,6,0,3,1,0,-1,4,-2
1501931989245068,-5,0,0,-4,-3,-4,-4,-4
1501931989246007,1,1,-1,17,4,-1,3,-1
1501931989246007,-3,-4,-3,-33,-4,0,-2,-2
1501931989268046,4,0,-2,15,2,-2,3,-3
1501931989268046,-8,-6,-9,-2,0,-2,-2,-1
1501931989269004,-5,1,-2,-7,-1,0,0,2
1501931989269004,2,0,-5,1,-4,-2,-1,-1
1501931989290047,5,-2,-1,0,-2,-4,-4,-3
1501931989290047,-5,-3,4,3,1,2,-2,-1
1501931989292017,3,-3,3,-3,1,-1,3,0
1501931989292017,4,0,0,8,-1,-2,-3,-1
1501931989304034,1,0,-1,-17,-2,0,1,0
1501931989304034,-6,-1,9,30,1,0,-1,-1
1501931989313015,1,-2,-7,-40,-5,-1,0,0
1501931989313015,0,0,1,12,0,0,-2,-1
1501931989328047,-1,-1,-1,4,3,1,-2,0
1501931989328047,-2,0,-2,-6,-7,-2,0,0
1501931989330013,0,-1,7,10,-3,-3,-2,-4
1501931989330013,-1,0,-4,10,-2,-1,-4,0
1501931989350046,0,1,-1,-2,-2,1,0,-1
1501931989350046,-1,0,-5,-4,-3,1,2,-1
1501931989352021,-1,-1,-3,1,-2,1,0,-3
1501931989352021,-1,0,0,-2,0,-4,0,-1
1501931989364069,0,0,4,9,-1,-1,-1,0
1501931989364069,-1,1,-5,-2,-1,-1,-3,0
1501931989373022,-2,0,1,2,3,1,3,0
1501931989373022,-1,-1,3,10,2,-1,2,-1
1501931989388076,1,0,-3,-18,-5,-1,-3,-1
1501931989388076,0,-2,2,-4,1,-2,-2,-1
1501931989390013,-1,-1,-2,1,-4,0,0,0
1501931989390013,-2,-2,-4,9,1,0,-2,-4
1501931989411028,-1,-1,-2,4,-2,0,0,-2
1501931989411028,-2,-2,0,6,1,1,-2,-3
1501931989412045,1,1,0,-11,-2,-1,-2,0
1501931989412045,-2,-3,-3,-3,-2,-1,-1,0
1501931989424051,-2,0,3,8,3,-1,0,0
1501931989424051,-2,-1,-7,-18,-4,0,0,-2
1501931989433022,-2,-2,-5,-3,0,-3,-1,-2
1501931989433022,1,0,0,1,-3,-2,-3,-2
1501931989448057,-1,-2,-5,-10,-2,-1,-2,-1
1501931989448057,-2,-3,3,17,0,-1,-1,0
1501931989450038,-1,0,2,14,0,-2,-2,-2
1501931989450038,-1,-3,-4,-8,-3,0,0,1
1501931989470018,1,3,1,-5,1,-1,0,0
1501931989470018,-1,0,-2,-5,2,1,0,0
1501931989472051,-1,-2,-5,4,-2,0,0,0
1501931989472051,0,-2,-1,-6,-2,-1,-2,-3
1501931989484080,0,-1,1,13,0,-1,-2,-1
1501931989484080,-2,-3,-4,-12,-6,-2,-2,0
1501931989493026,-1,0,0,5,-1,-1,-2,1
1501931989493026,-2,-1,-2,-7,-3,-3,-2,-1
1501931989508084,-2,-3,-1,8,-2,-3,0,-2
1501931989508084,-1,0,-1,-1,3,-1,-3,0
1501931989510020,2,0,3,1,1,1,0,0
1501931989510020,0,1,-1,-1,-1,0,-1,-2
1501931989530060,-2,0,-5,0,-4,-1,-3,-1
1501931989530060,0,0,-1,-2,-2,-1,-1,-1
1501931989532031,-1,1,3,4,-2,0,-2,0
1501931989532031,-2,-2,-5,-14,-2,-1,0,-2
1501931989544086,0,-1,-1,2,0,-1,1,-2
1501931989544086,-2,0,-1,-5,1,1,2,-1
1501931989553030,-1,-2,0,10,-2,-1,-1,1
1501931989553030,-1,-1,1,2,0,1,-1,0
1501931989568062,-2,-1,-2,-9,-1,-1,-1,0
1501931989568062,0,-2,-1,-3,1,-1,0,-1
1501931989570021,0,-1,0,-6,0,-3,-1,-2
1501931989570021,0,-3,-1,0,-2,0,-2,-1
1501931989590065,1,-3,-3,0,-2,0,-2,-3
1501931989590065,-1,0,-1,-2,-2,0,-1,-1
1501931989592031,-2,0,-2,-1,-1,-1,0,-2
1501931989592031,2,-1,0,2,-2,-2,1,-2
1501931989604084,0,-1,2,0,0,1,-1,-1
1501931989604084,0,-1,0,0,-1,0,0,0
