timestamp,emg1,emg2,emg3,emg4,emg5,emg6,emg7,emg8
1501932539547360,10,-6,6,3,2,0,-12,-19
1501932539547360,-93,23,13,14,3,-5,-43,-47
1501932539548379,-3,-3,-15,-28,-5,-2,12,61
1501932539548379,-89,-15,-13,14,-5,-10,-30,-5
1501932539548379,1,8,-2,14,4,1,14,-5
1501932539548379,19,-9,14,-23,-15,-10,9,-47
1501932539552339,47,-11,-18,-22,-23,-18,-17,-75
1501932539552339,-39,-8,-3,-10,7,-2,-81,-64
1501932539558408,-63,5,13,26,7,4,29,-31
1501932539558408,7,1,13,-2,0,-6,-24,21
1501932539568380,-7,-31,-17,-8,1,2,28,69
1501932539568380,34,-26,-16,-20,-12,13,87,45
1501932539573386,59,-13,-28,-16,-9,-11,-25,-3
1501932539573386,12,14,19,23,6,-5,-39,-17
1501932539589413,-56,9,1,3,3,4,-42,-46
1501932539589413,-7,5,6,-32,-9,-18,-82,-56
1501932539597341,1,-14,12,-9,5,12,41,32
1501932539597341,40,13,-9,-23,-4,-5,30,31
1501932539615384,54,1,25,28,9,1,-44,-51
1501932539615384,79,-28,12,12,4,3,21,36
1501932539620370,22,26,22,-8,-1,2,-32,-33
1501932539620370,38,-6,16,22,10,9,-5,-77
1501932539633385,-2,9,-11,57,4,-13,-72,-27
1501932539633385,-6,0,-17,-81,-11,19,127,32
1501932539675359,-3,-53,-32,17,7,19,50,26
1501932539675359,-36,-32,-10,2,-1,-8,-19,-32
1501932539676357,-92,15,-15,-10,0,0,-23,9
1501932539676357,-15,3,33,-6,-8,-21,-13,-89
1501932539679407,2,1,-18,11,5,4,-9,-49
1501932539679407,19,11,2,-10,1,8,60,1
1501932539680350,-14,8,4,-1,-2,5,37,32
1501932539680350,-56,-20,-27,2,1,-5,-33,-1
1501932539686420,-34,13,52,-10,-6,-7,10,2
1501932539686420,-40,-20,-57,14,3,1,-7,-69
1501932539693418,127,11,30,17,0,-2,-10,56
1501932539693418,-10,28,-17,-16,0,10,0,105
1501932539701390,27,27,14,8,3,-3,-10,-6
1501932539701390,-7,2,36,-6,-2,2,5,74
1501932539716393,71,14,16,8,4,2,29,-12
1501932539716393,-35,-7,-11,-3,-2,-2,1,5
1501932539723389,-18,-23,-30,35,4,1,32,40
1501932539723389,-34,17,-4,-43,-2,10,-27,38
1501932539747393,19,-34,-24,-5,-8,0,-4,-75
1501932539747393,58,11,4,9,5,5,24,-52
1501932539748365,-69,6,1,-16,-7,-7,-48,-47
1501932539748365,7,5,5,17,-3,-9,28,17
1501932539761394,28,-29,5,-7,-2,1,30,-1
1501932539761394,-5,-14,-9,1,-2,-1,-31,80
1501932539762366,-10,16,11,5,4,8,45,12
1501932539762366,30,-5,-15,2,3,5,9,19
1501932539784422,-87,10,-24,-11,-10,-19,-82,-57
1501932539784422,66,-18,15,6,3,8,86,42
1501932539785355,60,9,0,-31,-10,-3,-17,33
1501932539785355,31,-4,-5,2,-6,-8,-9,-39
1501932539807420,-72,-4,5,-3,-2,-3,-4,39
1501932539807420,-37,5,20,17,2,0,-3,-18
1501932539808371,37,4,-10,3,3,-1,-11,4
1501932539808371,11,5,7,-8,-9,-4,30,-34
1501932539821365,-24,1,-11,10,2,0,-12,35
1501932539821365,-3,0,6,-6,-1,2,24,-51
1501932539822366,-24,-29,-43,-26,-11,-13,1,-23
1501932539822366,-18,8,19,9,0,2,3,13
1501932539844420,24,5,6,2,5,5,36,76
1501932539844420,-4,-2,-14,-4,-5,-1,-17,3
1501932539845358,-5,4,19,-2,-1,0,-38,-13
1501932539845358,-40,5,12,4,0,-3,11,-11
1501932539867400,-12,-25,-7,-5,-3,-4,-31,-10
1501932539867400,-31,-15,-7,-1,-1,0,11,41
1501932539868372,37,-1,8,1,0,-5,14,-63
1501932539868372,4,-7,-6,0,0,5,27,-9
1501932539881398,-51,5,10,5,5,4,7,-30
1501932539881398,15,5,-23,-12,-2,-8,-68,-70
1501932539882369,-70,17,19,5,4,5,26,66
1501932539882369,2,14,28,12,4,3,-15,36
1501932539904419,0,5,-10,2,1,0,-30,0
1501932539904419,-22,-8,19,-6,-9,-10,14,11
1501932539905378,13,1,-25,-6,1,0,-16,9
1501932539905378,29,1,-19,-5,-5,-8,-90,-33
1501932539927363,-15,10,9,3,0,-5,-9,-21
1501932539927363,17,-2,3,5,1,4,46,14
1501932539928363,16,-22,-6,-10,-2,-1,31,-46
1501932539928363,23,17,0,2,-1,-6,-24,-14
1501932539941415,-9,-9,7,-2,-5,-1,6,-26
1501932539941415,-11,-4,-13,-15,-7,-1,6,28
1501932539942371,-15,-11,13,3,-2,-7,-46,53
1501932539942371,25,-6,-34,-8,-4,-1,-4,-3
1501932539964412,21,3,24,1,-2,-2,19,18
1501932539964412,34,-1,-21,-3,2,2,30,-73
1501932539965374,4,-5,19,4,-7,-11,-77,-51
1501932539965374,-48,-3,16,2,0,0,-10,73
1501932539986407,-38,3,-23,-4,-3,-2,5,-49
1501932539986407,87,-1,14,6,-1,0,-26,17
1501932539987380,1,1,-26,-4,0,0,-5,-20
1501932539987380,0,-17,4,-1,-2,-6,-20,13
1501932540001411,75,-8,-17,-15,-5,3,24,5
1501932540001411,-44,22,1,5,4,0,-69,-16
1501932540002376,28,3,1,-5,-2,1,5,-52
1501932540002376,16,16,22,11,6,5,15,22
1501932540024375,72,-36,-18,-5,-4,-7,20,-68
1501932540024375,42,-10,-4,7,-1,1,-9,7
1501932540025380,-1,13,0,0,0,-1,9,18
1501932540025380,-31,5,1,-3,0,-4,4,-54
1501932540046408,1,-6,-7,-8,-4,0,-14,17
1501932540046408,-19,11,18,6,3,2,13,-2
1501932540047384,-9,6,-2,2,2,1,37,23
1501932540047384,34,-10,-3,5,0,3,10,3
1501932540061412,-20,4,-6,-5,-3,2,36,37
1501932540061412,-10,-5,0,-3,-5,-8,-18,-3
1501932540062384,56,4,5,0,-2,-2,-30,5
1501932540062384,1,-12,-15,-10,3,4,4,-33
1501932540084405,-20,-4,7,8,-2,-9,23,-64
1501932540084405,-81,26,4,2,2,7,8,-22
1501932540085377,-29,-9,19,4,1,5,2,41
1501932540085377,-26,-8,-37,6,-3,-6,-18,-31
1501932540106410,32,16,3,-6,-6,-4,-59,-25
1501932540106410,32,-37,2,-5,-4,-6,22,-25
1501932540107379,-53,8,-10,-4,2,2,-9,-30
1501932540107379,3,-10,-50,-4,-1,-3,24,-3
1501932540121374,-51,-5,10,-6,2,2,-10,36
1501932540121374,76,15,9,7,1,3,22,20
1501932540129414,-3,6,8,1,-3,-4,-8,61
1501932540129414,-25,5,23,3,-2,3,-8,-80
1501932540144416,-9,12,7,6,6,2,-31,-10
1501932540144416,5,-3,3,0,0,-5,-18,5
1501932540145411,0,-7,-40,-19,-4,-2,-26,11
1501932540145411,82,-20,11,-4,-1,11,79,71
1501932540166409,-21,23,7,4,4,9,-5,-31
1501932540166409,7,1,9,0,-4,-1,31,48
1501932540167386,-3,4,20,2,-3,-4,30,-12
1501932540167386,-13,-32,-11,-3,-4,-8,-26,-10
1501932540181445,-44,-23,-3,0,-1,-3,21,28
1501932540181445,-44,-3,-6,-4,1,3,13,25
1501932540189444,-8,-9,-9,-4,-6,-9,-12,-16
1501932540189444,-20,16,-2,-5,-4,1,30,-31
1501932540204439,-3,-5,16,9,2,2,1,-18
1501932540204439,-29,8,-11,-2,3,3,36,30
1501932540205383,26,1,10,-1,0,-5,34,-10
1501932540205383,-15,-22,3,1,-1,-8,-37,-17
1501932540226451,10,3,-19,-7,-6,-2,51,42
1501932540226451,24,2,-9,-3,-2,-6,-43,-3
1501932540227388,36,-10,8,1,1,6,13,-15
1501932540227388,79,24,0,2,-2,-2,-23,7
1501932540241413,-22,3,-27,-5,-2,-12,-65,50
1501932540241413,17,-20,-6,-3,2,4,25,-83
1501932540249442,52,15,9,4,-4,-7,-45,-18
1501932540249442,31,-10,-14,-18,-3,-2,14,42
1501932540264443,86,7,12,5,-1,-11,-27,-16
1501932540264443,-3,6,10,-3,-1,9,23,6
1501932540265395,-92,-8,-15,2,1,4,9,2
1501932540265395,7,-12,15,2,0,-1,20,6
1501932540286429,-28,-4,-26,-3,-4,1,18,44
1501932540286429,7,-7,5,2,-1,-8,-21,-23
1501932540287397,8,4,6,6,5,15,91,3
1501932540287397,-44,20,18,-4,-1,-9,-10,-79
1501932540301429,46,-12,14,-3,-2,-2,-46,23
1501932540301429,0,6,-19,1,-1,2,20,11
1501932540309426,7,0,-20,0,-3,-12,-28,4
1501932540309426,-4,-2,21,-1,-4,-8,-36,-4
1501932540324447,-3,-4,-1,0,1,7,23,7
1501932540324447,-20,9,14,7,0,-4,-45,-10
1501932540325387,2,-5,-4,-3,-4,-2,0,-7
1501932540325387,-42,10,-3,-4,-2,0,25,35
1501932540346397,-20,-8,12,3,3,6,46,-59
1501932540346397,-21,-12,-4,1,0,-2,-52,14
1501932540347388,-39,-4,12,-2,-2,-5,-52,-30
1501932540347388,-52,-15,-43,-2,-2,8,37,50
1501932540361433,15,16,-10,1,-2,-2,-9,-9
1501932540361433,33,5,2,-1,0,-1,-13,28
1501932540370389,59,4,-1,-4,-3,-7,-57,-76
1501932540370389,-41,-1,6,3,-2,-5,-32,-51
1501932540384452,13,7,4,-7,-6,-7,-56,-8
1501932540384452,14,7,-11,-7,-1,7,43,15
1501932540385389,-2,3,-12,-1,-1,-3,-32,28
1501932540385389,-27,-12,24,-1,2,0,13,30
1501932540406459,77,-13,-20,3,4,3,-19,-13
1501932540406459,-22,2,11,-5,-7,-10,-29,-28
1501932540407400,-27,3,-19,0,-1,4,18,11
1501932540407400,38,-2,-1,-2,-3,-1,-1,-21
1501932540421402,-42,-11,0,-4,0,0,1,15
1501932540421402,-87,7,2,0,-2,-5,-55,91
1501932540429433,70,-12,4,1,4,13,47,-22
1501932540429433,39,21,23,1,-3,-7,-31,16
1501932540444431,-71,-11,-4,0,1,-1,17,-36
1501932540444431,24,15,-9,-3,-1,-4,-7,-15
1501932540445394,42,11,2,3,0,-3,2,-3
1501932540445394,48,-4,9,9,2,-9,-55,-96
1501932540466464,-43,-5,0,1,-1,0,0,46
1501932540466464,-2,-15,-5,3,8,21,48,66
1501932540467401,1,-4,4,-5,-6,-6,21,-8
1501932540467401,38,6,5,-5,0,10,37,51
1501932540481430,6,-9,-21,-8,-11,-19,-56,-10
1501932540481430,60,-1,-19,-1,1,0,20,14
1501932540489455,-38,-15,1,4,5,1,-1,25
1501932540489455,16,-5,13,-1,-3,-3,-22,12
1501932540504462,-16,8,14,-4,0,16,80,-1
1501932540504462,-62,-4,-2,-7,-8,-6,16,-48
1501932540505396,-68,15,15,6,-1,-2,-10,-8
1501932540505396,-25,-14,-15,-11,-2,0,64,38
1501932540526459,-35,-6,-27,-15,4,-1,10,-10
1501932540526459,-1,1,-10,-5,-1,-2,-12,-76
1501932540527409,-3,-10,6,1,-3,-8,-2,23
1501932540527409,-52,-5,-4,6,4,2,-6,74
1501932540550420,31,20,24,13,7,21,18,-51
1501932540550420,-28,2,7,1,3,3,6,-72
1501932540550420,-22,-1,-1,-18,-10,-7,28,-35
1501932540550420,-11,11,-17,-6,-5,-22,-66,-39
1501932540564468,-17,-6,1,1,1,2,-37,-15
1501932540564468,-23,-28,27,2,-5,-12,-64,-28
1501932540565404,62,43,13,8,6,20,68,60
1501932540565404,49,7,-10,-10,-1,0,13,8
1501932540586443,19,17,12,7,3,-2,-7,-26
1501932540586443,-6,-13,-14,-6,0,6,73,-21
1501932540587414,45,-25,-15,-7,-6,-8,-34,-64
1501932540587414,-32,22,13,8,2,0,-27,-40
1501932540610420,35,29,2,2,0,-2,-2,3
1501932540610420,21,10,19,4,-1,0,-5,53
1501932540610420,-60,-23,23,-1,0,2,1,9
1501932540610420,-62,11,-65,-12,-2,1,-25,47
1501932540624464,42,-15,5,1,2,8,45,21
1501932540624464,-28,-24,-22,-5,-4,-15,-37,57
1501932540625403,33,5,-18,-2,6,8,-48,-6
1501932540625403,38,-7,46,5,-5,-4,-29,-68
1501932540646455,34,-31,-3,-11,-8,-10,20,8
1501932540646455,-24,4,-15,-2,-2,-3,-5,30
1501932540655408,-38,9,-13,-5,-3,-4,23,47
1501932540655408,2,-17,7,5,0,5,-2,36
1501932540669445,13,-1,-20,-1,-2,-8,-34,-33
1501932540669445,83,9,1,3,-1,1,-12,9
1501932540671407,3,1,32,8,3,1,37,-47
1501932540671407,55,8,-28,-4,-3,7,25,-33
1501932540692476,92,14,-26,0,1,-2,14,-20
1501932540692476,-60,6,-7,5,0,-3,-1,-48
1501932540694408,-50,-15,21,-11,-1,-6,-66,40
1501932540694408,2,0,9,3,2,2,0,-8
1501932540706409,-3,-15,-20,-3,-6,-10,27,66
1501932540706409,67,5,20,8,-2,-1,-28,-13
1501932540715408,-30,-7,-17,3,-5,-6,-19,46
1501932540715408,-12,11,10,6,9,16,85,-28
1501932540729451,-33,-5,18,0,2,8,32,47
1501932540729451,-29,-9,-2,-7,-6,-9,-30,-44
1501932540731409,8,-19,-11,-3,-1,1,-11,49
1501932540731409,54,6,-19,-7,-5,-4,26,12
1501932540752460,-43,30,20,4,0,-3,-18,-19
1501932540752460,34,-1,-2,0,1,9,24,-40
1501932540754410,45,-7,-4,3,2,3,-9,-1
1501932540754410,-9,-14,-9,3,-2,-5,-47,1
1501932540766431,-11,-5,-14,-14,-6,-5,21,-38
1501932540766431,-20,-5,21,-2,-2,0,15,10
1501932540775413,-16,6,4,1,-4,-10,13,39
1501932540775413,-87,-21,15,1,-2,0,10,33
1501932540789453,-21,0,17,4,-1,-6,-51,-18
1501932540789453,21,-4,-28,-2,3,-1,-3,27
1501932540791422,-16,3,-22,-5,-2,0,-18,-36
1501932540791422,93,5,3,-5,-1,-6,-64,-118
1501932540812478,-60,3,8,0,-1,12,40,31
1501932540812478,-11,10,-5,-1,0,-4,-40,-2
1501932540814416,-11,9,11,3,1,-2,-19,-5
1501932540814416,-10,-14,-36,-23,-7,-9,63,42
1501932540826429,-24,-4,16,2,-3,1,-18,3
1501932540826429,1,-2,0,-2,-4,-9,-43,-36
1501932540835417,24,-12,-28,0,-1,6,71,-8
1501932540835417,49,7,43,6,3,2,-36,19
1501932540850447,-3,24,8,8,4,-1,-30,-30
1501932540850447,-19,-4,3,-4,-5,-1,48,-23
1501932540851416,1,10,-10,-2,0,-9,-74,-103
1501932540851416,38,-16,-2,9,-1,5,41,41
1501932540872450,-4,-12,-11,5,2,1,7,-2
1501932540872450,40,13,3,9,4,-1,-1,10
1501932540874417,-59,-4,5,-9,-6,-1,-7,11
1501932540874417,-38,7,-23,-6,-3,-3,-1,-3
1501932540886429,-4,-2,21,3,1,-3,-14,24
1501932540886429,8,-1,-40,-6,-2,1,-9,43
1501932540895419,2,5,6,-14,-5,-2,30,-5
1501932540895419,-77,-10,18,7,4,0,-21,24
1501932540909461,17,-5,8,4,-3,0,-17,-4
1501932540909461,50,-4,-11,-10,-7,-7,-44,-49
1501932540911421,-58,-6,-11,4,1,3,50,68
1501932540911421,66,1,7,-5,-4,-8,38,-20
1501932540932432,57,6,-24,-11,-4,-2,-16,-49
1501932540932432,-26,-10,13,3,0,5,61,0
1501932540934423,20,-5,2,7,1,-5,-60,25
1501932540934423,-102,6,16,3,0,9,17,50
1501932540946436,28,-34,-44,-9,-2,-4,24,37
1501932540946436,-59,1,2,-7,-1,6,63,11
1501932540955422,1,-7,0,2,0,1,35,89
1501932540955422,-98,15,-18,2,3,-8,-67,-60
1501932540969461,48,25,33,6,-2,-8,-10,-45
1501932540969461,38,-8,-14,-19,-8,-2,-23,-26
1501932540971434,-49,-12,11,-3,3,-1,21,-27
1501932540971434,15,-12,-9,-5,-6,-6,15,74
1501932540992465,-24,-22,-18,-4,-6,-7,-49,-57
1501932540992465,21,29,5,3,0,-4,20,10
1501932540994432,35,9,21,8,4,3,28,-14
1501932540994432,9,6,-4,-1,0,2,-12,-31
1501932541014467,30,2,16,-5,-3,-2,-16,0
1501932541014467,-59,-6,-5,-4,1,2,-31,-66
1501932541016428,16,-3,-27,-4,0,-1,16,-15
1501932541016428,34,-20,-16,-1,-3,0,-8,10
1501932541029470,-91,9,17,5,9,20,81,-20
1501932541029470,116,13,11,4,-1,-1,-2,-20
1501932541031436,6,3,2,-4,-10,-5,-84,13
1501932541031436,-44,12,-2,1,0,-1,0,-53
1501932541052467,-34,-3,-4,-2,-1,-9,-27,28
1501932541052467,-14,-25,-7,1,1,5,43,54
1501932541054444,49,3,5,1,3,0,-24,-92
1501932541054444,15,-7,-7,-3,1,2,11,24
1501932541074499,-49,-3,7,5,1,0,-9,44
1501932541074499,-27,-11,19,-1,-3,-4,-8,-37
1501932541076430,-2,7,-24,-3,0,-2,16,60
1501932541076430,28,11,15,9,4,8,9,10
1501932541089499,32,4,-3,-1,-1,-5,10,-64
1501932541089499,-8,9,18,-1,1,-5,-39,47
1501932541091442,18,-9,0,4,-2,2,4,-9
1501932541091442,71,-3,2,-9,-5,-6,10,-72
1501932541112470,7,1,-8,3,-2,4,53,14
1501932541112470,-58,-24,-3,2,0,-1,-9,63
1501932541114431,108,21,14,8,2,5,-8,-50
1501932541114431,-111,-7,6,0,-3,-4,-10,6
1501932541134491,37,-2,-20,-3,1,3,24,56
1501932541134491,51,4,8,10,-1,-8,17,-27
1501932541136432,-15,-22,-28,-6,-2,0,14,48
1501932541136432,7,-2,13,7,3,2,-27,-58
1501932541149476,-2,8,6,-4,-5,-3,-25,6
1501932541149476,-11,-8,22,6,1,6,55,-23
1501932541151443,-42,-2,-4,-6,-4,-10,-45,17
1501932541151443,-22,0,2,0,-1,0,11,67
1501932541172497,-13,-9,5,2,0,1,7,24
1501932541172497,-27,-15,-10,-2,-1,-12,-71,-69
1501932541174436,-52,12,8,2,2,6,-9,32
1501932541174436,-4,-1,-14,-8,-4,-5,10,-37
1501932541194504,-42,15,22,-1,0,1,-16,-15
1501932541194504,19,-2,-34,-10,-3,0,32,2
1501932541196436,19,-13,2,7,-1,8,26,-23
1501932541196436,15,16,19,13,3,-1,-10,-7
1501932541209507,20,-14,-62,-12,-3,-8,-3,-5
1501932541209507,9,27,31,10,0,2,-9,-62
1501932541216457,-21,1,1,-11,-4,-5,-10,-24
1501932541216457,18,-7,-2,2,-1,-1,-8,-13
1501932541232480,-23,0,17,5,2,2,17,-11
1501932541232480,-17,-3,-18,-16,0,6,4,39
1501932541234438,-28,1,-8,1,0,-2,15,-8
1501932541234438,5,-12,9,-2,-2,0,14,-21
1501932541254507,56,-8,6,-1,-3,-6,-31,-29
1501932541254507,-26,3,-21,-2,0,-2,4,20
1501932541256442,12,-4,17,4,-3,-1,-6,-23
1501932541256442,-15,-6,-5,2,3,6,14,55
1501932541269481,28,-17,3,-10,-8,-12,15,44
1501932541269481,23,4,-9,2,1,4,-20,47
1501932541276458,41,9,-2,2,-1,-6,-3,-61
1501932541276458,57,6,-41,-10,-2,-3,-1,58
1501932541292452,-56,-3,28,6,0,-1,-17,6
1501932541292452,5,9,13,2,-5,-4,-22,1
1501932541294441,61,5,-3,-8,-3,-2,17,15
1501932541294441,6,-6,1,0,-3,5,8,-8
1501932541314515,-25,6,-4,2,2,1,-10,35
1501932541314515,-4,-21,-15,-7,-5,-5,11,12
1501932541316478,-36,-4,19,9,3,3,-20,-43
1501932541316478,-15,15,9,-2,-3,-2,-27,-67
1501932541329455,15,-20,-16,-6,-4,-4,-22,-70
1501932541329455,-4,-12,0,1,1,2,11,56
1501932541336444,-11,-1,-19,-11,0,1,4,62
1501932541336444,-26,-3,-5,-7,-1,-5,-20,-55
1501932541352479,-4,1,6,8,-2,-3,4,-10
1501932541352479,65,-2,-5,-1,2,-1,0,-12
1501932541353445,22,-14,-14,-9,-4,-6,-20,-68
1501932541353445,-26,4,0,1,-1,-2,11,45
1501932541374520,-8,-1,9,2,2,4,1,-7
1501932541374520,12,9,-26,-4,0,-2,7,0
1501932541376446,-19,-5,15,-2,0,0,2,64
1501932541376446,-56,5,3,-3,-6,-6,5,-24
1501932541388507,44,2,-6,-2,1,2,18,-12
1501932541388507,-24,5,2,2,2,3,12,22
1501932541397470,-79,-23,-3,-11,-1,-1,19,-24
1501932541397470,48,-13,-8,-2,-2,-3,-27,-11
1501932541412519,-53,1,-12,-4,-1,2,20,-37
1501932541412519,67,22,22,4,2,2,2,-29
1501932541418510,-26,5,2,9,2,1,12,57
1501932541418510,11,-2,3,-1,0,2,15,12
1501932541434507,-62,16,16,-6,-6,-11,-33,-52
1501932541434507,-46,-43,-15,-5,-5,3,22,-5
1501932541436453,20,-5,-22,-2,-5,-10,-61,-13
1501932541436453,41,13,13,1,-1,4,61,34
1501932541449462,52,-21,-24,-5,5,9,36,34
1501932541449462,-63,0,3,-2,-1,-4,-2,5
1501932541456455,27,20,12,4,0,-3,3,-39
1501932541456455,46,-16,-1,-1,-3,-1,2,-12
1501932541472492,22,18,-13,-5,0,-5,-48,21
1501932541472492,10,-7,-25,1,-1,-3,-22,-38
1501932541474453,-16,4,26,-3,2,8,46,6
1501932541474453,6,-7,-1,-4,2,1,3,-33
1501932541494493,-25,-13,5,3,-2,1,7,22
1501932541494493,11,6,10,-2,-1,2,12,3
1501932541496456,36,1,0,0,-2,-1,0,-23
1501932541496456,13,-12,-9,-3,1,-3,-20,-15
1501932541508518,-37,-7,-13,-2,-7,-5,-32,24
1501932541508518,-15,-1,10,-11,-2,-5,-25,-14
1501932541517491,-24,8,6,4,2,11,40,57
1501932541517491,-15,3,10,1,-2,-1,21,7
1501932541532461,72,-9,-24,-4,0,1,-10,-17
1501932541532461,-57,4,22,11,2,-2,-25,14
1501932541533457,33,-12,-1,1,2,2,9,39
1501932541533457,-85,8,8,1,-1,-6,-52,-30
1501932541562496,31,10,-8,-9,-3,-7,-25,-47
1501932541562496,-1,-2,-12,-3,-4,-6,-29,-65
1501932541563456,-8,-7,-16,-3,1,6,50,14
1501932541563456,26,-1,-6,-4,-4,0,12,32
1501932541568498,21,4,16,3,2,-2,-10,2
1501932541568498,-19,-8,1,1,-3,-8,-57,28
1501932541577490,-107,-7,3,-7,-6,-10,-45,-24
1501932541577490,-9,2,-10,6,1,3,-18,6
1501932541592459,-19,22,21,10,5,15,28,92
1501932541592459,-19,1,-17,2,0,-3,-12,-25
1501932541593458,52,-5,-23,-7,-4,-5,-30,-11
1501932541593458,25,5,0,-3,2,5,21,17
1501932541614526,-15,-3,-1,1,0,3,-24,13
1501932541614526,2,11,-9,0,-2,-2,-21,-11
1501932541616460,24,3,23,4,-2,-6,-16,-27
1501932541616460,7,-14,-17,-6,-4,-23,-107,-7
1501932541628519,77,2,-7,-1,4,21,70,-65
1501932541628519,-18,5,5,-2,-2,2,20,-5
1501932541637475,27,8,15,0,-2,-7,-38,-56
1501932541637475,5,-17,-4,-5,-5,-3,16,18
1501932541652501,6,11,5,4,-2,-4,1,6
1501932541652501,4,-19,0,-1,-1,2,18,-17
1501932541654462,24,15,-2,-2,-1,-6,-43,-9
1501932541654462,13,-3,3,7,3,3,22,15
1501932541674528,-4,7,3,-9,-5,-2,10,-6
1501932541674528,-2,-10,-2,2,-1,0,65,3
1501932541676476,-6,-17,-5,1,-3,-10,-12,14
1501932541676476,3,9,-1,0,1,5,4,-10
1501932541688528,-36,-1,14,-1,-3,-4,17,-10
1501932541688528,38,20,18,0,-3,-6,-35,40
1501932541697488,-52,-13,-14,-8,-7,-6,8,40
1501932541697488,6,-13,-6,-1,-1,-2,-10,-48
1501932541712522,41,-8,-2,1,0,-8,-27,2
1501932541712522,-5,3,-13,-5,1,5,17,0
1501932541714466,30,-11,-8,-1,1,6,7,12
1501932541714466,-5,2,7,-1,-4,0,22,4
1501932541734507,-13,-4,-3,1,-3,-4,-23,5
1501932541734507,0,-12,2,-7,-1,1,-49,9
1501932541736477,4,-6,-14,-2,-5,-1,13,-29
1501932541736477,-27,-4,1,-5,-1,-3,20,27
1501932541748540,-60,16,-4,2,-1,-2,11,-1
1501932541748540,9,5,15,3,0,5,34,43
1501932541757479,-28,1,28,6,4,7,76,-52
1501932541757479,-31,-9,-47,-4,-4,-1,10,15
1501932541772508,-30,8,-11,-3,-1,-12,-28,-16
1501932541772508,5,-4,-1,2,0,-1,26,-16
1501932541773472,-60,13,12,0,-1,0,13,-28
1501932541773472,-2,1,7,-3,2,2,-12,-15
1501932541794531,55,-13,-3,0,-2,-5,-6,10
1501932541794531,21,2,-6,-5,-1,-7,-32,-26
1501932541796469,38,6,-9,3,0,2,-38,4
1501932541796469,22,-6,17,11,1,-1,24,-7
1501932541808509,-45,1,-8,-3,-1,4,-18,0
1501932541808509,9,-4,2,4,0,2,2,-24
1501932541817472,-25,-2,-6,-4,-3,-1,17,-2
1501932541817472,15,13,-10,0,-3,2,75,37
1501932541832514,4,-20,14,-13,-1,-3,-4,-10
1501932541832514,-7,11,0,-4,3,2,5,-12
1501932541833472,16,9,2,8,3,-5,12,5
1501932541833472,4,4,13,-3,-1,3,-21,5
1501932541854540,-2,-18,-26,-1,-3,-9,-14,9
1501932541854540,-12,-10,-7,1,0,-3,-5,24
1501932541856474,15,-2,-29,-11,-6,-5,-50,12
1501932541856474,-2,-5,23,1,-1,-1,-53,20
1501932541868539,14,1,16,2,-1,2,-6,-52
1501932541868539,6,-5,-5,-3,-6,-8,-22,12
1501932541877475,24,-4,-4,-4,-1,-2,-31,-22
1501932541877475,35,-2,-4,0,1,-1,0,3
1501932541892510,-18,-3,-7,-7,-5,-1,9,17
1501932541892510,-42,10,-8,-2,-2,-4,17,-39
1501932541893478,30,-18,1,0,2,-3,0,-23
1501932541893478,-31,12,-2,-2,-2,1,-1,-35
1501932541914478,68,-6,-7,3,-2,1,29,-16
1501932541914478,51,1,0,-1,0,1,-8,14
1501932541916479,2,5,-2,0,2,9,1,7
1501932541916479,16,-16,0,2,-1,-2,-2,5
1501932541928478,6,7,6,5,7,5,1,10
1501932541928478,75,9,18,6,1,8,28,91
1501932541937491,-30,2,-12,-4,-1,2,-10,4
1501932541937491,63,-11,-19,-7,-4,-10,-45,-67
1501932541952482,14,-6,-22,-2,3,10,-13,-67
1501932541952482,-22,-6,4,-2,-7,-4,8,0
1501932541953481,26,22,-3,-1,-1,1,50,2
1501932541953481,-26,-4,4,0,1,-1,10,3
1501932541974516,12,-12,3,-6,-4,-9,-3,-5
1501932541974516,-49,-3,-6,-1,0,-2,-22,15
1501932541976480,25,-6,4,3,-3,-9,-22,-13
1501932541976480,-60,16,-9,-4,0,4,-23,-11
1501932541997503,-30,-5,4,1,-2,0,25,27
1501932541997503,9,-4,3,1,2,1,-1,5
1501932541998482,-4,-9,3,-2,0,2,32,16
1501932541998482,0,8,3,-1,-1,0,3,21
1501932542012542,-20,4,2,-2,0,-4,-17,-3
1501932542012542,19,-13,3,1,-2,3,56,-5
1501932542013483,18,2,-21,-7,-3,0,1,34
1501932542013483,6,2,0,2,-1,-2,-9,-9
1501932542034493,4,6,1,0,0,-3,-17,0
1501932542034493,51,-14,3,2,4,7,-11,-72
1501932542036495,12,19,8,-1,-2,-3,24,-40
1501932542036495,85,4,11,3,3,1,0,-23
1501932542057526,-14,-12,-4,1,0,-1,10,19
1501932542057526,-31,-4,-11,-6,0,-6,-16,-1
1501932542058486,-25,-5,0,-1,0,0,7,20
1501932542058486,-22,-5,5,-3,-1,0,-2,-26
1501932542072525,-12,6,6,-2,-5,-3,3,48
1501932542072525,-19,5,1,-1,-3,-3,8,-29
1501932542073496,-24,-12,-2,0,-2,-2,-5,7
1501932542073496,-36,3,-11,-2,-1,-6,-30,18
1501932542094557,-18,1,8,-1,3,4,-35,-2
1501932542094557,21,-13,0,-3,-1,8,30,27
1501932542096527,28,2,-5,-4,-3,-7,-39,-2
1501932542096527,-1,-2,31,2,0,4,9,11
1501932542117530,2,-2,-23,-6,-5,-5,-18,-17
1501932542117530,5,-8,1,-1,-2,-5,-10,-7
1501932542118489,-27,0,10,1,0,0,4,34
1501932542118489,-91,9,2,1,1,7,1,-56
1501932542131561,-11,-20,-9,-4,-5,-5,-5,-11
1501932542131561,-60,-3,-4,-3,-2,-8,-26,-6
1501932542138558,16,-9,7,3,2,5,-11,45
1501932542138558,-20,18,-5,-2,-1,1,26,-24
1501932542154553,-35,-18,-7,-3,-2,-2,23,-6
1501932542154553,23,22,8,2,2,1,-14,-22
1501932542156508,-6,-12,-3,-4,-1,-2,-31,-21
1501932542156508,-7,-9,-22,-2,0,-2,-24,23
1501932542177537,28,6,22,4,-1,3,40,8
1501932542177537,-30,-7,-15,-4,-1,-5,-20,-6
1501932542178493,-16,5,-10,-8,-4,-4,22,-8
1501932542178493,39,-5,-15,-2,0,-3,9,19
1501932542191510,10,1,1,-7,0,4,16,-13
1501932542191510,7,1,-1,0,-2,-5,-5,-10
1501932542198534,-12,1,6,3,0,-4,-4,-21
1501932542198534,-25,-2,-8,-5,-2,-6,31,18
1501932542214565,7,-6,-7,1,2,-2,-30,21
1501932542214565,9,3,7,1,-3,1,43,12
1501932542216494,-23,-5,-16,-4,-2,3,18,-15
1501932542216494,15,0,11,2,-1,-4,-38,1
1501932542237536,-12,4,-1,5,0,-1,-4,-8
1501932542237536,-20,21,4,0,2,10,42,-21
1501932542239496,-11,-9,7,1,-1,-3,-8,-7
1501932542239496,-97,-9,-24,-8,-3,-2,12,54
1501932542252547,-15,3,13,-2,-2,-1,15,-27
1501932542252547,-27,-13,-2,1,2,-3,-33,6
1501932542258541,18,18,13,2,1,3,39,-10
1501932542258541,28,-6,-10,1,1,5,-22,1
1501932542274537,23,7,-2,3,2,6,35,19
1501932542274537,9,-10,-4,3,2,-2,-19,8
1501932542276498,-2,-10,-3,-3,-1,-3,0,15
1501932542276498,50,-4,3,17,-1,-7,0,3
1501932542297539,-5,12,2,-19,-5,-7,-32,-19
1501932542297539,-26,-12,-2,-7,-7,-5,-8,16
1501932542298500,7,2,1,-5,3,0,-15,-10
1501932542298500,60,-2,-24,28,-1,-4,-8,-22
1501932542311541,-7,15,-3,-30,-5,1,13,4
1501932542311541,4,-13,0,-36,-11,-2,9,38
1501932542318546,4,2,-2,1,-3,-6,-41,-38
1501932542318546,-17,1,17,-10,-2,2,25,10
1501932542334564,98,0,-4,27,2,3,26,18
1501932542334564,-28,8,-2,8,2,-3,-6,7
1501932542336504,-27,-14,-1,-3,-1,1,5,51
1501932542336504,9,-5,11,-1,0,0,7,-13
1501932542357548,-31,-12,-8,8,0,-6,-61,-11
1501932542357548,-11,3,-6,-8,-5,-5,1,-25
1501932542358503,-29,27,4,6,3,1,4,-6
1501932542358503,3,5,11,-3,2,-1,18,-13
1501932542371551,-9,-15,0,-4,0,2,18,1
1501932542371551,54,-11,-6,4,-4,-9,-42,-6
1501932542378546,15,-3,-13,-1,1,4,-5,-9
1501932542378546,37,-1,2,-12,-8,-12,-54,-9
1501932542394567,-34,10,3,20,7,7,29,-9
1501932542394567,6,1,-5,-27,-1,-2,-11,-14
1501932542396516,14,-4,3,1,-7,-13,-31,29
1501932542396516,16,-9,7,-9,0,6,20,1
1501932542417545,-26,-3,-7,6,2,-2,-8,2
1501932542417545,-97,-11,-2,16,4,1,-11,-23
1501932542418506,-30,6,-13,-1,-1,-6,-12,-1
1501932542418506,2,21,7,-8,-4,-5,-37,14
1501932542431549,-27,-2,-3,11,4,0,20,8
1501932542431549,-5,-1,-7,-9,1,2,8,-7
1501932542438550,-27,-9,-7,-11,-9,-2,6,-4
1501932542438550,8,-6,-5,8,3,-2,-39,3
1501932542454543,25,13,7,0,-1,-1,12,7
1501932542454543,18,8,5,13,0,2,25,23
1501932542456509,-17,-20,-3,1,1,-1,-4,-2
1501932542456509,-7,-3,-2,-5,0,1,26,-29
1501932542477574,-32,9,4,-9,-4,-5,-11,3
1501932542477574,19,0,9,8,1,-2,-8,5
1501932542478515,-3,-7,-14,-2,-4,-2,-9,-18
1501932542478515,-5,-4,-16,-3,2,3,30,1
1501932542490570,73,11,14,-6,-2,2,0,30
1501932542490570,-3,9,13,10,4,6,40,-2
1501932542499559,-10,2,4,0,0,2,3,-17
1501932542499559,-6,-8,-12,0,-1,-4,-18,-6
1501932542514553,-3,-14,-3,15,0,-1,6,15
1501932542514553,32,12,4,-33,-1,4,9,-7
1501932542516514,24,-14,11,15,0,-2,-20,-33
1501932542516514,3,4,-3,-34,-4,-4,18,28
1501932542537525,-29,-10,-7,10,-2,-3,-11,-30
1501932542537525,13,21,4,22,6,1,10,-14
1501932542538513,-10,-13,-1,27,4,-1,-2,1
1501932542538513,-36,-19,-14,-57,-17,4,47,3
1501932542550553,13,2,5,-13,2,2,1,-6
1501932542550553,-16,-16,2,6,-1,0,0,-3
1501932542559559,38,25,-4,10,3,0,7,0
1501932542559559,5,16,14,38,5,0,-12,15
1501932542574582,-3,-3,12,-14,-7,-2,30,15
1501932542574582,32,-11,-14,-6,-6,-2,-3,18
1501932542576515,13,4,1,-19,-1,-3,0,-19
1501932542576515,24,1,2,17,3,1,-12,-23
1501932542597584,-9,1,14,-5,0,-5,2,-28
1501932542597584,3,8,-29,34,3,-3,4,2
1501932542598518,-14,-5,16,-21,-12,0,-6,9
1501932542598518,-23,-6,1,-15,-4,-5,-4,1
1501932542611539,-19,-4,-5,-5,-1,-2,-9,18
1501932542611539,2,-14,-5,-5,-1,-2,-7,-9
1501932542620519,12,-8,-4,1,4,2,5,-3
1501932542620519,-10,-1,17,13,2,4,30,6
1501932542634552,14,13,-8,-5,0,2,-13,5
1501932542634552,9,-4,0,-2,-3,-6,-9,2
1501932542636519,11,-11,-1,-10,-4,-2,19,-19
1501932542636519,-11,15,1,13,2,3,-11,1
1501932542657585,-17,-12,10,10,4,0,-12,-11
1501932542657585,20,21,4,-2,1,0,-15,-1
1501932542658522,-5,15,5,-9,-5,-2,29,19
1501932542658522,-41,-13,-5,4,0,-6,0,11
1501932542671539,-79,-15,-4,3,-2,-2,-1,-6
1501932542671539,-40,-19,-21,-14,-5,-2,-11,-4
1501932542679567,-3,6,-4,-4,-1,-6,-19,-3
1501932542679567,13,0,-5,-8,-2,-4,-44,-18
1501932542694562,17,13,-7,8,2,2,7,15
1501932542694562,-16,3,12,-3,-1,-3,-13,-24
1501932542696531,-6,-8,-9,1,0,3,14,18
1501932542696531,10,-4,-4,0,0,0,-8,0
1501932542717586,15,-20,-13,-3,-1,-3,-10,-11
1501932542717586,-9,14,14,4,2,-1,2,-9
1501932542718524,16,15,-1,-2,0,1,11,-3
1501932542718524,-47,-2,8,6,-1,-3,-12,-14
1501932542731545,-21,-1,-14,-5,-2,-1,4,10
1501932542731545,-26,9,-7,2,-1,1,24,-22
1501932542739573,-8,-1,44,-1,-3,-6,-20,-33
1501932542739573,-8,-19,-12,21,3,6,66,18
1501932542754585,-88,47,-8,-44,-2,-6,-29,-20
1501932542754585,-5,-21,-12,-3,-3,-2,0,-6
1501932542756539,2,-2,0,-2,0,-2,4,17
1501932542756539,-18,-16,8,1,-2,0,-19,8
1501932542777587,31,-11,-3,6,-3,-4,3,-27
1501932542777587,-9,4,1,6,0,1,-5,2
1501932542778541,-14,8,-11,5,4,4,-8,20
1501932542778541,-48,13,10,22,2,8,36,-13
1501932542791546,31,0,-5,-27,-3,2,4,-32
1501932542791546,11,13,6,-14,-3,-2,-9,-3
1501932542799589,18,-4,-13,-2,0,3,22,5
1501932542799589,-9,3,-15,-7,-4,-7,-18,3
1501932542814588,30,-19,3,12,0,1,7,13
1501932542814588,2,6,8,9,0,2,7,22
1501932542816530,51,5,-3,-5,-1,-1,-9,28
1501932542816530,-13,-11,-7,-13,-4,-10,-24,-6
1501932542837569,-25,1,-1,6,0,2,20,-4
1501932542837569,9,-1,-5,-16,-1,-1,-13,11
1501932542838531,0,-17,9,7,0,5,-15,-28
1501932542838531,85,-2,-10,-13,-6,-6,-36,12
1501932542850575,16,19,-1,6,-1,1,-5,18
1501932542850575,-33,-4,-3,0,-5,-11,-59,11
1501932542859602,-30,-8,-7,-2,2,3,7,41
1501932542859602,75,9,4,-6,1,1,19,-42
1501932542874597,37,-13,8,11,0,-1,-10,-13
1501932542874597,25,3,-1,3,-1,0,-4,2
1501932542876535,-16,5,-2,-3,0,-2,-3,-18
1501932542876535,79,-14,-2,-7,-3,6,35,11
1501932542897548,57,-12,-19,3,-2,-5,-5,21
1501932542897548,25,-5,43,9,3,3,21,-6
1501932542898535,-35,-7,-36,13,-1,-5,-1,-9
1501932542898535,-33,-8,-8,-39,-4,2,-12,0
1501932542919601,-20,6,3,2,-1,0,-34,-4
1501932542919601,20,-8,-8,-6,2,2,23,0
1501932542921542,12,-9,2,4,0,2,22,-6
1501932542921542,-16,12,10,11,4,-1,-15,-6
1501932542934608,3,-14,14,3,-4,-5,-13,11
1501932542934608,21,7,-16,-11,-2,1,3,-36
1501932542936547,3,21,4,2,0,-1,-9,-8
1501932542936547,-61,-1,-13,19,-2,-9,-18,-77
1501932542957577,-20,-5,17,-37,-9,0,7,-13
1501932542957577,-31,-8,-18,15,1,0,26,9
1501932542958538,-13,3,-6,-28,-6,-4,-9,28
1501932542958538,24,6,11,5,-1,1,3,26
1501932542979572,-7,-2,2,11,0,-5,22,16
1501932542979572,34,-5,-5,-8,-3,-8,-16,-2
1501932542981547,50,-5,-8,2,-2,-2,-23,-25
1501932542981547,21,-2,12,0,0,-4,-6,-5
1501932542994602,25,1,-31,0,-1,0,-10,3
1501932542994602,5,3,-7,-4,-2,-3,-7,0
1501932542996575,83,-11,-6,5,-1,-2,16,-22
1501932542996575,-45,0,17,3,2,-1,1,-23
1501932543017581,12,8,-12,-7,-4,-2,-3,1
1501932543017581,-8,-10,12,2,0,5,33,-18
1501932543018542,-11,-3,-2,2,-1,-2,-15,3
1501932543018542,-8,0,-2,-7,-6,-8,12,54
1501932543039547,-42,-4,8,10,3,0,18,2
1501932543039547,-51,-26,-23,-5,-5,-4,-8,19
1501932543041544,-1,17,27,5,1,3,-5,-17
1501932543041544,20,-13,-17,-8,-1,-4,-17,4
1501932543054581,36,5,-10,12,0,-4,-9,-26
1501932543054581,-9,-10,-9,-4,-3,2,0,24
1501932543060553,-108,5,-3,-2,1,-6,3,-10
1501932543060553,-23,-5,-18,-3,0,4,-7,-23
1501932543077587,27,-3,4,16,1,-2,-16,-1
1501932543077587,-11,-1,4,-13,-1,-1,7,42
1501932543083586,-8,-6,5,-4,-9,-5,21,1
1501932543083586,4,7,9,5,5,0,9,16
1501932543099584,-41,-14,3,-3,2,3,-9,-13
1501932543099584,-21,-10,2,10,2,1,-1,20
1501932543101557,-20,12,-7,3,3,1,-12,-9
1501932543101557,-34,5,6,-12,-4,-3,10,11
1501932543114590,51,0,-6,5,0,1,14,4
1501932543114590,9,3,-16,-8,-7,-9,-45,0
1501932543120560,-17,-23,16,-1,1,8,9,39
1501932543120560,-61,-3,-10,-2,-3,-3,-10,-13
1501932543137589,-31,5,8,-1,3,3,-4,-5
1501932543137589,20,15,1,1,-2,-5,-21,-18
1501932543138549,-11,-14,-24,6,0,-8,-14,-5
1501932543138549,34,3,-1,6,3,14,53,31
1501932543159594,-16,3,14,-7,-5,-6,-19,-35
1501932543159594,23,10,-6,-3,3,3,-5,-25
1501932543161557,60,11,2,5,-2,-1,-11,-22
1501932543161557,-21,-2,-28,-2,-4,0,-2,-1
1501932543174582,7,-6,1,-2,-3,-5,-10,16
1501932543174582,-42,-4,18,7,3,3,-1,-39
1501932543180590,43,-5,1,-11,-1,-3,0,6
1501932543180590,30,-3,-3,-2,-1,-6,-16,20
1501932543197591,46,-2,-2,-4,-3,-1,-5,-4
1501932543197591,32,-3,8,3,-1,-3,18,11
1501932543198551,-18,-9,2,-4,1,3,8,5
1501932543198551,-38,-7,-1,-1,0,-4,-8,8
1501932543219592,19,4,-3,1,0,2,9,6
1501932543219592,-7,20,25,4,4,1,36,30
1501932543221556,-24,-12,-15,-10,-7,-2,13,-47
1501932543221556,92,-20,6,6,-1,-1,-6,-5
1501932543234607,-41,-2,-9,0,2,0,17,8
1501932543234607,-24,3,-6,-19,-12,-3,-19,-5
1501932543240584,10,-1,14,1,-1,-2,-6,17
1501932543240584,-11,-9,-12,-10,-3,-1,-2,0
1501932543257618,-26,-4,-3,7,0,-2,-4,8
1501932543257618,3,-2,-4,6,3,-1,-5,-5
1501932543258557,-26,-18,-11,-7,-8,-6,-2,5
1501932543258557,-44,34,20,9,2,3,-15,-19
1501932543279619,-18,-6,-6,-10,-1,-2,15,11
1501932543279619,23,-5,-25,-5,-1,0,-16,-16
1501932543281578,-26,11,-4,2,-3,-4,12,-17
1501932543281578,-13,6,3,3,4,3,7,-8
1501932543294598,1,11,11,-3,-1,1,-7,7
1501932543294598,-21,-13,-11,-3,-2,-2,-18,-2
1501932543300600,-11,-6,-4,2,0,-2,-4,3
1501932543300600,-21,7,4,-1,-2,-6,9,-9
1501932543317627,47,-10,1,-2,-3,-2,28,30
1501932543317627,16,11,7,9,2,-1,10,-16
1501932543318559,12,14,7,0,2,5,-6,22
1501932543318559,26,2,8,18,2,-2,10,-7
1501932543339624,-40,-13,-6,-32,-4,0,-8,-1
1501932543339624,-12,-10,-14,2,-4,-4,-8,-13
1501932543341579,20,4,6,-1,0,-1,-2,6
1501932543341579,3,-3,-7,-6,-3,-7,-12,4
1501932543354623,-14,-10,-2,12,0,-2,-20,34
1501932543354623,-24,26,16,6,4,9,49,-43
1501932543360610,-28,7,6,2,5,2,2,-17
1501932543360610,-13,-7,-6,7,-1,0,-1,-3
1501932543377634,-3,-12,2,8,-2,-3,-14,-3
1501932543377634,-19,-5,0,-17,-5,-8,-14,-2
1501932543378563,19,-6,-8,3,2,0,33,6
1501932543378563,-42,0,14,-13,-2,1,-2,-14
1501932543399609,-28,5,-11,8,-3,4,34,-2
1501932543399609,44,4,24,8,0,0,-12,3
1501932543401564,-21,-3,-16,-4,-2,-5,-14,-9
1501932543401564,21,6,-5,-3,-4,-2,8,19
1501932543413564,-3,-3,1,-1,-2,-3,-9,-15
1501932543413564,-55,-6,6,4,-1,-2,2,-8
1501932543422577,10,4,1,-7,-1,-3,-35,-9
1501932543422577,10,3,-15,-7,-2,0,7,13
1501932543437632,-3,4,4,-3,0,-2,-29,-14
1501932543437632,-41,6,-14,-2,-1,2,23,6
1501932543438566,27,-11,6,-1,-1,2,5,10
1501932543438566,9,4,15,-2,-2,-2,-10,0
1501932543459600,-35,-4,0,1,-3,-2,9,-5
1501932543459600,-16,-20,-5,-5,-1,-1,-5,-3
1501932543461581,16,-6,0,-1,-4,-1,0,-5
1501932543461581,-28,-5,-8,-7,0,0,-34,19
1501932543473631,7,4,-5,-4,-1,-1,1,38
1501932543473631,15,-13,11,6,0,-5,-21,-29
1501932543482602,-26,-22,-11,-3,-1,5,59,7
1501932543482602,90,17,-1,10,5,7,30,-3
1501932543497631,18,-5,0,3,1,-1,24,2
1501932543497631,18,-1,0,-15,-2,-1,-6,24
1501932543498570,-52,14,9,5,1,-4,-32,-14
1501932543498570,2,-24,-9,-6,-3,-1,22,5
1501932543519610,24,22,-3,3,1,-1,5,0
1501932543519610,-36,9,6,-1,-2,-1,1,2
1501932543521573,7,-1,2,0,-2,-3,0,-7
1501932543521573,-32,1,-3,-3,-2,-2,-13,11
1501932543533616,23,4,-6,-2,2,0,-14,-18
1501932543533616,14,6,-3,1,-1,-4,-2,3
1501932543542607,17,7,5,0,0,-2,-16,10
1501932543542607,-20,4,7,3,1,2,9,17
1501932543557630,0,-8,-15,-2,1,3,20,-9
1501932543557630,2,7,-4,0,0,1,-21,6
1501932543558573,-14,-5,-2,5,-2,-1,-6,-14
1501932543558573,-7,-4,2,-7,-3,-6,-8,-11
1501932543579615,-20,-4,2,0,-1,-3,-16,-7
1501932543579615,-17,-10,-2,-1,0,1,11,23
1501932543581609,13,-5,-6,-6,1,1,-3,4
1501932543581609,-30,-6,-10,3,-5,-2,-6,-1
1501932543593646,43,18,17,-1,-1,0,15,-4
1501932543593646,-29,5,-13,-3,1,-1,-10,-23
1501932543602609,13,3,6,0,0,-1,-4,1
1501932543602609,-2,-11,13,-7,-5,-1,-10,2
1501932543617619,36,11,-30,9,2,-1,27,29
1501932543617619,8,1,7,-14,-2,-3,6,-5
1501932543618577,-29,8,2,-4,-4,-1,-15,-13
1501932543618577,-4,-5,7,0,1,2,-50,-13
1501932543639617,-33,-17,6,0,-1,-2,-9,-1
1501932543639617,31,-8,3,8,-2,-2,-1,6
1501932543641595,-3,-1,-11,-2,-2,1,11,-7
1501932543641595,31,12,12,4,4,2,18,6
1501932543653642,-94,-14,-15,-6,-2,-2,-12,-9
1501932543653642,17,-5,-9,3,-3,-3,-20,14
1501932543662591,13,-11,1,-3,-2,1,-1,12
1501932543662591,38,6,-9,0,-3,-4,-10,-16
1501932543677586,0,-14,3,-5,1,3,-13,-2
1501932543677586,87,4,3,0,1,2,20,22
1501932543678580,-45,10,-7,0,-1,0,8,6
1501932543678580,8,-1,-7,0,-1,-3,-8,-11
1501932543699621,-59,-4,4,-8,-4,-2,9,22
1501932543699621,20,13,0,4,1,-3,-2,-9
1501932543701591,26,-18,6,6,3,6,8,11
1501932543701591,-54,0,-5,-14,0,0,6,-5
1501932543713628,15,-4,-3,-3,-4,-2,-6,-24
1501932543713628,-27,-11,-7,-4,-5,-4,-54,-2
1501932543722595,-33,1,-6,-1,-2,-5,-10,-26
1501932543722595,5,14,-2,2,1,-1,2,-10
1501932543737624,-10,-14,4,-1,-2,-4,-48,-10
1501932543737624,-41,2,-2,2,2,4,34,4
1501932543738583,30,0,4,-3,-2,-5,0,9
1501932543738583,68,-17,-5,-1,-4,-4,8,7
1501932543759625,96,14,6,0,-3,-1,-23,-20
1501932543759625,-44,5,15,3,3,3,18,-2
1501932543761595,-3,16,-11,3,0,0,10,-11
1501932543761595,-25,-22,-11,-10,-7,-2,65,2
1501932543782652,35,25,0,3,3,4,18,25
1501932543782652,2,-11,7,5,-1,-3,1,-13
1501932543783589,18,-10,4,-1,0,-1,4,8
1501932543783589,-13,10,0,3,1,-1,-24,-12
1501932543797627,-32,-6,-6,-7,-4,-4,-3,-4
1501932543797627,8,-7,-11,-4,-2,0,24,2
1501932543798588,-2,0,5,-4,-1,-8,-18,-13
1501932543798588,-25,1,2,8,1,2,-6,11
1501932543819619,9,-6,-1,-3,2,3,12,-8
1501932543819619,-2,4,-3,4,-1,-2,11,7
1501932543821588,25,-2,-4,-6,-1,4,-26,3
1501932543821588,-38,-7,0,4,3,4,11,-5
1501932543833655,-45,-18,-3,-3,-6,-9,-15,-14
1501932543833655,15,-11,-7,-6,-4,-2,2,-38
1501932543842602,-17,14,-10,-5,-1,5,39,43
1501932543842602,-11,5,7,5,2,-2,-9,-26
1501932543857630,2,-3,-10,-3,0,-1,-13,-11
1501932543857630,6,-6,-4,2,2,-3,-13,11
1501932543858591,-24,-4,4,10,0,1,24,-4
1501932543858591,41,-4,2,-11,0,4,5,17
1501932543879633,-5,5,-2,4,-2,-5,-9,-7
1501932543879633,23,10,-8,-1,1,2,5,26
1501932543881606,8,10,1,4,0,1,6,-6
1501932543881606,-6,-13,5,2,-1,-2,-15,6
1501932543902630,27,-9,8,0,1,2,16,7
1501932543902630,-23,3,-19,-5,-4,-2,-8,-17
1501932543903593,-34,-16,-17,-5,-1,-4,2,28
1501932543903593,-67,-6,-6,-3,-5,-3,-14,-20
1501932543917665,-24,5,4,6,0,2,-8,6
1501932543917665,15,14,11,-2,-2,-1,-38,-17
1501932543918593,-15,-39,-7,-8,-6,-3,24,5
1501932543918593,21,26,3,3,0,-4,-2,-12
1501932543939657,10,-1,3,1,1,-1,8,-4
1501932543939657,-5,-16,-4,-15,-1,0,-15,6
1501932543941605,3,12,7,-2,-5,-7,-17,-9
1501932543941605,34,-1,-12,-5,-3,-1,-5,27
1501932543962637,-18,6,3,-1,-3,-7,-57,-32
1501932543962637,7,-9,5,4,-1,3,39,23
1501932543963607,-28,-7,-2,-3,-1,-4,-21,-25
1501932543963607,31,-2,-2,-2,-1,-2,-19,5
1501932543976659,-41,1,4,-4,0,0,16,-27
1501932543976659,-53,-7,-4,2,-1,1,3,3
1501932543984612,15,0,6,0,1,-3,-19,-8
1501932543984612,-37,1,0,-1,1,3,-6,9
1501932543999645,57,-17,-8,1,-2,2,20,10
1501932543999645,12,2,6,-10,1,-2,-34,-24
1501932544001603,7,-3,-1,-3,-2,-4,-7,4
1501932544001603,-21,-3,8,6,-4,-7,-18,9
1501932544022666,-2,3,11,-4,-1,2,10,9
1501932544022666,19,-5,-19,2,0,-2,-1,0
1501932544023600,-8,7,3,-2,1,1,-7,8
1501932544023600,30,6,-7,-3,-2,-8,-32,-18
1501932544036641,-10,-5,8,4,0,1,10,12
1501932544036641,57,5,6,6,-2,-1,-7,23
1501932544043665,6,11,8,4,6,6,3,-7
1501932544043665,8,-6,-10,-3,-1,-2,17,-7
1501932544059643,-51,9,1,-3,-2,-1,9,-13
1501932544059643,26,-5,-1,2,-3,-5,-24,-2
1501932544061602,0,9,-7,0,-1,4,8,-8
1501932544061602,-15,-1,3,-10,-5,-5,3,-1
1501932544082661,41,-26,-10,-3,0,1,-13,1
1501932544082661,-60,29,10,1,2,-1,-3,-12
1501932544083604,25,-2,0,-4,-4,-1,11,-5
1501932544083604,-10,6,-1,1,-2,-1,9,-8
1501932544096671,-9,10,-2,0,0,0,10,9
1501932544096671,-41,-13,-3,-4,-4,-5,11,-9
1501932544103642,9,-1,7,-4,-2,-3,-20,21
1501932544103642,-41,4,3,1,0,-8,-46,13
1501932544119644,-8,17,10,8,4,7,55,13
1501932544119644,14,-7,-1,0,1,1,-5,-18
1501932544121605,0,9,-4,1,3,3,-3,-8
1501932544121605,15,-26,11,-2,-3,1,6,7
1501932544142606,9,0,-18,-9,-2,-6,-23,-1
1501932544142606,-22,1,-13,-4,-3,-4,-10,-18
1501932544143607,2,-10,-11,-1,-2,-3,7,8
1501932544143607,17,16,18,6,5,9,38,12
1501932544156674,-48,-24,-3,7,-1,-4,4,0
1501932544156674,62,2,6,-1,1,0,10,-17
1501932544163676,1,1,-9,-2,-1,-2,-6,14
1501932544163676,-16,-6,-10,2,0,0,-6,-8
1501932544179655,-4,13,0,-5,-4,-6,-17,-2
1501932544179655,-43,-14,-9,1,-1,0,16,22
1501932544181619,-38,0,13,1,1,0,17,1
1501932544181619,-84,2,-11,-2,-4,-3,-4,-23
1501932544202651,12,9,0,-1,-1,2,0,-2
1501932544202651,17,-4,-2,-1,-1,-2,-2,7
1501932544203610,6,4,10,-4,-3,-6,-24,-32
1501932544203610,13,-12,-13,-4,-3,-5,-13,3
1501932544216673,12,-17,8,1,-1,-4,-50,2
1501932544216673,-35,34,-4,-1,0,5,35,-9
1501932544223671,11,-8,-10,-4,-4,-1,4,4
1501932544223671,43,5,4,2,0,-2,-10,-29
1501932544239636,15,-4,-6,-5,-4,-4,-9,-11
1501932544239636,-8,-10,4,5,1,-1,-16,12
1501932544241612,-13,0,-7,0,-2,0,8,13
1501932544241612,15,-8,2,1,0,2,21,18
1501932544262686,-50,18,-5,-5,-2,0,13,5
1501932544262686,-12,-6,5,-2,-3,-2,-8,-18
1501932544263614,24,-3,-1,2,1,3,15,-2
1501932544263614,19,-1,3,-6,-1,-2,-21,-7
1501932544276682,8,3,-7,-3,0,3,35,-2
1501932544276682,30,-11,7,-4,-7,-3,-29,17
1501932544283654,39,-12,-19,-2,-2,-5,0,2
1501932544283654,-17,-9,-7,-1,1,0,7,-15
1501932544299661,66,0,6,3,3,1,5,22
1501932544299661,-5,-3,4,2,3,1,1,-4
1501932544301625,-10,8,-3,-5,-3,-2,-15,-5
1501932544301625,17,-22,-5,0,-4,3,8,11
1501932544322656,33,3,-8,-6,-4,-1,4,-16
1501932544322656,-6,6,15,4,1,0,10,24
1501932544323618,10,-8,-16,-4,-3,-6,-11,1
1501932544323618,-57,5,-10,-1,-2,-3,21,3
1501932544336682,-12,11,9,2,1,3,-23,-9
1501932544336682,23,-14,-14,-9,-6,-7,-38,-6
1501932544343689,-49,-3,2,0,1,2,-4,-12
1501932544343689,39,-2,5,3,0,0,19,5
1501932544359660,-12,3,3,-1,-3,-1,1,-23
1501932544359660,-34,6,2,-1,-1,-6,-2,-5
1501932544361622,37,-4,-15,7,0,0,13,9
1501932544361622,7,-2,-10,0,1,2,-11,8
1501932544382659,0,11,15,4,2,-2,-15,10
1501932544382659,24,-20,9,1,0,2,31,6
1501932544383620,31,3,4,3,0,-5,-37,-9
1501932544383620,20,0,-5,-11,-3,-3,9,0
1501932544395629,-32,-21,-18,-9,-3,4,0,9
1501932544395629,18,-1,-7,-6,0,4,24,4
1501932544404631,-7,12,21,8,0,0,21,35
1501932544404631,-26,-5,-7,-4,-1,-3,-22,-34
1501932544419666,-40,-6,-10,1,1,-6,11,6
1501932544419666,-12,6,2,2,1,3,-17,-13
1501932544421632,-10,-3,5,-3,-2,6,24,-15
1501932544421632,48,12,2,1,-3,-1,-3,1
1501932544442666,-38,4,2,0,-2,0,21,-3
1501932544442666,-31,-7,-6,-1,0,1,5,29
1501932544443625,6,12,0,1,-1,-4,-32,-30
1501932544443625,15,-21,4,-1,3,4,4,-3
1501932544455663,81,-19,-1,-2,-4,-3,-7,3
1501932544455663,-3,8,-5,-2,-2,-4,0,-4
1501932544464643,-17,-2,-24,-7,-1,3,23,16
1501932544464643,-21,4,18,0,-1,-2,-3,-11
1501932544479665,36,5,-5,-1,0,0,3,-7
1501932544479665,-5,-4,-9,0,1,-1,-7,8
1501932544481638,26,-15,7,-5,-3,-7,-47,-1
1501932544481638,33,8,2,2,2,6,32,14
1501932544502673,-17,-6,-18,-3,-2,-2,-12,-13
1501932544502673,-27,12,8,0,-3,-4,-10,-22
1501932544503636,-10,-3,-1,-5,0,-1,-3,-6
1501932544503636,-28,5,3,1,-2,-3,-3,11
1501932544515669,-31,-4,2,-4,-1,-2,-15,-3
1501932544515669,84,-23,-8,-3,-4,-3,8,-5
1501932544524645,-56,-1,4,-2,-1,-5,-11,-2
1501932544524645,16,11,-9,-4,-3,1,6,8
1501932544539671,-91,0,9,1,-2,-5,24,-9
1501932544539671,-39,-4,-4,10,0,3,-35,32
1501932544541639,-2,2,-2,-9,-3,4,14,3
1501932544541639,-35,2,9,-4,-3,-1,-13,5
1501932544562679,17,4,-6,-5,0,-4,-5,-16
1501932544562679,-15,2,-1,2,-1,-5,10,-13
1501932544563633,-10,-8,7,3,1,0,-2,-7
1501932544563633,1,1,-8,0,0,-1,-10,4
1501932544575675,29,6,3,4,0,1,-15,2
1501932544575675,-21,3,1,-4,0,0,4,-8
1501932544584640,-6,-1,2,3,0,-2,-20,-11
1501932544584640,47,-5,-4,-4,-2,-1,-6,-2
1501932544599669,-4,13,3,-1,-2,-1,-14,27
1501932544599669,-7,11,2,0,3,5,23,-19
1501932544601634,8,3,1,-1,-1,-2,4,-8
1501932544601634,-16,-6,-1,6,2,2,-11,9
1501932544622697,14,-9,-4,-2,-3,-4,2,12
1501932544622697,-41,-8,-5,-6,-4,-3,-16,-18
1501932544623648,25,-8,-2,-1,-3,-7,11,5
1501932544623648,-6,1,4,2,4,3,-6,-37
1501932544635639,37,1,5,1,0,2,7,-6
1501932544635639,39,3,-6,-5,-3,-6,-11,8
1501932544644635,-3,-44,-12,0,-1,2,21,-7
1501932544644635,4,13,-3,-1,-2,-4,20,-17
1501932544659649,-28,-1,5,1,-1,-2,-7,6
1501932544659649,16,2,3,3,0,0,-4,-11
1501932544661636,27,17,11,2,1,-1,-9,5
1501932544661636,0,-4,-5,-5,-2,0,-9,-5
1501932544682677,-5,-8,-3,-1,1,0,7,-8
1501932544682677,-10,-4,-2,-3,-2,0,14,-4
1501932544683638,67,10,4,0,1,0,-7,-6
1501932544683638,49,-11,-7,-2,-2,-4,24,32
1501932544695707,5,15,2,-1,-1,-1,-5,-6
1501932544695707,1,-10,-3,-2,0,1,-3,34
1501932544704658,-10,8,-1,1,1,3,10,-2
1501932544704658,-22,9,0,-1,-2,-2,7,-11
1501932544719653,-6,-23,3,3,-3,0,-11,-6
1501932544719653,30,12,-1,1,0,1,13,4
1501932544721639,-117,-4,-8,-4,-4,-1,11,13
1501932544721639,1,10,2,1,1,0,17,-2
1501932544742704,-1,0,1,1,3,7,-9,-7
1501932544742704,37,10,9,5,1,-2,10,20
1501932544743642,-38,12,-3,-4,-3,-3,-14,5
1501932544743642,-33,-4,1,1,2,3,-6,-4
1501932544755705,64,2,-12,-8,-4,-5,12,5
1501932544755705,-23,-4,3,1,2,3,4,5
1501932544764657,30,-8,-7,-3,-4,-6,-9,-13
1501932544764657,21,-19,-4,-4,-3,-4,3,27
1501932544779683,17,19,-8,-3,1,-2,-25,13
1501932544779683,-26,-10,1,0,0,4,30,-3
1501932544781644,1,-4,-3,-1,-2,-4,-17,-15
1501932544781644,-41,6,9,3,2,6,23,7
1501932544802710,-2,-4,0,3,2,2,-7,-11
1501932544802710,-10,-13,-3,-4,-1,-3,-13,-29
1501932544803645,14,16,-2,-3,-2,0,-7,8
1501932544803645,-21,1,-3,0,-2,-5,-1,-11
1501932544824709,-58,-5,9,3,3,-2,-15,-18
1501932544824709,10,-9,-5,-5,-5,3,49,1
1501932544826655,-52,-10,4,-2,0,-1,-6,9
1501932544826655,-6,-3,-2,1,1,2,-10,9
1501932544839650,26,-15,-5,-4,-4,-4,12,5
1501932544839650,18,1,1,-1,-1,-9,-43,-19
1501932544841646,13,-9,-2,0,-2,1,8,13
1501932544841646,26,-7,-5,-1,1,3,25,-2
1501932544862716,-43,5,2,-1,-2,-3,2,-8
1501932544862716,-30,-5,-11,-2,-1,0,-4,8
1501932544863648,40,-6,3,4,1,2,29,21
1501932544863648,-27,-3,-4,-8,-5,-9,-38,-9
1501932544884659,20,-10,0,-3,-2,-3,-31,17
1501932544884659,-32,11,-10,-1,1,2,26,8
1501932544886650,-7,15,5,2,1,-1,7,-3
1501932544886650,4,-4,-12,-2,-2,0,0,-3
1501932544899693,79,10,3,1,-2,0,16,37
1501932544899693,-73,-1,1,-1,-3,1,-22,-16
1501932544901660,8,3,13,4,2,4,5,-14
1501932544901660,-7,6,3,0,0,-3,-28,-3
1501932544922659,-17,1,-7,-8,0,1,19,-13
1501932544922659,59,-21,7,4,-2,-5,0,7
1501932544923691,-25,8,-2,0,-1,0,7,11
1501932544923691,27,5,2,1,-2,-5,0,3
1501932544944713,-28,-6,-2,0,0,-3,-35,-28
1501932544944713,4,6,-8,-9,-3,-3,-20,4
1501932544946653,27,-6,2,0,1,5,7,7
1501932544946653,-27,2,-9,-6,-3,-1,-22,-5
1501932544959677,28,-19,-8,-4,-5,-4,19,8
1501932544959677,-11,-9,2,-2,-1,-4,-19,10
1501932544965696,-2,8,-1,0,0,-3,4,-22
1501932544965696,-43,-2,7,1,-1,1,-10,-12
1501932544982724,-16,12,0,1,-3,1,-4,-11
1501932544982724,1,13,2,3,2,0,2,-6
1501932544983656,-39,-25,-13,-2,-2,-4,-5,5
1501932544983656,18,-8,1,-1,-3,-3,11,11
1501932545004722,-29,7,2,-1,0,0,12,1
1501932545004722,18,-11,-5,-6,-2,-2,-7,-12
1501932545006657,-3,10,5,4,3,4,-7,-9
1501932545006657,-5,-1,1,1,-3,-6,-3,7
1501932545019659,-7,-5,-3,3,1,0,-24,11
1501932545019659,17,8,7,4,2,5,49,-4
1501932545025700,99,-20,-12,-10,-5,-4,-24,-13
1501932545025700,-2,7,-1,3,2,1,0,8
1501932545042690,-20,9,5,2,1,-1,-8,-2
1501932545042690,4,8,12,3,1,-1,-37,-38
1501932545043668,1,-9,-11,-8,-7,-4,5,16
1501932545043668,-20,11,4,2,-1,0,12,-6
1501932545064721,-5,1,-5,-3,-4,-3,2,1
1501932545064721,7,1,-1,-2,-2,-1,-9,-1
1501932545066666,-38,3,-1,-1,2,4,44,-18
1501932545066666,-21,-3,-6,-2,-5,-7,-15,5
1501932545079672,-10,-5,8,-1,4,5,29,-9
1501932545079672,11,0,-9,2,0,5,2,16
1501932545085660,3,2,1,1,-1,-2,-16,-6
1501932545085660,2,0,0,-2,-1,2,3,0
1501932545102665,-1,-5,4,3,0,-1,3,-10
1501932545102665,4,-3,-6,-7,-2,0,7,9
1501932545103662,-14,-2,1,-3,0,-2,-25,-3
1501932545103662,18,-8,3,0,2,3,2,2
1501932545124735,-10,1,-6,-2,-3,-2,3,6
1501932545124735,-4,0,3,3,0,-1,-8,3
1501932545126664,-13,-1,-3,-2,-3,-2,-10,-6
1501932545126664,3,-4,-1,1,0,-2,-20,-11
1501932545139674,-3,-4,-4,-6,-1,0,3,-5
1501932545139674,-7,-2,-4,-1,-3,-7,-10,4
1501932545145705,-2,1,-4,-1,0,4,5,2
1501932545145705,13,-3,-2,-3,-2,-4,-9,-7
1501932545162738,-7,-2,-3,-2,-1,-2,1,-5
1501932545162738,-2,-2,-6,-4,0,-3,-22,1
1501932545163666,-9,0,2,3,-3,-12,-28,-3
1501932545163666,9,-4,-3,-3,4,11,-3,1
1501932545184733,-2,-5,-7,-1,-1,4,3,-7
1501932545184733,-5,-1,0,-1,-3,-3,5,-1
1501932545186668,-3,0,1,-1,-2,-5,-7,5
1501932545186668,-3,-4,0,0,-3,-5,-2,-31
1501932545199700,5,1,0,2,6,5,38,6
1501932545199700,-14,1,-2,-3,-1,2,4,-7
1501932545205733,-4,1,0,2,-1,1,12,-1
1501932545205733,5,-3,0,-16,-2,-9,-17,-7
1501932545222709,-4,-3,-3,29,-3,-1,0,4
1501932545222709,5,0,-1,-8,-2,3,23,1
1501932545223669,-3,0,0,8,0,1,-1,0
1501932545223669,-3,0,-1,-3,-1,5,0,4
1501932545244736,-1,0,1,-5,0,-4,-9,-5
1501932545244736,1,-4,1,-3,-4,-5,-2,4
1501932545246670,-4,-1,3,4,2,4,0,2
1501932545246670,5,-1,-3,4,1,5,14,8
1501932545259693,-4,1,3,-8,-4,-6,6,0
1501932545259693,4,1,3,13,-3,3,40,4
1501932545265739,-2,-1,-1,-16,0,-6,11,4
1501932545265739,-3,-2,4,8,3,-1,-36,-10
1501932545282696,2,2,-2,-5,1,7,34,3
1501932545282696,-2,0,0,-2,-3,-11,-35,-9
1501932545283674,1,0,8,2,1,8,11,8
1501932545283674,-1,-4,-11,-1,2,-1,14,-13
1501932545305706,-2,-3,5,-3,3,2,-25,-1
1501932545305706,0,-3,-9,-8,-6,-7,-13,0
1501932545306673,-1,1,2,2,-5,-8,20,2
1501932545306673,0,1,10,12,8,2,-4,-8
1501932545319675,-5,-4,-7,-10,-3,9,-6,-1
1501932545319675,4,0,-5,-10,-1,4,9,1
1501932545327687,-3,-2,-7,-1,4,-1,-20,-6
1501932545327687,-2,0,-4,-3,-11,-24,7,7
1501932545342734,-1,1,-2,0,-3,0,-12,-5
1501932545342734,-3,-4,-1,5,-3,-1,-2,-1
1501932545343678,1,-1,0,-4,9,18,-1,-1
1501932545343678,4,0,-2,4,2,-3,2,8
1501932545364744,-2,1,2,0,-6,-9,-10,-3
1501932545364744,-2,-3,3,-7,4,-2,-7,-3
1501932545366676,-2,-3,-14,8,-9,0,-10,-5
1501932545366676,0,1,1,-14,-6,-16,14,9
1501932545378739,-3,-2,-5,4,2,13,-48,3
1501932545378739,2,3,0,-16,1,9,43,10
1501932545387679,-1,-1,3,-3,2,-7,-4,-4
1501932545387679,0,0,-1,8,0,3,-13,5
1501932545402683,1,0,-6,-32,-3,-12,32,4
1501932545402683,-1,-3,2,21,2,-2,-27,-2
1501932545403689,0,1,2,-1,-3,-6,-11,-3
1501932545403689,2,0,-13,-36,-6,0,-3,4
1501932545424725,1,-2,6,41,4,1,9,1
1501932545424725,-1,-1,2,12,-1,-3,8,-8
1501932545426717,-6,-3,9,13,-9,-10,20,-4
1501932545426717,-1,0,2,1,2,12,-9,5
1501932545447724,-4,-1,-3,1,-8,-20,-2,-2
1501932545447724,2,1,-3,-27,4,15,4,1
1501932545448684,-4,-3,-8,-1,-8,-8,-27,-9
1501932545448684,0,-2,-3,-10,5,9,5,1
1501932545462734,0,0,-5,-4,0,3,-1,1
1501932545462734,-1,0,10,11,-6,-24,-5,-3
1501932545463685,0,-1,0,-11,4,17,-6,0
1501932545463685,-2,-5,-7,4,0,0,7,-5
1501932545484748,-2,0,12,10,-4,-6,9,0
1501932545484748,-4,-1,-11,-19,-2,-3,-18,-4
1501932545486716,1,2,7,1,7,9,10,5
1501932545486716,0,-2,8,43,0,1,-8,-3
1501932545498749,-3,-7,-22,-43,-15,-13,-12,-4
1501932545498749,1,-2,1,10,0,-1,-11,3
1501932545507685,-1,0,-11,-15,-3,0,2,-3
1501932545507685,1,0,0,1,-6,2,-1,-1
1501932545522747,0,2,13,13,10,-8,-1,-2
1501932545522747,-2,-4,-24,-12,-7,5,-10,-2
1501932545523693,-1,0,-2,1,-5,0,3,2
1501932545523693,0,1,1,-13,-1,6,5,-3
