timestamp,emg1,emg2,emg3,emg4,emg5,emg6,emg7,emg8
1501932181436149,-19,4,9,3,2,2,12,-78
1501932181436149,100,-6,-13,-5,-1,6,53,37
1501932181437191,-5,1,6,5,2,11,58,-97
1501932181437191,-22,3,1,20,6,-2,-16,-14
1501932181439160,7,-16,0,-31,-4,-11,-29,-55
1501932181439160,-19,2,4,4,-5,-3,-23,45
1501932181440157,-10,0,4,1,1,4,-3,-36
1501932181440157,-22,-7,-3,-4,-4,-10,-64,-32
1501932181446192,1,10,2,18,7,12,39,91
1501932181446192,-69,4,2,8,4,8,19,2
1501932181462151,106,-42,-14,-19,-11,-9,-25,-18
1501932181462151,-63,39,9,2,2,-1,28,13
1501932181467221,-37,-3,-8,-4,-7,6,50,90
1501932181467221,10,-4,0,-1,2,-2,-2,9
1501932181479194,-19,3,-4,4,3,-2,-3,31
1501932181479194,50,-9,1,-6,-1,6,13,18
1501932181482200,45,-8,-20,-6,-13,-19,-56,-33
1501932181482200,-14,-4,-4,11,0,-7,-43,-115
1501932181508161,12,9,-2,-31,-9,-4,-12,13
1501932181508161,-35,-21,-2,-3,-2,-2,22,63
1501932181545203,-34,-10,0,0,-5,-18,-73,-67
1501932181545203,-19,-6,-7,4,-2,3,36,6
1501932181546158,-60,-7,0,5,-1,4,0,-29
1501932181546158,70,-18,-13,-18,-11,-10,-47,-39
1501932181547158,-24,6,-2,5,0,-6,26,15
1501932181547158,-67,-1,-2,14,3,2,-4,-24
1501932181549206,8,14,2,-42,-10,1,7,-17
1501932181549206,-18,2,4,11,3,6,33,4
1501932181558201,-17,-1,3,0,5,0,-70,-26
1501932181558201,-19,3,2,7,5,12,87,34
1501932181565172,41,-6,9,18,6,6,-25,27
1501932181565172,-82,26,-2,-2,-1,-2,-14,6
1501932181573227,44,-4,0,-5,-3,8,17,30
1501932181573227,31,-1,3,1,4,-2,-3,37
1501932181587222,28,7,2,3,-4,-9,0,-111
1501932181587222,-54,-12,-6,-7,-4,-12,-41,-33
1501932181595202,-34,-2,8,9,8,22,68,-30
1501932181595202,57,-10,-8,-13,-4,-2,-20,-4
1501932181618231,-49,-7,-15,19,0,-8,-75,-10
1501932181618231,54,-17,-6,-32,-11,-14,0,-3
1501932181619178,40,14,-4,-10,-7,0,59,36
1501932181619178,35,8,2,-12,-3,-10,-54,2
1501932181633203,-1,1,-11,8,-2,9,73,18
1501932181633203,16,2,4,10,0,0,-40,5
1501932181634177,-49,-24,-13,-7,-2,-3,-19,7
1501932181634177,32,2,8,2,-4,-4,-8,0
1501932181656237,29,4,7,1,2,2,21,45
1501932181656237,-14,-19,-18,-7,-5,-10,-8,43
1501932181657164,6,-10,-2,-6,-5,-3,80,54
1501932181657164,-31,6,0,5,-6,-5,29,-63
1501932181678206,-12,-1,5,10,1,-13,-59,-36
1501932181678206,-19,4,4,-20,-7,2,18,-39
1501932181680167,-15,-9,-2,2,-2,-8,-7,-26
1501932181680167,32,23,0,-3,1,-3,-28,-34
1501932181692203,-7,-1,1,6,6,-2,-10,-8
1501932181692203,51,8,3,8,5,7,-11,10
1501932181701194,21,7,-5,-5,-4,-11,-90,-33
1501932181701194,64,-15,1,1,-1,1,13,-64
1501932181716235,-24,5,5,-7,-1,-4,14,17
1501932181716235,17,-1,-1,12,6,2,-6,-19
1501932181717168,-2,9,4,17,2,5,2,20
1501932181717168,-48,-4,-3,-30,-7,1,21,12
1501932181738232,19,18,-3,-8,-1,3,27,25
1501932181738232,55,-1,17,7,3,7,61,20
1501932181740181,47,2,-20,11,6,6,-20,-8
1501932181740181,-82,-8,-6,-2,-2,-7,-56,17
1501932181752211,-12,-23,-12,-10,-3,-2,14,34
1501932181752211,-13,22,0,-6,0,2,16,14
1501932181761182,-6,10,12,10,3,0,1,-6
1501932181761182,-10,-30,-13,-16,-6,-12,-41,-2
1501932181776218,89,-11,7,10,3,13,46,29
1501932181776218,-5,-15,-1,-12,-5,11,58,-59
1501932181777213,5,10,-7,-10,-3,-3,6,-49
1501932181777213,-34,2,-5,-1,0,0,16,66
1501932181798237,-10,-6,18,8,-3,-11,-57,10
1501932181798237,-15,-7,-8,10,3,4,55,4
1501932181800195,20,11,11,-5,-2,7,28,37
1501932181800195,-12,-1,14,9,2,-3,-42,-37
1501932181812217,2,-3,-8,-17,-3,3,57,-23
1501932181812217,-69,2,-6,21,7,10,-31,-12
1501932181821185,-19,3,3,-13,5,2,-49,-76
1501932181821185,6,-6,-1,7,-4,-1,-16,-7
1501932181836241,-19,-13,-4,-4,0,0,-16,-7
1501932181836241,-15,6,5,5,2,-4,34,92
1501932181837174,13,-33,15,11,-1,4,31,17
1501932181837174,26,5,-12,5,3,2,-5,14
1501932181858245,28,3,-6,-1,-1,-1,3,-4
1501932181858245,2,0,3,-13,-9,-9,-34,31
1501932181860187,-15,-2,-11,-9,-4,-6,-4,17
1501932181860187,-14,-9,4,1,-1,-1,13,51
1501932181872240,-3,-3,-8,13,-1,-10,-59,-1
1501932181872240,27,8,-1,-12,-7,3,-16,-16
1501932181881211,6,2,-1,-4,-5,-7,7,7
1501932181881211,19,11,2,-14,-5,-5,-38,-4
1501932181896211,35,-1,-2,5,5,10,69,39
1501932181896211,23,-1,0,8,5,1,-52,23
1501932181897182,-7,-7,-6,-9,-7,-6,6,2
1501932181897182,-61,-7,-4,12,3,2,4,21
1501932181918199,33,6,6,-3,-3,-7,19,-12
1501932181918199,-5,-4,-5,4,-2,-6,-43,38
1501932181920179,40,-8,-9,-8,1,1,17,-65
1501932181920179,31,13,3,7,5,9,17,-27
1501932181932238,-33,4,6,-9,-6,-5,-55,3
1501932181932238,-35,6,8,12,3,-8,15,-29
1501932181941180,-17,1,-2,7,2,9,-37,54
1501932181941180,11,7,-17,-18,-7,2,16,-5
1501932181956215,-58,-18,14,-5,-3,-1,-41,-32
1501932181956215,-16,-13,-16,0,-4,-5,-60,-59
1501932181957197,-2,-5,-2,7,4,1,-14,-45
1501932181957197,15,-4,8,0,0,-4,-18,-19
1501932181978223,-3,-1,-16,-11,-2,3,-2,5
1501932181978223,-10,-11,0,7,1,-4,14,-12
1501932181980182,-45,-13,1,-4,2,7,35,78
1501932181980182,-3,8,2,4,2,-2,13,-12
1501932181992222,-39,12,-8,-5,-6,-2,16,-33
1501932181992222,3,3,9,1,4,8,29,18
1501932182001195,-6,3,-7,-3,-4,-6,-19,75
1501932182001195,-47,-4,0,-3,-3,0,-5,-13
1501932182016251,-15,-12,-7,1,-3,-12,-39,-27
1501932182016251,1,-1,-2,16,2,6,77,2
1501932182017211,-4,19,-1,-45,-12,-8,-21,-3
1501932182017211,53,-4,6,8,4,3,9,-10
1501932182038226,-10,-15,-17,-5,2,-7,0,8
1501932182038226,3,3,0,-4,-4,-4,0,25
1501932182040209,-25,12,5,17,3,4,19,-19
1501932182040209,16,-12,2,-4,0,-2,13,0
1501932182052226,-39,0,-3,-7,-2,0,0,10
1501932182052226,15,-3,2,-1,1,0,8,-38
1501932182061187,-17,-1,-7,11,4,2,-8,69
1501932182061187,0,7,2,3,-1,3,-33,-31
1501932182076260,5,8,9,-6,-3,2,-4,17
1501932182076260,-69,-4,-13,-14,-7,-13,-8,-1
1501932182077188,62,7,9,5,2,-6,12,26
1501932182077188,-6,-8,-5,9,-2,0,12,-36
1501932182098246,21,2,7,0,2,2,-18,-19
1501932182098246,78,5,0,-9,-2,4,-4,26
1501932182100189,-19,-11,-5,6,0,-2,7,-10
1501932182100189,31,1,-3,0,-1,-7,2,90
1501932182112228,55,-1,-7,-3,4,10,52,-21
1501932182112228,-66,1,8,0,3,-4,-32,-27
1501932182121223,-3,-6,-11,-3,-4,-2,4,-33
1501932182121223,19,-17,-3,-5,-1,-6,-7,-29
1501932182136254,13,-5,-1,-2,-3,-4,12,13
1501932182136254,10,-18,-12,19,2,-2,-12,18
1501932182137192,1,6,9,-38,-13,-6,1,-22
1501932182137192,46,4,5,1,4,13,22,23
1501932182158234,-98,11,-6,2,-1,-4,-34,-32
1501932182158234,14,-12,0,0,2,2,16,-12
1501932182160194,11,-13,-1,7,-1,-9,-53,-51
1501932182160194,-78,-4,-9,-10,-4,-1,26,17
1501932182172229,35,-3,2,4,-2,-2,25,-4
1501932182172229,9,14,-1,-9,-3,4,5,31
1501932182181203,-29,9,9,6,3,-1,-2,-27
1501932182181203,4,-7,-4,-5,-3,-3,-6,6
1501932182196206,-40,7,1,17,7,3,23,23
1501932182196206,16,-19,-2,-11,-3,-5,0,-29
1501932182197196,22,-5,0,-2,-7,0,13,11
1501932182197196,-17,16,-1,4,1,5,10,9
1501932182218201,22,-9,6,-6,-4,-2,-14,-5
1501932182218201,53,3,5,10,1,-1,-19,-9
1501932182220208,-94,6,1,6,3,3,8,-1
1501932182220208,36,-20,0,-2,1,-7,-36,-33
1501932182232229,-34,17,-2,1,-2,-1,4,15
1501932182232229,61,-3,1,-8,-4,-4,-15,-15
1501932182241199,55,15,0,5,1,-1,37,40
1501932182241199,-48,-5,-18,-13,-7,-10,-37,-27
1501932182256231,-6,5,7,4,7,9,39,-40
1501932182256231,-22,-19,-10,-10,-8,-4,-26,-12
1501932182257199,48,-9,-6,7,6,7,36,39
1501932182257199,86,7,12,7,0,0,8,-10
1501932182278241,29,6,-17,-8,-5,-2,-14,12
1501932182278241,-3,22,1,4,-1,0,-14,-7
1501932182280218,-33,-40,1,-5,1,-5,-44,-16
1501932182280218,-27,-1,3,0,-4,5,47,0
1501932182292240,26,3,2,-2,-2,-1,-1,48
1501932182292240,-21,10,5,2,4,3,-2,-37
1501932182301213,9,6,-5,7,2,0,-12,-11
1501932182301213,-14,2,8,1,3,-2,-2,3
1501932182316266,62,-11,-10,-14,-6,-8,-36,18
1501932182316266,10,-1,8,7,1,2,16,-18
1501932182322243,18,-1,-9,11,-1,-6,-36,-32
1501932182322243,-8,3,4,-4,2,-1,18,-20
1501932182338263,-33,-1,5,-12,-4,5,49,18
1501932182338263,-13,7,-11,-9,-1,-2,9,32
1501932182340238,26,9,-8,-13,-5,-3,-30,-8
1501932182340238,6,-4,-7,7,0,-4,-8,42
1501932182352243,8,-23,-2,10,2,-4,-25,-56
1501932182352243,-18,19,5,-1,4,3,13,29
1501932182361253,-5,2,6,1,-1,1,13,-3
1501932182361253,18,3,-1,10,1,-1,-3,28
1501932182376273,-60,-2,-3,-4,-1,0,-34,16
1501932182376273,0,-8,-9,-6,-3,-3,6,34
1501932182377206,-45,9,4,0,-1,-1,-15,-18
1501932182377206,28,6,-6,-7,-4,-3,-4,3
1501932182398216,-9,-6,3,1,3,4,-1,-1
1501932182398216,21,5,4,1,-2,-5,16,-30
1501932182400216,-14,-15,-4,-1,-1,2,-8,1
1501932182400216,-87,0,2,9,1,-3,-3,-42
1501932182412248,29,0,-6,-27,-12,-6,-13,-34
1501932182412248,-24,0,1,2,0,-2,-10,24
1501932182421219,13,-24,-5,-10,-9,-4,19,19
1501932182421219,-8,10,1,5,2,2,4,5
1501932182436270,-10,12,3,10,1,-4,-19,-22
1501932182436270,-32,6,1,-5,3,6,24,-46
1501932182437217,43,4,0,0,-1,-1,-3,14
1501932182437217,-89,2,4,3,4,6,-11,0
1501932182458276,15,-17,0,11,2,-2,3,22
1501932182458276,10,3,-3,-20,-10,-1,-6,18
1501932182460212,7,-4,1,1,1,-1,2,-9
1501932182460212,18,19,1,-9,-3,0,-3,6
1501932182472251,-29,-24,3,7,1,0,12,-11
1501932182472251,-8,-5,-6,5,-2,-2,-26,5
1501932182481223,19,0,3,-3,-2,-1,44,26
1501932182481223,47,4,2,-2,-3,-1,3,-8
1501932182496282,-45,9,-10,-4,-2,-2,-3,-1
1501932182496282,-16,-18,3,1,1,0,15,1
1501932182497213,-43,4,-5,-4,-3,0,0,-5
1501932182497213,-78,-22,-15,-13,-7,-9,-31,-33
1501932182518254,23,0,2,3,1,-1,2,-7
1501932182518254,-45,-3,-7,-1,-1,0,11,12
1501932182524284,19,5,9,5,3,-3,-23,-19
1501932182524284,-53,-37,-14,-3,-4,-2,16,7
1501932182541259,11,-20,-8,-10,-5,-6,14,20
1501932182541259,-29,5,12,4,2,-1,-11,-28
1501932182542215,-67,3,0,19,5,4,45,5
1501932182542215,23,15,2,-37,-9,1,-25,-20
1501932182563281,45,-19,-5,1,-3,-2,-3,8
1501932182563281,9,15,6,10,2,-2,1,15
1501932182565216,12,1,-3,-13,-6,-7,2,-12
1501932182565216,32,2,0,8,2,-2,15,11
1501932182578234,-44,16,-1,0,3,5,11,4
1501932182578234,-9,-22,-5,-4,-7,-7,-29,-18
1501932182584283,-5,18,5,3,1,1,-14,-15
1501932182584283,-13,-8,-10,-6,-7,-6,-5,-12
1501932182601276,24,10,0,-2,1,0,12,22
1501932182601276,-3,-18,0,4,-2,-5,-44,1
1501932182602219,-10,-3,-3,14,-1,-6,-40,-29
1501932182602219,59,18,7,-27,-1,5,51,33
1501932182623264,69,1,1,8,1,0,-7,-22
1501932182623264,-10,10,0,-4,0,2,27,24
1501932182625224,-7,7,9,2,3,5,10,18
1501932182625224,21,-12,7,17,0,-4,-24,-28
1501932182637292,4,-4,-10,-1,2,2,-18,22
1501932182637292,35,-18,-12,-14,-2,-3,-15,-33
1501932182646256,-12,23,-2,-6,-1,2,2,-2
1501932182646256,4,2,3,11,1,-3,-8,3
1501932182661254,-38,-5,-7,-11,-3,-1,5,4
1501932182661254,47,-1,-1,3,-1,0,-1,7
1501932182662223,14,-13,-10,-7,0,1,-1,11
1501932182662223,-10,27,4,6,3,3,-16,-17
1501932182683289,-18,11,12,2,-1,-2,-5,-2
1501932182683289,-3,0,0,2,1,-5,-12,8
1501932182685236,-4,-8,-12,-8,-5,-8,15,-32
1501932182685236,-42,8,11,16,5,6,7,-2
1501932182697283,34,-7,-2,-17,-4,-8,-37,-3
1501932182697283,13,10,0,1,-2,3,51,-24
1501932182706258,-45,-10,-3,-4,-1,-6,-32,4
1501932182706258,71,-7,2,5,1,4,0,14
1501932182721264,-22,19,-2,7,-1,-2,-1,-20
1501932182721264,27,0,-1,-10,-4,-4,-36,18
1501932182722229,21,-30,-5,-2,-1,0,-3,11
1501932182722229,32,-12,-1,6,-1,-2,25,31
1501932182743291,7,10,3,3,1,-2,-9,-31
1501932182743291,5,15,3,-3,1,3,-4,0
1501932182745261,32,-6,7,4,-1,2,-3,-6
1501932182745261,-64,0,-13,-8,0,-5,-36,-7
1501932182757254,-2,-2,2,1,-1,2,41,14
1501932182757254,4,10,3,2,-2,-2,4,-3
1501932182766228,0,-12,-2,-3,-2,-3,-4,-3
1501932182766228,-55,16,1,-1,-1,1,23,-7
1501932182781265,8,-12,0,1,-1,-3,9,59
1501932182781265,-18,-11,1,22,2,0,29,2
1501932182782230,7,5,-13,-43,-8,-3,-6,27
1501932182782230,4,-16,-4,-4,-4,-5,-27,-18
1501932182803295,7,6,5,1,1,5,22,2
1501932182803295,20,2,-1,-2,-3,1,26,3
1501932182805231,-6,12,7,10,3,-1,6,-23
1501932182805231,1,-17,-6,-7,-7,0,-3,-6
1501932182817302,-14,-22,-4,-3,-3,-3,-4,2
1501932182817302,26,-14,-10,-6,-4,-6,-19,-19
1501932182826268,13,15,7,5,-1,0,-10,0
1501932182826268,-22,-7,-5,-3,-1,0,19,24
1501932182841272,13,-2,-2,6,0,3,4,-20
1501932182841272,-20,-1,-3,-6,2,0,-8,4
1501932182842233,-23,1,4,3,-2,-4,-13,-3
1501932182842233,-11,-13,-3,0,-1,0,10,26
1501932182863300,-25,9,4,1,2,1,-5,-5
1501932182863300,-71,-2,-7,-5,-4,-5,-13,-15
1501932182865233,61,1,2,4,3,0,1,12
1501932182865233,-15,19,5,4,1,2,-15,-25
1501932182877297,-14,-19,-10,-7,-5,-6,-2,4
1501932182877297,1,22,10,5,5,5,-7,-20
1501932182886269,29,-19,-2,2,-3,-1,-4,1
1501932182886269,-10,7,-5,-3,-5,-2,6,-1
1501932182901295,-19,-7,-3,0,-1,-2,1,1
1501932182901295,-17,-10,4,2,2,3,-5,16
1501932182902236,100,2,-6,-4,-5,-6,5,16
1501932182902236,-5,-7,1,0,0,-1,5,-1
1501932182923302,22,16,0,-5,-6,-7,-6,-12
1501932182923302,-49,-28,0,-2,-2,-1,-4,-2
1501932182925237,-41,-8,-13,-5,-3,1,-7,21
1501932182925237,117,-1,0,1,2,4,4,-5
1501932182937279,-29,20,4,1,0,2,2,13
1501932182937279,4,9,3,1,-3,-4,-6,13
1501932182946238,-3,-2,-2,-1,-1,-6,-28,-11
1501932182946238,-31,-7,-7,-4,1,1,13,-11
1501932182961306,-17,-6,-3,2,2,3,-11,-13
1501932182961306,16,2,-1,-5,-2,1,4,15
1501932182962240,-33,5,2,2,-2,0,36,-11
1501932182962240,36,7,6,1,3,1,-9,12
1501932182983305,6,-5,-1,-1,0,-1,-4,14
1501932182983305,17,5,-1,-6,-4,-1,-2,-6
1501932182985240,-39,4,-1,3,2,-1,-5,-18
1501932182985240,17,-3,3,2,-1,-4,-3,-16
1501932182997310,-3,7,4,-3,-3,-8,-27,5
1501932182997310,36,-3,-11,-4,0,7,37,18
1501932183006254,-1,16,4,0,-2,-3,-37,-15
1501932183006254,-24,-20,-1,-3,-1,1,15,13
1501932183021287,83,5,-4,-5,-5,0,10,1
1501932183021287,-4,1,-3,-1,-2,-7,-4,-7
1501932183022244,-11,8,2,2,4,3,7,23
1501932183022244,-41,8,3,0,1,-1,-19,-3
1501932183043294,18,-4,-2,1,2,1,-1,-15
1501932183043294,-29,-7,-3,-4,-1,1,14,17
1501932183045244,20,-18,-1,-1,-2,-2,-7,-5
1501932183045244,54,-5,-11,-1,-1,-3,-16,11
1501932183066307,-33,-10,-4,-6,-1,4,9,-12
1501932183066307,16,3,-5,1,0,0,-13,-1
1501932183067246,-44,-7,-1,0,0,-1,10,-9
1501932183067246,-2,-19,-2,14,-3,-7,-7,-2
1501932183081313,1,-1,2,-13,0,-4,5,-5
1501932183081313,-12,0,1,1,-2,-3,4,-5
1501932183082246,19,6,7,0,0,3,10,-12
1501932183082246,-8,2,-14,-10,-5,-6,-7,-6
1501932183103256,4,-5,-7,8,2,-4,-11,16
1501932183103256,-71,-4,1,2,1,-2,-16,-36
1501932183105257,0,-4,4,-1,0,3,8,20
1501932183105257,-4,8,0,1,-2,0,1,-5
1501932183126323,-63,1,8,3,0,3,-10,-8
1501932183126323,10,-5,-9,-7,-2,-4,-35,11
1501932183127255,7,0,0,3,-2,3,6,-16
1501932183127255,-18,5,-1,-5,0,0,4,7
1501932183141291,5,-4,0,-3,-4,-7,-26,-24
1501932183141291,7,-13,-7,-5,-4,-1,28,27
1501932183142249,-1,-4,-4,0,2,-4,23,9
1501932183142249,4,7,2,-2,-1,-5,-7,6
1501932183163294,4,7,2,-2,-2,-2,-4,-11
1501932183163294,14,-14,-2,2,0,-3,-10,-15
1501932183165253,-25,2,-17,-13,-10,-11,-39,-9
1501932183165253,10,-5,-2,-5,-2,-1,-7,-9
1501932183186315,-4,5,3,4,2,11,44,10
1501932183186315,14,6,6,2,2,7,46,10
1501932183187271,-8,3,4,2,0,0,36,-9
1501932183187271,-25,-2,6,3,1,-1,-31,-21
1501932183201294,-5,0,-11,-8,-7,-22,-86,-6
1501932183201294,41,7,6,2,6,12,66,20
1501932183202255,5,-2,1,0,0,5,15,49
1501932183202255,5,-3,-6,-1,1,6,29,7
1501932183223315,32,9,5,5,2,2,40,10
1501932183223315,-6,5,3,0,-2,-8,-39,-2
1501932183225255,9,-4,-3,0,0,-4,-45,-9
1501932183225255,76,-4,4,-1,-1,-1,32,-9
1501932183246325,-69,7,-7,-4,-4,0,-10,11
1501932183246325,23,-2,2,1,1,4,21,5
1501932183247256,-17,-9,4,2,-2,0,-39,-12
1501932183247256,8,0,-11,-8,-3,0,29,-8
1501932183260323,23,-5,2,1,2,7,8,-31
1501932183260323,3,-3,-4,1,1,-2,-14,8
1501932183267296,-17,9,2,-1,-1,3,45,4
1501932183267296,36,-4,7,1,2,2,-10,-11
1501932183283258,-9,-1,-5,-4,-6,-7,13,10
1501932183283258,-10,5,1,-4,-5,-7,-61,-14
1501932183285259,17,0,-5,0,3,1,-9,9
1501932183285259,-15,-11,-3,-3,1,5,29,11
1501932183306329,4,14,-2,0,-4,-2,11,-11
1501932183306329,-45,-20,-11,-6,-4,-5,-19,4
1501932183307260,-27,11,1,-2,2,5,-23,-30
1501932183307260,-62,-6,1,2,1,2,-12,4
1501932183320304,28,-11,-5,-3,-1,-2,-11,2
1501932183320304,85,9,-9,-3,-3,-4,18,-2
1501932183327326,-27,-3,0,2,0,0,17,-8
1501932183327326,-36,2,-1,2,-2,-4,-11,4
1501932183343309,-3,-6,-6,-5,-2,-1,4,16
1501932183343309,27,-11,6,0,-3,-3,-5,-30
1501932183345261,30,8,-2,-2,1,1,28,14
1501932183345261,-44,-9,-1,-5,-4,-1,-8,2
1501932183366334,-1,5,5,4,2,8,41,-13
1501932183366334,-8,4,-4,-7,-4,-8,1,-2
1501932183367265,30,-13,-3,0,1,0,5,1
1501932183367265,-8,6,7,-2,-3,-1,-2,7
1501932183380268,1,-6,-13,-6,-6,1,1,12
1501932183380268,-33,7,5,3,5,0,-12,-32
1501932183387306,-24,7,0,-2,-2,-7,-41,-37
1501932183387306,36,1,4,2,1,-3,-4,19
1501932183403306,-25,-3,-8,-1,4,5,0,-26
1501932183403306,-38,-4,-3,-1,-1,2,6,3
1501932183405265,109,-6,-7,-4,-8,-1,-39,19
1501932183405265,-32,18,3,3,0,1,5,-2
1501932183426333,-28,-9,0,1,1,-3,-11,3
1501932183426333,-17,1,2,1,-2,-2,-8,-26
1501932183427267,-13,-2,-1,-1,1,1,10,1
1501932183427267,-19,4,-13,-11,-6,-8,-23,-4
1501932183440334,10,-9,2,2,1,4,9,19
1501932183440334,1,6,-1,-1,0,1,-5,7
1501932183447306,-14,-4,7,6,0,-2,4,10
1501932183447306,4,-11,-3,-1,-1,-4,-64,-38
1501932183463308,-33,-1,4,1,0,2,5,14
1501932183463308,1,8,4,4,2,3,7,-2
1501932183465300,-34,-3,-2,-5,-5,-4,11,31
1501932183465300,17,-14,0,1,-4,-7,-19,-4
1501932183486347,-17,11,1,0,-1,-6,-93,-13
1501932183486347,-6,-3,0,0,1,7,58,1
1501932183487271,-2,-11,-4,0,-3,-4,-13,-33
1501932183487271,-5,5,1,1,3,3,33,4
1501932183500311,40,-1,6,4,-2,-5,14,0
1501932183500311,-96,4,-5,-4,-4,-2,-6,-14
1501932183507340,-14,-8,-5,-4,-4,-3,-4,-6
1501932183507340,-19,-7,-1,-1,0,-2,2,4
1501932183523334,1,-2,-6,-2,-1,-4,6,-3
1501932183523334,5,-12,1,-4,-4,-2,-38,8
1501932183525272,1,-15,2,2,-2,-1,14,3
1501932183525272,7,6,-1,4,2,5,28,4
1501932183546343,-7,-11,-3,-5,-3,-1,11,-3
1501932183546343,51,-3,-3,-3,-3,-3,-1,24
1501932183547274,-22,20,1,-1,2,3,-9,10
1501932183547274,11,-7,-3,0,-2,-2,-11,-17
1501932183559312,15,0,1,2,1,-2,-12,3
1501932183559312,17,-8,-1,-3,-1,-1,-7,6
1501932183568285,-13,10,0,-5,-2,0,-2,-7
1501932183568285,6,0,0,0,0,-3,-24,4
1501932183583314,23,0,0,-1,-1,2,63,4
1501932183583314,-1,4,-7,0,-2,-6,-9,6
1501932183585307,-31,-5,8,2,0,-2,14,-3
1501932183585307,-4,7,-17,-6,1,0,2,31
1501932183606320,13,-10,3,1,2,-1,-7,-6
1501932183606320,11,-12,-3,-1,-1,-2,-61,-8
1501932183607277,-3,9,-7,-5,-2,2,30,-9
1501932183607277,-4,10,8,5,-3,0,7,7
1501932183619285,-19,-2,1,-3,-3,-6,-14,8
1501932183619285,1,-5,-6,1,2,-1,9,-3
1501932183628278,7,-10,-7,-3,-3,-2,-31,-1
1501932183628278,2,-3,-1,-2,-2,-2,7,10
1501932183643353,3,4,3,8,5,5,-3,2
1501932183643353,10,10,1,0,-3,-3,-2,-13
1501932183645287,-1,-5,-3,-5,-3,-1,-7,-5
1501932183645287,18,3,-3,-2,-2,-1,-2,-10
1501932183666346,-31,10,1,-1,1,-3,-8,-8
1501932183666346,-1,9,4,3,2,0,-22,-3
1501932183667280,11,-1,3,3,1,2,28,0
1501932183667280,-3,-5,-5,-2,-2,-4,-34,-19
1501932183679317,9,-1,2,2,1,-1,-2,-13
1501932183679317,-27,-10,-1,-5,-5,-2,-3,-21
1501932183688298,1,-1,-11,-5,-5,-4,6,0
1501932183688298,20,-6,12,2,-2,-1,-1,-10
1501932183703295,-13,-4,-10,-3,-3,-6,-17,-12
1501932183703295,1,-6,-1,0,0,1,22,15
1501932183705292,-7,4,-3,-1,3,5,27,10
1501932183705292,-19,-11,7,1,-2,-2,2,-17
1501932183726360,20,-4,-2,-5,-2,2,32,6
1501932183726360,13,12,4,0,1,5,31,6
1501932183727285,-26,-1,6,4,2,-7,-33,-10
1501932183727285,13,4,-5,1,3,7,16,4
1501932183739346,11,-9,-4,-3,-2,-2,-34,-4
1501932183739346,34,3,-5,-3,-3,-4,5,0
1501932183748295,0,-7,5,2,0,0,-6,-4
1501932183748295,1,-10,-4,-3,-1,-4,-4,11
1501932183763285,-7,2,-4,4,-1,-2,27,13
1501932183763285,11,-1,-1,-3,-2,-2,-14,4
1501932183765287,0,-6,-2,-1,-1,-7,-14,-2
1501932183765287,17,-5,-7,-5,-1,-1,-19,-10
1501932183786288,10,-1,6,0,-3,2,13,9
1501932183786288,-29,2,-4,0,-2,-1,-4,-3
1501932183787286,19,-16,-1,-1,-5,-4,-3,26
1501932183787286,12,13,2,1,1,1,27,-10
1501932183799320,-53,-2,0,-1,-2,-3,-22,-8
1501932183799320,-8,-4,2,-1,0,0,8,3
1501932183808289,10,4,0,0,0,0,15,-1
1501932183808289,-12,4,6,2,0,1,16,10
1501932183823298,-9,0,-6,-6,-4,-4,-38,-23
1501932183823298,10,-2,4,1,0,0,40,20
1501932183825290,34,-2,-5,-3,0,3,-25,16
1501932183825290,-11,-13,-14,-8,-6,-5,4,6
1501932183846303,42,7,5,2,1,4,3,-3
1501932183846303,-11,1,0,-1,0,-8,-40,-7
1501932183847290,-32,-5,-2,-1,0,0,-12,-12
1501932183847290,8,9,-2,-3,-4,0,5,2
1501932183859305,3,0,0,0,2,4,43,3
1501932183859305,-18,-20,-8,-8,-6,0,4,2
1501932183868292,17,4,-4,1,-1,-3,3,-8
1501932183868292,-24,3,7,4,0,2,0,-15
1501932183883294,-6,-6,-1,-4,-4,-3,5,3
1501932183883294,3,2,-5,-1,0,0,-12,-4
1501932183885292,-16,4,5,2,1,1,-1,19
1501932183885292,-2,-8,-2,-2,1,-7,-37,-10
1501932183906296,4,-3,-8,-2,-1,-3,-17,-6
1501932183906296,-5,3,10,4,1,3,23,-27
1501932183907294,-1,8,-4,2,-1,1,5,-32
1501932183907294,-16,0,-2,-2,0,1,-1,1
1501932183919358,-7,8,3,-4,-1,-1,-10,-30
1501932183919358,1,-5,3,6,0,-1,-14,13
1501932183928305,-3,-9,-18,0,-4,0,20,15
1501932183928305,-7,1,5,1,-2,2,17,37
1501932183943330,-18,-5,-1,1,-1,-4,-36,18
1501932183943330,3,4,2,-5,-3,1,9,4
1501932183945299,22,3,6,4,-1,-6,0,-2
1501932183945299,-3,5,-1,-11,2,2,0,-7
1501932183966345,-11,-11,-7,10,-3,-4,-18,55
1501932183966345,-11,7,-1,6,-1,3,18,-11
1501932183967298,9,-2,3,-5,-1,-4,-21,-15
1501932183967298,-48,-12,-6,-5,-4,0,4,4
1501932183979340,12,4,-3,-6,-4,-7,10,-3
1501932183979340,4,-12,3,2,1,1,-9,-3
1501932183988299,23,5,-12,-10,-4,-5,-15,32
1501932183988299,-3,6,4,2,4,2,34,96
1501932184003341,31,9,4,3,1,-1,-2,-66
1501932184003341,-47,-20,-14,-8,-7,-9,-13,41
1501932184005299,-9,12,14,6,5,5,-2,-67
1501932184005299,47,-5,-3,0,-4,-6,-16,-78
1501932184026372,7,-5,4,2,-2,-1,-2,-10
1501932184026372,-23,-4,-5,-14,-6,-3,-4,29
1501932184027302,-14,-1,1,2,1,1,6,4
1501932184027302,21,3,-8,-5,-4,-6,-20,-15
1501932184048368,6,1,7,5,1,1,0,13
1501932184048368,0,4,-1,2,3,-1,13,-48
1501932184050335,-39,-11,-7,-1,-3,2,20,99
1501932184050335,-6,12,5,7,1,-1,-14,-104
1501932184063369,-6,-7,-3,-5,0,3,22,-22
1501932184063369,36,13,4,0,-2,-3,-3,-12
1501932184065342,8,-2,9,5,3,2,9,-42
1501932184065342,16,2,0,0,-4,-2,-5,25
1501932184086369,18,-3,3,-4,-1,0,6,-36
1501932184086369,-2,4,-4,-2,2,-1,-2,-7
1501932184087318,-30,5,-3,-10,-5,1,8,13
1501932184087318,33,-9,3,9,5,-1,-22,-9
1501932184108350,-22,1,-8,-5,-4,1,-6,28
1501932184108350,20,-8,-2,1,-1,0,21,-42
1501932184110305,61,25,11,4,4,-1,-7,-73
1501932184110305,-20,4,-11,-10,-5,-1,-4,49
1501932184123376,15,8,3,3,0,-3,-33,-58
1501932184123376,-3,6,-1,2,0,-3,-6,-8
1501932184125306,-3,-12,-3,-4,-4,-1,1,12
1501932184125306,12,6,1,1,2,0,6,15
1501932184146374,3,0,-2,0,0,2,27,4
1501932184146374,8,-4,-4,-1,-2,-1,7,41
1501932184147309,-15,-6,-10,-2,0,1,0,59
1501932184147309,-18,0,-4,-4,-3,0,23,4
1501932184168371,-23,-10,-1,-2,-3,-3,2,67
1501932184168371,-7,-10,-3,-1,-1,-4,-20,-29
1501932184170341,-6,-12,2,0,-2,-3,5,-18
1501932184170341,-9,-2,-13,1,-3,-4,-10,-10
1501932184183321,-15,-5,1,-14,-2,1,14,3
1501932184183321,0,10,1,3,-1,1,-1,-12
1501932184189373,-1,-1,4,0,0,0,-4,-7
1501932184189373,-5,-9,-4,2,-2,-5,-9,8
1501932184206360,-2,5,5,2,-3,-4,-20,-4
1501932184206360,40,-6,-2,-2,-2,1,-17,0
1501932184207312,17,-11,-10,-3,-1,-6,-26,-98
1501932184207312,0,-19,-3,-6,-3,-5,6,-12
1501932184228382,15,18,3,4,-1,2,8,-17
1501932184228382,-17,-3,3,-2,1,0,1,1
1501932184230345,-6,-3,-7,-4,-5,-7,-16,-36
1501932184230345,5,1,5,-1,1,-1,0,28
1501932184243331,-17,-10,-2,2,2,2,2,-10
1501932184243331,-5,6,4,2,-2,-4,-30,-7
1501932184249376,11,9,6,2,1,8,53,29
1501932184249376,8,-7,-2,-2,0,-5,-12,-20
1501932184266381,0,1,0,2,3,-1,-28,26
1501932184266381,-24,6,0,3,3,5,27,33
1501932184267315,-1,-5,-10,-7,-6,-2,-14,17
1501932184267315,-3,2,7,2,0,2,-4,16
1501932184288362,8,-1,-2,-4,-3,-5,-20,-38
1501932184288362,25,-5,5,3,2,4,23,34
1501932184290317,-40,-3,6,-2,-3,-4,-23,-55
1501932184290317,16,-3,-8,-7,0,2,14,-11
1501932184302381,-11,-6,-10,-3,-2,-1,17,12
1501932184302381,4,1,4,2,-2,0,24,25
1501932184309354,-31,-1,-3,-4,-2,0,9,21
1501932184309354,-33,5,5,3,0,-3,-5,64
1501932184326359,4,-15,-8,-1,4,5,17,29
1501932184326359,-14,-12,-10,-5,-2,-4,-11,7
1501932184327319,32,-4,3,1,-2,0,-2,-69
1501932184327319,-35,0,-2,-2,-4,-3,-19,-18
1501932184348367,7,2,9,7,2,0,-1,24
1501932184348367,1,6,-1,2,0,-2,-10,-17
1501932184350332,8,-13,-21,-13,-4,-2,-5,41
1501932184350332,13,10,4,0,-3,-4,-8,-53
1501932184363338,-10,-14,0,-3,-3,-3,-2,-21
1501932184363338,3,2,-3,-3,-1,-1,-4,-11
1501932184369386,-1,6,5,4,-1,1,-6,33
1501932184369386,16,8,11,3,-2,0,26,-55
1501932184386389,2,-4,-19,-4,0,4,25,14
1501932184386389,-10,2,6,-3,-2,-1,-14,-3
1501932184387324,-16,-1,-3,1,1,2,6,20
1501932184387324,6,4,-3,-2,-3,-2,15,-11
1501932184408361,-2,4,15,7,3,3,3,38
1501932184408361,1,7,-4,-3,-2,1,-11,31
1501932184410322,-15,0,6,5,0,2,61,5
1501932184410322,6,-5,6,2,3,4,-4,-15
1501932184423343,-17,0,-11,-1,-3,-1,27,7
1501932184423343,-33,4,-1,-3,2,2,-26,-33
1501932184429383,34,7,4,1,-2,-6,-65,0
1501932184429383,-27,-16,0,0,-1,-3,-20,1
1501932184446329,4,12,8,11,6,12,75,-4
1501932184446329,-4,-7,-25,6,-2,-8,-16,-19
1501932184447339,0,-6,-10,-41,-12,-1,1,-40
1501932184447339,-22,-6,-1,1,1,1,45,-45
1501932184468367,0,-5,2,-8,-6,-15,-111,-53
1501932184468367,32,-1,2,22,1,-2,29,-7
1501932184470337,-4,2,-3,-10,1,0,-10,12
1501932184470337,9,10,0,-17,-6,-3,3,54
1501932184483338,-3,-14,-3,7,-2,-2,-13,8
1501932184483338,4,-3,0,-2,4,0,0,-30
1501932184489387,-11,2,7,26,4,2,17,11
1501932184489387,15,2,-1,4,-7,-3,-20,4
1501932184506376,17,4,-6,-49,-8,-8,25,17
1501932184506376,-10,-5,10,23,6,10,44,13
1501932184507332,22,-8,-7,-25,-4,-7,-28,-23
1501932184507332,6,-1,-1,16,1,-2,-9,-7
1501932184528370,0,-4,-4,4,-2,-4,9,-13
1501932184528370,-7,9,-2,-3,0,-2,-55,-19
1501932184530330,13,-2,6,5,2,0,8,-21
1501932184530330,-39,-12,-8,4,1,-4,10,8
1501932184542369,51,9,2,2,-4,-2,-16,-18
1501932184542369,6,3,3,-14,-5,0,6,-11
1501932184551331,-11,-6,4,39,5,-4,-8,25
1501932184551331,5,-6,-5,-47,-6,-1,-23,12
1501932184566397,-13,-3,-1,6,0,4,-1,-24
1501932184566397,-5,4,-3,-13,-4,1,40,31
1501932184567332,-6,5,-1,-6,2,-4,9,0
1501932184567332,20,3,6,37,5,4,44,9
1501932184588372,-32,-8,-10,2,-2,-4,1,-7
1501932184588372,6,-9,0,-14,-6,-6,12,6
1501932184590334,-9,7,-5,0,-4,6,-11,-18
1501932184590334,4,10,-10,-7,3,1,13,0
1501932184602391,8,-2,14,-9,-3,2,-25,10
1501932184602391,-2,-14,-11,12,-3,-5,11,-12
1501932184611334,14,10,2,-6,0,5,-36,-41
1501932184611334,-7,-7,8,30,8,1,-19,14
1501932184626380,15,-1,-1,12,-7,-6,-6,-12
1501932184626380,1,-5,-9,-50,-18,-11,-29,10
1501932184627336,-32,-2,-1,-2,-3,-2,53,81
1501932184627336,25,1,0,-9,-2,1,1,17
1501932184648375,-13,8,3,21,9,1,-13,3
1501932184648375,-8,-6,-2,0,2,-1,-22,11
1501932184650348,3,-1,1,-2,1,-2,-9,16
1501932184650348,-22,-12,-3,14,-2,-5,-9,-13
1501932184662377,-27,10,-9,-38,-4,-3,-38,16
1501932184662377,-6,-8,1,-4,-1,2,26,5
1501932184671347,-19,-2,-8,0,-1,-5,4,-20
1501932184671347,7,1,4,10,0,3,-23,24
1501932184686380,-16,-2,-2,-1,1,-3,5,0
1501932184686380,-16,5,2,1,-1,0,-33,-5
1501932184687351,25,-7,4,10,5,3,10,14
1501932184687351,-5,4,4,14,0,1,-10,-20
1501932184708354,-7,-3,-10,-17,-3,-1,15,25
1501932184708354,8,9,-2,38,4,0,-5,-21
1501932184710342,-17,-7,-1,-44,-9,-3,-10,21
1501932184710342,-17,2,-6,-23,-2,4,1,-1
1501932184722408,49,-5,0,9,2,1,27,-6
1501932184722408,6,6,4,4,2,-2,-15,5
1501932184731357,19,-11,-4,13,2,0,12,-32
1501932184731357,-12,12,-1,6,-4,-4,-2,-1
1501932184746404,-5,-5,2,-11,-5,-6,-8,-14
1501932184746404,3,-2,3,-6,1,1,12,0
1501932184747344,4,7,5,32,3,-2,-3,14
1501932184747344,-3,-8,-18,-65,-10,-6,-8,-5
1501932184768386,-23,-13,2,27,4,0,-26,-27
1501932184768386,10,-2,-4,-18,-3,-1,18,44
1501932184770343,8,11,9,4,1,3,-23,-57
1501932184770343,-39,-4,4,7,2,2,2,-22
1501932184782404,5,12,-2,10,-2,-3,8,20
1501932184782404,1,-17,-1,-22,-4,2,17,8
1501932184791380,-19,-2,-4,-4,-2,-4,-7,42
1501932184791380,13,3,5,7,5,0,38,-4
1501932184806414,-14,1,-5,5,2,1,-6,-12
1501932184806414,-18,-4,-1,5,-5,-9,-9,8
1501932184807348,24,-4,2,-7,-4,-4,-9,27
1501932184807348,24,1,1,0,-5,-2,-18,-25
1501932184828411,-1,-5,-5,-1,-1,-4,-4,-4
1501932184828411,-8,-1,-2,6,2,-1,-9,-29
1501932184830347,-26,-7,-13,-8,0,-3,-5,-1
1501932184830347,9,-11,2,22,2,1,7,-1
1501932184842411,24,6,8,-30,-4,1,1,-28
1501932184842411,9,-8,-4,9,2,-6,-13,-5
1501932184851348,-8,2,3,8,-5,-3,20,28
1501932184851348,-12,-9,-11,-7,-1,0,-7,-19
1501932184866417,-3,5,3,11,2,4,12,39
1501932184866417,-1,3,10,-10,2,5,-23,5
1501932184867351,-5,-3,0,1,-1,-1,10,-17
1501932184867351,-2,4,2,1,-1,-4,2,-21
1501932184888393,0,-7,-7,-3,-2,-1,-35,-16
1501932184888393,-3,7,-1,16,3,4,18,2
1501932184890351,4,-7,3,-5,-5,-2,-8,4
1501932184890351,-7,-2,-10,-43,-9,2,10,75
1501932184902414,-11,4,11,-1,0,-2,0,-21
1501932184902414,34,4,-7,10,-1,0,-1,-11
1501932184911361,0,2,-5,-3,-1,-2,-8,6
1501932184911361,-2,2,9,14,1,-1,-11,3
1501932184926361,2,-14,-9,-1,-3,-7,2,25
1501932184926361,-11,6,-1,1,3,4,8,15
1501932184927362,-1,-1,-6,-17,-3,0,23,-4
1501932184927362,3,4,1,-4,-3,-3,-23,3
1501932184948394,-1,5,1,21,2,1,20,2
1501932184948394,6,-6,-4,-34,-3,-1,-11,-32
1501932184950366,-10,-2,4,8,1,0,2,-7
1501932184950366,-17,1,-5,-1,-4,-1,-21,20
1501932184971380,-5,-14,-6,1,1,4,31,20
1501932184971380,30,9,2,14,2,-6,-8,-10
1501932184972364,-14,2,-3,-21,-4,1,-4,-6
1501932184972364,9,-5,2,11,7,4,14,0
1501932184986373,-26,3,-7,-10,-4,-3,5,7
1501932184986373,12,-5,6,-1,-4,0,21,10
1501932184987358,-46,0,-9,4,1,-2,-8,-1
1501932184987358,47,-6,0,16,0,0,-8,-3
1501932185008398,-3,-1,3,2,0,-3,-31,-3
1501932185008398,-16,-7,-3,-14,-7,-3,0,16
1501932185010358,16,12,7,15,5,-3,-10,-26
1501932185010358,-6,-3,-11,-6,-2,2,-12,-9
1501932185031372,-22,4,5,-14,-8,0,11,58
1501932185031372,-6,3,-7,1,-2,-4,-15,-42
1501932185032361,14,-17,-1,1,0,-2,-10,16
1501932185032361,3,-1,-2,-2,-1,-1,12,-16
1501932185045404,0,0,4,3,2,1,-3,-17
1501932185045404,-9,-1,2,10,3,7,-5,19
1501932185053371,-2,4,-2,-6,-2,-2,23,17
1501932185053371,-33,3,-2,20,3,-5,1,-51
1501932185068427,-4,-9,-7,-34,-9,-3,19,-17
1501932185068427,-9,1,1,-2,0,-5,-10,7
1501932185070362,23,-5,-8,12,0,0,-7,-3
1501932185070362,10,3,9,-13,-3,0,14,25
1501932185091378,0,0,-6,10,-1,-4,5,-3
1501932185091378,-9,2,1,1,-3,-2,1,3
1501932185092364,-23,-19,-6,-6,-5,0,-17,-40
1501932185092364,-10,8,2,3,2,0,-4,-26
1501932185106373,26,-7,4,27,4,2,2,-7
1501932185106373,21,-6,-6,-39,-3,-3,6,18
1501932185107364,-7,-4,-11,10,-3,0,8,9
1501932185107364,3,-1,-2,-14,-4,-8,-17,-6
1501932185128425,3,6,3,3,3,1,-2,-11
1501932185128425,-14,3,9,21,5,4,-2,-17
1501932185130375,5,-5,-2,-10,2,-1,-1,-3
1501932185130375,7,-4,-15,-12,-4,-1,6,11
1501932185151380,-17,15,0,17,-2,-4,-12,0
1501932185151380,-2,-11,-1,-17,-5,-5,-3,8
1501932185152368,11,8,3,7,3,4,9,11
1501932185152368,4,-5,3,-19,-4,0,22,21
1501932185165371,11,-17,-9,18,-7,-5,4,3
1501932185165371,-6,5,-1,-35,-7,-3,-5,-2
1501932185172431,6,-1,1,18,2,3,-7,30
1501932185172431,39,13,9,0,1,1,14,-15
1501932185188408,-1,5,-7,-10,2,-1,-19,-14
1501932185188408,-7,-8,-4,44,4,-3,6,-16
1501932185190369,-17,7,11,-20,-6,-6,-10,3
1501932185190369,-32,-20,-21,-2,-5,-3,0,24
1501932185211379,13,-2,0,-30,1,2,11,15
1501932185211379,-12,-4,1,0,0,2,-2,-17
1501932185212379,7,14,9,42,7,1,-3,-17
1501932185212379,-34,4,5,-18,-3,0,-11,4
1501932185225407,-15,-12,1,5,-3,-2,17,0
1501932185225407,-6,-4,-11,-21,-9,-4,3,-1
1501932185232409,4,9,-2,23,6,3,-2,1
1501932185232409,11,-14,-2,-47,-11,-2,3,6
1501932185248386,-5,6,0,-6,-4,5,18,-14
1501932185248386,-4,-3,-2,11,4,1,0,16
1501932185250404,11,-8,-14,-13,-5,-4,13,-13
1501932185250404,32,-4,11,27,6,2,-7,12
1501932185271377,-28,13,-5,-3,1,-2,-25,-30
1501932185271377,8,-8,6,0,-1,1,3,10
1501932185272384,-9,-4,-3,-5,-3,-3,-3,-12
1501932185272384,13,-1,4,24,5,1,-2,22
1501932185285414,25,3,-9,-27,-5,-7,-43,-22
1501932185285414,-5,4,2,36,1,-2,0,-34
1501932185292412,6,-5,-7,-46,-10,1,13,14
1501932185292412,-15,-1,3,-5,0,1,-4,0
1501932185308393,8,-4,-8,4,1,0,21,5
1501932185308393,-7,8,2,4,1,-1,-12,-11
1501932185310377,6,-9,-4,-6,-1,-2,-6,0
1501932185310377,1,5,-1,5,-2,-1,-8,-10
1501932185331396,4,-7,8,10,2,2,6,40
1501932185331396,5,-4,-6,13,5,2,16,14
1501932185332396,-15,-1,10,-27,-1,-2,-8,-16
1501932185332396,-8,-1,-3,21,-1,-4,-1,-2
1501932185345417,1,-2,1,-30,-1,-1,1,-28
1501932185345417,10,4,5,39,3,2,6,0
1501932185352419,-39,-1,-5,-28,-10,-1,3,15
1501932185352419,-8,-9,-7,12,0,-5,4,-7
1501932185368448,4,6,-1,-13,0,-2,-6,9
1501932185368448,-9,-5,-1,-6,0,-2,-12,-26
1501932185370382,31,-5,-3,12,-2,-2,-11,-24
1501932185370382,-8,5,6,2,3,3,26,13
1501932185391390,20,-2,9,29,2,1,0,6
1501932185391390,1,5,-16,-30,-7,-3,1,13
1501932185392380,0,1,7,1,0,2,-3,-2
1501932185392380,-17,-15,-11,-7,-5,-7,-9,-20
1501932185405424,-12,2,4,9,0,-1,-39,12
1501932185405424,-11,-9,0,-14,-3,1,48,12
1501932185412417,57,10,8,18,2,-2,-16,-17
1501932185412417,10,9,3,6,0,-3,-22,-11
1501932185428446,-13,-10,-11,-17,-10,-1,-5,-11
1501932185428446,0,2,0,-6,-7,-5,-18,-31
1501932185430384,-5,-1,1,-1,3,-1,12,9
1501932185430384,8,3,-6,7,0,-1,-6,-3
1501932185451395,-5,-5,2,25,8,4,19,34
1501932185451395,-2,7,2,-14,2,3,-4,0
1501932185452384,-20,-3,-2,5,-7,-4,8,-4
1501932185452384,22,0,-2,-11,-2,-2,-20,-6
1501932185464424,-7,0,0,14,3,-3,14,2
1501932185464424,-28,6,6,7,-1,1,11,7
1501932185473427,35,-7,-5,-3,2,-1,4,1
1501932185473427,-8,3,-10,-15,1,3,-5,-12
1501932185488450,-3,3,0,8,-2,-2,8,-10
1501932185488450,7,3,6,28,3,0,-9,17
1501932185490385,-23,-10,-6,-22,-7,-3,-5,3
1501932185490385,1,-3,-3,-2,-3,0,12,19
1501932185511400,-1,7,1,-27,-10,-3,-20,-25
1501932185511400,7,-9,-8,-11,-3,-4,14,0
1501932185512388,-10,-1,-1,10,2,0,3,12
1501932185512388,-1,-2,1,22,4,-3,-10,-10
1501932185524448,-8,-7,-4,-11,-3,2,18,2
1501932185524448,7,-5,-4,-15,-5,-3,-12,13
1501932185533427,-7,2,1,11,0,-1,-4,1
1501932185533427,5,1,0,-8,-5,0,-5,24
1501932185548430,-13,-1,4,7,4,0,1,-26
1501932185548430,15,-4,-9,-3,-2,0,1,1
1501932185550388,-18,-6,-3,-4,4,1,4,1
1501932185550388,-2,5,0,-12,-7,-3,-6,-10
1501932185571407,-5,-1,0,0,-1,-1,2,33
1501932185571407,6,-5,9,0,1,-2,-9,-3
1501932185572391,-16,3,-8,5,-1,-2,-8,-5
1501932185572391,-1,-5,-2,-4,-1,-4,-4,-11
1501932185584461,3,4,2,7,2,0,5,5
1501932185584461,-40,-7,4,14,1,-2,-27,27
1501932185593428,26,12,-6,-14,-3,0,17,-7
1501932185593428,-10,-17,-2,-18,0,0,-2,10
1501932185608437,25,3,4,22,-1,0,43,19
1501932185608437,2,6,-15,-20,-3,-3,-14,-21
1501932185610394,-9,-7,-3,-1,0,-3,-1,3
1501932185610394,-12,-1,3,33,9,2,-6,-10
1501932185631409,4,-1,-6,-29,-8,-2,-10,-5
1501932185631409,-17,1,3,-25,-10,-1,4,-8
1501932185632395,-4,0,4,9,4,-1,-2,6
1501932185632395,11,10,-3,-11,0,1,11,0
1501932185644461,-9,-13,2,38,2,-2,-15,-6
1501932185644461,14,0,-6,-32,-4,-4,-8,0
1501932185653423,0,7,-1,-6,-5,-4,-14,-12
1501932185653423,-23,0,4,10,0,-3,-13,-28
1501932185669407,9,3,3,21,7,2,-18,-9
1501932185669407,-3,-4,-6,-29,-8,0,-11,21
1501932185670395,1,-2,9,-4,-3,0,10,-2
1501932185670395,-17,-2,-2,-10,0,-4,-16,-1
1501932185691397,57,13,3,-5,1,2,16,11
1501932185691397,-7,-18,-2,19,1,-4,5,-8
1501932185692397,-12,-6,-1,4,1,-1,-17,-7
1501932185692397,8,11,10,28,-1,2,13,11
1501932185704470,-10,-6,-6,-63,-7,-4,-36,-29
1501932185704470,20,3,0,21,2,-3,-1,13
1501932185713400,-12,-2,3,-1,-2,-1,7,7
1501932185713400,-5,4,-4,12,3,4,25,-8
1501932185728468,-20,-7,-2,-10,-1,-5,-3,9
1501932185728468,-24,8,0,-8,1,2,-18,-26
1501932185730399,12,-5,-1,15,3,3,6,30
1501932185730399,-3,-7,-1,-25,-2,-1,0,-1
1501932185751412,-15,-7,-3,3,-5,-2,14,-1
1501932185751412,-35,1,-2,27,2,-2,7,-1
1501932185752413,7,-1,5,-26,0,2,-8,-8
1501932185752413,5,-7,-18,-20,-6,-8,-8,14
1501932185764460,5,-3,-1,9,2,1,-5,-17
1501932185764460,-2,2,9,-2,0,2,6,-18
1501932185773441,6,5,-9,4,-1,-3,-6,-6
1501932185773441,11,-8,2,2,-1,1,-5,8
1501932185788467,-21,-2,-3,12,1,-2,22,1
1501932185788467,-10,-12,-4,-12,0,6,31,12
1501932185790403,10,15,12,4,3,4,9,16
1501932185790403,-14,-6,-6,-24,-12,-4,-11,-24
1501932185811404,-13,3,-4,14,3,3,-11,7
1501932185811404,13,-1,0,13,4,0,15,-4
1501932185812415,3,-2,-2,-15,-5,-3,11,-25
1501932185812415,1,-6,6,24,-2,-3,18,5
1501932185824471,31,-13,-15,-29,-2,-1,-1,16
1501932185824471,23,6,5,12,4,-1,-9,-16
1501932185833442,-11,2,-4,-15,0,-3,-11,1
1501932185833442,3,-1,-1,6,-1,-1,-9,-4
1501932185848478,-17,-6,-5,-5,-3,-3,-3,-14
1501932185848478,6,3,2,-7,-3,-4,-5,12
1501932185850408,12,-4,0,19,5,0,-7,-3
1501932185850408,-35,-3,-1,2,2,-3,-19,4
1501932185871429,7,-1,10,-2,-3,6,34,-4
1501932185871429,-9,2,0,12,-2,-2,-20,-4
1501932185872418,-16,-6,-13,14,1,-2,9,-8
1501932185872418,11,-2,-4,-35,-10,-5,5,2
1501932185884474,-10,19,7,-7,-3,-1,-19,3
1501932185884474,-9,-9,-7,-24,-4,-4,-6,-4
1501932185893427,12,-14,-2,18,-4,-2,15,15
1501932185893427,12,6,-3,5,3,-2,-17,-37
1501932185908479,30,1,-1,-3,1,-2,0,-1
1501932185908479,11,8,0,11,-1,0,-4,6
1501932185910418,2,-1,-1,-11,-8,-3,-9,-16
1501932185910418,8,-4,2,-6,0,5,2,-26
1501932185931422,-23,-3,3,0,-1,-1,-7,12
1501932185931422,19,-5,-10,6,1,-3,4,-13
1501932185932410,9,-8,-2,5,2,-2,-4,13
1501932185932410,-4,8,3,6,3,3,12,8
1501932185953454,-8,-2,-1,0,-2,0,15,-18
1501932185953454,-2,3,4,-1,0,-1,-3,4
1501932185955415,-14,-2,-4,-16,-5,-5,-8,3
1501932185955415,2,0,4,9,2,3,8,15
1501932185968477,-10,-2,3,5,3,-1,-43,-6
1501932185968477,4,1,-5,20,5,2,35,19
1501932185970422,31,4,4,-40,-4,-2,-15,-11
1501932185970422,-9,-5,0,10,-3,-7,5,11
1501932185991433,-7,-1,-7,-13,-5,-2,3,7
1501932185991433,3,-2,-1,-8,-3,-2,-11,6
1501932185992418,-6,2,5,46,6,3,-4,-13
1501932185992418,-5,11,0,-35,-2,3,10,13
1501932186013481,21,-6,-6,-3,-3,-3,-10,-7
1501932186013481,-4,-9,-8,1,-1,-2,-11,-2
1501932186015448,-20,0,-1,-9,-3,0,10,9
1501932186015448,0,-5,-1,16,4,-1,-4,3
1501932186028456,-11,2,4,12,3,-1,6,1
1501932186028456,-46,5,1,-13,-1,1,-1,-7
1501932186030419,27,4,-1,5,-2,-3,-9,19
1501932186030419,23,-7,2,3,-4,1,3,-6
1501932186051429,-11,8,-8,0,0,0,-6,-4
1501932186051429,0,-11,3,-6,0,-3,-3,-8
1501932186052417,-33,5,-2,11,-5,-4,0,0
1501932186052417,3,-5,-4,-6,1,3,10,-4
1501932186073489,4,3,-12,-2,0,-2,2,-1
1501932186073489,14,1,-2,-10,-1,1,-1,-3
1501932186075431,-8,2,4,6,2,1,7,-8
1501932186075431,0,-2,-3,-6,-1,-1,-13,5
1501932186087481,-5,1,7,12,0,2,1,3
1501932186087481,1,6,1,1,5,2,-2,-32
1501932186094489,9,6,0,6,4,2,-8,0
1501932186094489,-9,-16,2,-1,-1,0,-4,7
1501932186111438,-2,-9,-1,-6,-8,-6,12,-3
1501932186111438,-47,-5,-7,-14,-5,-3,-5,12
1501932186112422,-9,-8,0,-9,-1,-3,-5,-6
1501932186112422,1,1,0,19,5,-1,-15,0
1501932186133462,23,-1,5,2,-2,-4,2,6
1501932186133462,16,-7,10,16,2,1,-23,-2
1501932186135422,-2,-4,-12,-12,-3,1,13,-20
1501932186135422,-6,15,3,-22,-5,0,2,10
1501932186147466,18,-9,-4,-2,1,-3,-8,-10
1501932186147466,30,2,-4,0,-6,-3,2,3
1501932186154489,-7,-13,-2,2,1,0,-1,6
1501932186154489,11,2,1,0,-5,-3,2,-2
1501932186171442,-4,-2,-3,-13,-2,0,-6,-5
1501932186171442,7,3,-3,3,2,0,6,20
1501932186172427,11,-1,1,20,4,1,-1,1
1501932186172427,-4,7,1,-29,-10,-1,5,3
1501932186193459,-19,-8,-13,5,-2,0,1,7
1501932186193459,0,2,1,5,-2,-4,-14,-23
1501932186195427,3,-5,-1,-3,-4,-2,-14,-10
1501932186195427,-7,-5,-1,5,-1,-3,5,21
1501932186207469,7,8,9,5,6,2,0,-6
1501932186207469,9,2,-2,-1,-4,1,10,15
1501932186216428,-15,1,-4,-12,-4,-2,-10,1
1501932186216428,-10,-8,-3,11,2,-4,-12,-7
1501932186231444,17,-3,-2,5,0,0,2,10
1501932186231444,-7,-6,-8,-19,-10,-4,-15,-12
1501932186232431,-10,8,2,0,2,-1,8,-5
1501932186232431,-12,0,-3,-1,3,0,-15,-11
1501932186253463,8,4,1,16,1,1,20,6
1501932186253463,-2,1,-9,-7,1,0,6,7
1501932186255467,-1,-1,-2,-3,0,-1,-7,-26
1501932186255467,-21,0,4,12,10,1,-1,-8
1501932186267472,-50,-6,-5,-31,-13,-5,-6,-5
1501932186267472,40,5,1,5,1,0,18,28
1501932186274476,5,1,6,-1,0,-1,0,-7
1501932186274476,5,10,-3,0,3,0,-5,-7
1501932186291444,-8,-8,5,16,3,-1,-9,-15
1501932186291444,-23,-6,1,-4,-1,-1,-2,2
1501932186292446,-21,0,-3,13,0,-4,-11,11
1501932186292446,6,-1,3,0,-7,-2,5,13
1501932186313474,2,-9,-11,-49,-5,1,-8,17
1501932186313474,12,-2,5,16,1,1,5,-10
1501932186315469,0,13,-3,-26,-5,0,8,1
1501932186315469,-9,-7,-6,3,-1,-3,-6,-2
1501932186327480,22,22,4,8,1,0,-7,3
1501932186327480,2,-2,7,-7,-2,-1,-18,-14
1501932186334507,2,-5,-6,9,2,4,16,7
1501932186334507,4,-9,-8,-8,-3,-3,-18,-21
1501932186351452,-16,5,6,16,5,4,16,4
1501932186351452,-21,-1,-8,-1,-1,-3,0,1
1501932186352438,-22,5,-3,-9,-8,-5,-4,7
1501932186352438,-10,-20,-5,-1,-4,0,6,-2
1501932186373503,17,-4,0,4,2,-3,-22,-12
1501932186373503,5,-4,3,6,-1,0,5,1
1501932186375436,-14,-8,-6,-9,-1,-2,0,3
1501932186375436,-4,14,-2,0,1,-3,7,1
1501932186387479,-8,-13,1,11,-3,-1,-1,-10
1501932186387479,-19,-1,-1,-9,-1,-2,2,10
1501932186394500,15,0,1,15,3,2,9,-1
1501932186394500,13,5,6,-2,0,0,2,-3
1501932186411448,-3,-2,-1,7,0,-2,1,11
1501932186411448,5,2,-5,-22,0,1,-6,-11
1501932186412450,4,-7,4,4,0,1,17,-7
1501932186412450,9,-5,-10,22,-4,-3,5,13
1501932186433489,-19,4,3,-39,-10,-3,-4,2
1501932186433489,5,-6,-9,-7,-3,-4,-1,-1
1501932186435451,-11,0,3,9,5,0,2,7
1501932186435451,6,-6,-2,6,3,2,-11,-11
1501932186447511,-19,0,-9,-9,-10,-3,5,-5
1501932186447511,15,-9,3,8,2,-1,-7,-13
1501932186456455,27,9,0,-15,-3,-3,-11,5
1501932186456455,-38,-5,0,4,-2,0,6,2
1501932186471471,20,0,-3,7,3,2,-2,1
1501932186471471,17,10,4,-3,1,4,2,-9
1501932186472452,-10,-4,0,11,2,0,1,8
1501932186472452,16,0,4,-6,-2,0,2,5
1501932186493516,-9,6,2,2,1,-3,-4,-4
1501932186493516,10,-1,-3,6,-2,0,10,-2
1501932186495445,-22,6,-3,1,0,1,0,15
1501932186495445,6,0,-4,-34,-8,1,3,5
1501932186507492,-7,-7,6,8,2,-2,-3,-23
1501932186507492,2,3,-1,1,-1,-2,0,8
1501932186516460,-6,-17,-8,4,-2,-4,-11,-12
1501932186516460,48,5,-2,-21,-2,-5,7,14
1501932186531463,-14,10,0,6,6,6,6,2
1501932186531463,-28,-17,2,12,-4,-1,-11,-15
1501932186532446,21,-1,1,-7,-13,-8,4,-3
1501932186532446,-6,-3,-5,3,-2,-2,-20,-13
1501932186553493,-8,-13,3,-1,3,2,16,9
1501932186553493,38,15,0,11,3,-1,-8,20
1501932186555446,-26,-4,-2,-12,-2,-3,0,-11
1501932186555446,19,-2,8,10,3,2,3,16
1501932186567517,-13,0,-11,-3,-1,-4,-10,-9
1501932186567517,-16,-6,7,-6,-3,0,7,14
1501932186576448,4,-2,-5,-2,-3,-2,-17,-8
1501932186576448,-12,1,-1,11,3,0,18,-7
1501932186591463,10,7,1,-12,-1,-3,-11,-8
1501932186591463,-4,-13,-2,-18,-8,-2,2,-4
1501932186592450,16,-3,-6,-14,-5,-1,3,4
1501932186592450,-12,0,0,6,0,-1,0,0
1501932186613508,-2,3,0,13,-2,-2,-19,-5
1501932186613508,30,1,0,0,-1,-5,-1,-1
1501932186615451,-9,5,2,-6,-1,-2,2,8
1501932186615451,-11,-3,3,25,5,4,5,1
1501932186627516,-14,-15,-11,-36,-7,-6,-1,3
1501932186627516,-11,5,-4,-8,-2,-1,3,-10
1501932186636451,-32,-5,2,3,5,1,10,9
1501932186636451,23,17,1,-2,2,3,-4,-8
1501932186651476,40,3,4,22,3,1,12,-5
1501932186651476,-21,-17,-5,-23,-8,-3,0,-12
1501932186652462,0,6,0,2,2,3,6,-1
1501932186652462,-8,-10,-2,-6,-3,-2,13,-18
1501932186673525,3,10,3,13,3,-1,-14,16
1501932186673525,8,4,0,6,4,-1,6,-9
1501932186675453,5,3,5,-1,-7,-4,-9,10
1501932186675453,-8,5,-7,-10,-2,0,-6,-18
1501932186687527,1,-8,-6,-3,-2,-2,2,-2
1501932186687527,-15,7,-3,10,-1,-2,-4,-13
1501932186696463,10,-5,7,2,4,1,-1,2
1501932186696463,-6,0,-5,-6,-4,-3,-14,-21
1501932186711480,10,-5,0,4,-2,0,2,16
1501932186711480,-25,-1,1,-3,-2,-1,1,14
1501932186712466,3,0,-4,-6,0,-2,-4,-8
1501932186712466,26,6,4,1,0,-2,-11,5
1501932186733501,-6,-3,1,19,5,4,8,9
1501932186733501,-1,1,-7,-26,-7,-2,-7,-2
1501932186735474,3,-6,-4,-22,0,0,-6,-5
1501932186735474,-4,-3,-2,11,-3,-3,-3,0
1501932186747523,5,7,-4,-14,-7,-5,-3,-8
1501932186747523,5,-9,8,15,4,2,4,12
1501932186756467,-4,8,-4,0,-2,-4,-21,-30
1501932186756467,-6,1,-1,18,1,-4,2,12
1501932186771478,9,-3,0,-16,-4,-2,-13,-11
1501932186771478,-5,1,-5,-17,-1,-1,-1,3
1501932186772480,0,-2,-2,1,-2,0,1,-1
1501932186772480,-12,-1,2,-7,-2,-2,-3,-1
1501932186793530,3,7,1,8,0,2,1,-2
1501932186793530,-8,-6,-1,5,0,-1,-2,-1
1501932186795461,-12,-5,-2,5,-1,-1,8,-1
1501932186795461,-47,3,1,-9,-2,1,7,-7
1501932186807487,34,-6,-4,-7,-1,-5,5,13
1501932186807487,3,5,-2,10,0,-1,4,-7
1501932186816465,3,-13,-1,3,0,0,-3,16
1501932186816465,-4,2,-6,14,0,-3,-17,-5
1501932186831484,-6,0,5,-42,-10,-3,-5,-14
1501932186831484,-33,2,3,14,3,-2,0,20
1501932186832472,14,-3,-4,22,1,-2,7,11
1501932186832472,10,6,-7,-45,-12,-4,-6,-6
1501932186853532,-23,-13,3,14,4,2,1,-10
1501932186853532,41,6,0,1,2,1,-3,-3
1501932186855467,-6,4,2,5,1,0,4,-3
1501932186855467,-3,-9,1,3,1,-2,-10,4
1501932186876486,10,0,-7,2,-2,-3,-6,5
1501932186876486,-21,-2,-1,21,0,0,10,-15
1501932186877467,2,-10,-6,-43,-9,-2,-3,-5
1501932186877467,14,3,1,-3,0,2,8,5
1501932186891489,3,8,-5,3,0,-1,-8,4
1501932186891489,-37,-22,-9,-4,-3,-7,-21,-16
1501932186892466,-7,4,5,8,2,2,-1,-7
1501932186892466,54,2,6,-4,-1,2,9,7
1501932186913538,-8,-5,1,7,3,3,7,13
1501932186913538,11,2,-1,-4,2,-2,5,-4
1501932186915468,-8,-2,0,0,-1,-1,4,-6
1501932186915468,-5,3,5,20,3,-3,-2,-6
1501932186936490,-10,5,1,-10,-1,0,0,-23
1501932186936490,-4,-4,-5,-37,-9,1,2,9
1501932186937470,36,1,4,-3,-2,0,-3,3
1501932186937470,-2,2,-1,3,-1,-2,1,3
1501932186951487,-5,3,-7,9,0,-1,1,-2
1501932186951487,-17,-4,-1,6,1,2,5,-7
1501932186952482,2,3,4,3,-1,-2,-16,6
1501932186952482,-9,-14,-7,-11,0,-2,-2,-13
1501932186973483,7,-1,0,3,-1,0,11,-1
1501932186973483,11,-2,3,-8,-5,-1,-12,-3
1501932186975473,-14,-8,-7,27,5,0,-10,-2
1501932186975473,-2,6,-1,-23,-4,-2,1,6
1501932186995538,2,-8,-5,-6,-3,-2,12,-10
1501932186995538,6,14,7,11,-2,-2,-1,12
1501932186997472,-9,-8,0,1,0,0,7,14
1501932186997472,-23,1,-1,4,2,3,1,-6
1501932187010510,-2,0,-3,-6,-3,-2,-5,-1
1501932187010510,4,-1,-1,0,2,2,3,4
1501932187017542,11,10,-5,-3,-4,-1,11,19
1501932187017542,-23,-7,6,11,2,1,-9,-15
1501932187033516,-6,-6,-3,4,1,-3,-13,-8
1501932187033516,3,-1,-4,-8,-6,-1,0,10
1501932187035481,-1,1,-3,-6,-2,-1,1,-1
1501932187035481,25,0,-5,6,-2,-1,3,10
1501932187056497,-5,-1,1,-11,-6,-1,-3,-3
1501932187056497,5,5,2,4,4,5,10,-15
1501932187057476,3,-4,-6,-13,-3,1,8,13
1501932187057476,-14,0,5,8,0,1,12,-4
1501932187070518,2,-1,-4,7,-1,-2,-4,3
1501932187070518,1,6,2,22,2,0,-1,-5
1501932187077516,-1,-10,-1,-36,-7,-4,-9,-14
1501932187077516,-7,-2,-2,-1,0,-4,-1,3
1501932187093554,-36,-4,-2,0,0,-2,12,14
1501932187093554,7,2,-5,-4,-2,-2,-15,-22
1501932187095505,-12,16,4,10,2,0,-4,-26
1501932187095505,-4,-14,-12,-9,-3,-2,-6,4
1501932187115518,11,3,4,-2,-1,-3,-4,-1
1501932187115518,-2,-1,0,4,1,0,0,16
1501932187117535,-9,-18,-1,9,0,-1,7,-9
1501932187117535,4,15,-1,-13,-3,2,13,0
1501932187130531,0,-8,-1,18,6,0,-6,1
1501932187130531,1,-6,1,-9,0,-1,7,11
1501932187137523,-1,0,-1,2,-5,-2,-9,4
1501932187137523,7,-9,-2,17,0,0,4,-1
1501932187153523,-1,-4,-4,-40,-10,-4,-3,-4
1501932187153523,4,6,4,8,1,0,0,1
1501932187155517,-23,0,-2,1,-1,0,-3,-15
1501932187155517,53,-2,0,0,-2,-1,-9,4
1501932187176520,-18,10,4,13,1,3,3,-1
1501932187176520,0,0,-14,-12,-1,-2,-2,4
1501932187177484,21,-7,-1,19,2,-3,0,-7
1501932187177484,-12,-3,-5,-28,-3,-2,6,9
1501932187190515,-23,-5,5,7,0,-3,-17,-17
1501932187190515,4,6,-2,-3,-1,-1,3,-2
1501932187197531,-8,3,0,-5,-3,0,-1,0
1501932187197531,-8,-9,-2,7,3,-1,-4,1
1501932187213554,18,-3,-7,-6,-2,-2,1,0
1501932187213554,-11,-2,1,-1,0,-3,-1,3
1501932187215520,13,7,2,22,0,-1,-10,18
1501932187215520,-13,-5,-3,-22,-5,-6,-29,-7
1501932187236519,0,-3,2,-5,-2,6,16,3
1501932187236519,20,-1,-5,6,-3,-4,-4,-8
1501932187237496,10,-8,-3,-13,0,0,-5,-9
1501932187237496,-17,0,3,6,-4,-5,-4,8
1501932187250532,22,-10,-4,7,1,1,4,17
1501932187250532,17,-12,-9,-3,-1,-5,-1,-10
1501932187257519,-4,7,1,-8,-1,-2,-9,-18
1501932187257519,-12,6,0,0,-2,-1,9,-4
1501932187273526,17,3,2,9,1,0,1,-10
1501932187273526,-12,-17,-3,-2,-3,0,5,10
1501932187275492,-4,0,-2,-4,-2,-4,-1,11
1501932187275492,-1,-1,-2,1,1,-1,16,-12
1501932187296513,-1,5,2,10,1,-2,-1,8
1501932187296513,-1,11,8,-8,2,2,-9,-9
1501932187297492,-3,2,-7,-8,-5,0,2,0
1501932187297492,0,0,0,0,-2,-1,-2,-12
1501932187310558,-21,7,0,1,1,0,-9,-32
1501932187310558,-19,-9,-2,5,-1,-2,3,4
1501932187317491,4,-3,2,-1,0,0,6,11
1501932187317491,13,2,-6,-2,-1,-3,-16,10
1501932187333563,-3,-7,-1,-3,0,-1,2,0
1501932187333563,-5,2,0,-3,-2,1,-2,-8
1501932187335528,-3,4,9,0,1,2,7,-5
1501932187335528,-25,-3,-3,3,-3,-3,-2,8
1501932187356516,33,8,1,1,0,0,8,11
1501932187356516,4,-3,-5,-5,-1,-3,-4,-6
1501932187357526,8,0,-2,18,3,2,-10,-13
1501932187357526,0,-14,0,-28,-6,-2,-1,-1
1501932187369556,-14,-9,-7,-4,-2,-4,-7,25
1501932187369556,-27,6,4,-7,-4,0,6,-18
1501932187379494,30,9,-1,1,2,1,8,4
1501932187379494,16,1,1,7,4,1,0,2
1501932187392534,-11,0,2,-3,-2,0,-8,-19
1501932187392534,5,-5,-10,-5,-2,-3,-6,11
1501932187393528,-11,-2,-2,-3,1,-8,-35,-10
1501932187393528,0,1,4,9,1,1,6,0
1501932187415540,8,6,7,20,2,0,3,-2
1501932187415540,2,5,-8,-43,-14,-3,3,1
1501932187416497,-10,-11,-5,-4,-1,0,1,-2
1501932187416497,-6,0,0,2,0,2,4,15
1501932187438562,-5,-9,-4,5,-1,-2,-11,-15
1501932187438562,12,-9,0,7,4,-2,-12,-2
1501932187439499,3,3,-2,-11,-4,0,23,-2
1501932187439499,6,4,0,0,-2,-3,1,-10
1501932187452538,-10,2,1,-3,-3,-3,-5,-15
1501932187452538,-3,5,-3,6,2,3,-2,-8
1501932187453512,-8,-6,-3,-8,-2,1,0,6
1501932187453512,-2,-6,0,12,4,2,3,-4
1501932187475533,11,5,-2,4,2,1,10,0
1501932187475533,-40,1,1,-15,-10,-1,7,-6
1501932187476501,-6,-2,-4,1,-1,-4,-9,4
1501932187476501,-29,5,0,-2,1,2,-6,-11
1501932187498564,1,-6,-3,-8,-5,-4,-36,13
1501932187498564,29,4,8,16,4,1,8,3
1501932187499502,-11,-5,-2,-4,-3,-1,3,3
1501932187499502,7,0,-2,3,-3,-2,3,2
1501932187512547,-12,5,1,-13,-1,-1,1,2
1501932187512547,4,-8,1,7,4,-1,-2,4
1501932187513539,-22,3,0,6,-1,-1,0,-6
1501932187513539,4,-6,-2,-10,2,0,-8,3
1501932187535515,-74,-16,-4,-3,-7,-3,7,9
1501932187535515,30,4,-3,2,0,0,-7,9
1501932187536505,6,0,2,0,0,-1,8,-1
1501932187536505,6,-2,-1,8,0,-1,-2,-6
1501932187557576,0,6,2,-2,1,1,8,2
1501932187557576,-7,-3,2,5,2,-1,-4,-2
1501932187558506,-1,-5,-3,0,-1,-1,0,1
1501932187558506,3,5,-2,-3,-4,-2,2,-3
1501932187572570,15,-2,-4,-8,-3,-4,-3,-1
1501932187572570,-2,0,2,3,-1,0,16,-2
1501932187573549,13,0,0,-1,3,2,-1,-10
1501932187573549,-5,1,2,-1,1,4,8,4
1501932187595553,5,2,-4,-7,-2,1,11,9
1501932187595553,1,-2,-1,4,0,-2,-10,-2
1501932187596508,-7,1,1,-2,-3,-4,-4,3
1501932187596508,1,-2,-1,-4,-3,-4,3,-2
1501932187617574,15,0,-2,0,1,-1,-6,1
1501932187617574,-1,1,1,4,0,-1,-4,2
1501932187618520,4,-2,-3,-3,-2,-3,-24,19
1501932187618520,5,2,-2,0,-2,0,3,13
1501932187632521,7,-1,-2,-2,0,-1,-6,-9
1501932187632521,-7,1,0,0,-1,-2,12,2
1501932187633528,-3,-2,-1,-3,0,0,3,-4
1501932187633528,-2,0,-1,2,-1,-1,0,4
1501932187655552,1,0,-1,-1,-2,-3,-8,-11
1501932187655552,-2,0,2,0,-2,-2,-11,-4
1501932187656511,-6,-2,-2,-1,-4,-3,-3,-3
1501932187656511,-2,3,0,-1,-2,-4,0,16
1501932187677553,8,-1,1,0,1,5,4,11
1501932187677553,4,-4,-3,0,-2,1,9,-47
1501932187678525,1,-1,2,0,1,6,28,-3
1501932187678525,-17,-3,-1,-3,-3,-4,-39,-53
