timestamp,emg1,emg2,emg3,emg4,emg5,emg6,emg7,emg8
1501926583422613,-7,-8,-13,-8,-8,-4,-39,-5
1501926583422613,-37,-2,-19,0,6,-12,7,-17
1501926583423544,-31,-15,-22,56,-5,-38,-103,-46
1501926583423544,-25,11,10,-51,7,35,90,30
1501926583424579,-71,2,21,-36,-9,5,10,-70
1501926583424579,-48,-11,-58,-102,-9,10,46,53
1501926583425549,-5,3,-2,45,1,-9,-59,-33
1501926583425549,-4,17,2,-30,-16,-21,-80,-23
1501926583428587,28,-18,31,81,5,-4,-35,32
1501926583428587,-9,6,25,-18,10,18,-16,-67
1501926583434586,-43,-1,-6,-2,-11,-23,-74,-35
1501926583434586,69,-3,-32,95,12,20,70,80
1501926583443558,-31,4,-27,-42,-21,-30,-47,-71
1501926583443558,65,7,18,69,19,13,69,56
1501926583451546,-46,16,-24,-33,-4,-5,-74,23
1501926583451546,19,-38,-7,-14,-17,4,55,-51
1501926583464611,-79,-31,-52,12,12,-2,49,-15
1501926583464611,85,0,25,5,-4,-4,-9,-85
1501926583480610,59,13,-12,-46,6,13,80,-2
1501926583480610,-12,6,0,-34,-12,-36,-74,-5
1501926583481547,27,6,-16,-11,-5,16,0,31
1501926583481547,-30,5,14,37,-1,-10,-122,-53
1501926583528551,-29,2,12,12,-2,-4,-41,-53
1501926583528551,-18,-10,-43,-75,-22,-2,66,-79
1501926583529569,6,-11,-25,15,6,-16,-44,-1
1501926583529569,-8,5,13,26,-4,10,60,3
1501926583529569,28,3,-6,-23,-6,29,94,-60
1501926583529569,-3,6,22,10,12,-10,-118,-2
1501926583533563,24,23,-33,22,-4,-1,78,-37
1501926583533563,-19,-1,-4,-23,-6,-9,-77,-57
1501926583539577,12,-14,17,23,-8,-8,9,81
1501926583539577,-22,-5,2,3,8,9,52,-45
1501926583548574,-51,18,7,-2,11,7,15,24
1501926583548574,66,5,20,-12,-4,-9,-24,-51
1501926583562596,-13,21,-7,22,-8,-9,-20,-8
1501926583562596,12,-20,-10,-16,-9,6,37,71
1501926583571553,17,1,21,6,8,-7,-111,1
1501926583571553,-11,-16,-31,-40,-23,-6,6,36
1501926583584621,-15,-1,-12,-28,-9,-7,-43,-27
1501926583584621,11,11,13,46,11,8,92,-16
1501926583609598,-9,-8,-7,-16,4,10,-19,-10
1501926583609598,-9,2,3,-7,3,-15,-39,60
1501926583610559,22,-34,-37,26,-17,-32,-85,78
1501926583610559,21,-8,-11,-14,-7,-10,-128,24
1501926583622619,-32,-14,-12,-82,-14,0,-8,19
1501926583622619,-6,-5,-18,2,-2,-15,-79,-23
1501926583623594,-4,10,6,-3,5,1,13,-11
1501926583623594,11,10,14,48,13,-25,-105,63
1501926583637580,-22,-23,9,7,-13,-5,-47,-54
1501926583637580,3,0,1,18,6,5,29,38
1501926583638561,4,13,-8,-54,7,6,4,-7
1501926583638561,-11,14,22,-9,-2,-5,-39,-8
1501926583660627,3,2,3,12,1,4,64,0
1501926583660627,-26,-1,9,29,6,12,56,-14
1501926583661562,22,4,15,15,0,-9,-26,16
1501926583661562,-18,3,0,-18,1,4,36,-59
1501926583674629,27,2,15,30,5,15,56,80
1501926583674629,7,-1,-6,-6,-2,18,35,-13
1501926583682621,-7,3,-6,-18,-6,-11,-48,-21
1501926583682621,-12,-11,0,26,5,-2,7,27
1501926583697601,29,-10,18,-8,0,-17,-82,2
1501926583697601,6,0,-9,-24,-5,-5,5,37
1501926583698607,-25,0,20,47,21,37,85,56
1501926583698607,2,8,-11,-37,-7,0,-4,-21
1501926583720614,-38,8,28,27,2,-16,-57,-43
1501926583720614,-8,-6,-5,-5,1,36,93,12
1501926583721577,-23,-5,5,14,2,-20,-121,24
1501926583721577,34,-7,-11,-7,0,13,102,27
1501926583734607,49,11,-4,-1,-3,4,57,-42
1501926583734607,-11,-1,-7,-30,-2,-15,-127,-37
1501926583742605,10,8,4,4,-1,2,62,-23
1501926583742605,13,9,-6,-1,-5,6,-1,-21
1501926583757626,1,-22,-15,-16,-3,-5,-30,91
1501926583757626,-18,7,34,31,2,-25,-76,-20
1501926583758603,34,-11,-18,-14,-12,-6,27,-70
1501926583758603,-6,-5,19,-33,0,2,6,6
1501926583780597,5,13,-3,13,-3,-4,-10,35
1501926583780597,-4,11,8,41,6,12,62,-31
1501926583781593,-26,1,13,-36,6,2,-25,8
1501926583781593,-18,-13,-21,-7,-9,-12,-70,-2
1501926583802601,-3,-11,-12,-2,-13,5,111,-60
1501926583802601,-14,-18,-5,26,-6,-11,-52,-23
1501926583803604,21,5,16,18,3,-13,-54,-38
1501926583803604,-46,11,-34,-57,-9,1,7,46
1501926583817607,-19,-2,-3,15,5,8,-13,-31
1501926583817607,-15,4,-21,-33,-5,-2,-19,50
1501926583818604,13,-11,-3,6,0,1,-22,-33
1501926583818604,3,-6,11,37,14,-2,-29,-2
1501926583840609,27,7,-8,-6,-8,3,7,3
1501926583840609,-12,6,7,0,-3,-1,23,-82
1501926583841579,-10,-6,-5,1,8,4,-19,7
1501926583841579,-9,-7,2,12,1,-7,-24,-17
1501926583863617,-1,8,4,-3,0,-1,-36,15
1501926583863617,31,-8,-13,0,-5,14,70,78
1501926583863617,-39,-5,-11,-15,0,0,-17,13
1501926583863617,9,-2,0,37,-1,-6,5,14
1501926583878595,-8,-2,-7,-43,-7,-6,-5,28
1501926583878595,41,-7,-4,8,5,-5,-69,15
1501926583878595,30,3,-8,-16,0,8,60,58
1501926583878595,6,-2,12,16,-3,0,19,17
1501926583900640,-19,-4,3,8,-2,-6,-104,-15
1501926583900640,-2,8,0,-34,1,3,49,4
1501926583901575,-48,-5,-8,-3,-3,-8,-60,-26
1501926583901575,17,16,10,-3,-1,-6,-56,-21
1501926583922576,21,-6,8,19,-6,2,51,49
1501926583922576,-11,-9,-12,-9,-9,-6,-36,43
1501926583923579,1,-1,-2,-5,7,3,45,-86
1501926583923579,-10,-4,-15,0,1,-3,-22,-28
1501926583937634,-13,14,7,-8,5,3,12,-15
1501926583937634,41,-11,-6,25,-8,-7,-65,-16
1501926583938611,-6,-4,15,10,14,7,34,13
1501926583938611,-10,-8,-30,-30,-24,-7,-50,4
1501926583960620,-3,-1,-1,19,10,9,27,-25
1501926583960620,-13,-1,10,37,9,-6,-18,2
1501926583961578,5,1,-4,-17,-9,-9,-5,2
1501926583961578,9,-6,-13,-16,-6,3,19,-18
1501926583982638,21,-3,4,0,-3,-5,-17,4
1501926583982638,-12,0,-11,-26,-2,-1,32,-57
1501926583983599,-4,9,4,26,2,-5,21,14
1501926583983599,6,-5,12,4,-3,3,25,11
1501926583997623,13,-6,-8,-9,-2,0,-60,11
1501926583997623,16,0,1,21,-2,12,115,10
1501926583998622,-3,15,3,21,5,-6,-24,7
1501926583998622,-1,-18,2,-30,-7,-5,-41,-18
1501926584020640,19,-3,-3,-20,-1,-2,14,37
1501926584020640,-14,4,9,0,3,-7,-13,-56
1501926584021583,5,-6,-7,-23,-1,0,6,10
1501926584021583,-1,8,12,35,8,9,60,12
1501926584042648,-18,-10,-20,-8,-4,-2,15,20
1501926584042648,14,7,7,-4,2,-3,-10,31
1501926584043615,-10,5,21,9,4,11,22,0
1501926584043615,11,9,17,37,15,6,46,-8
1501926584057644,20,-9,-35,-84,-25,0,23,-6
1501926584057644,-2,0,-11,-10,-11,-9,-25,-17
1501926584058626,7,-6,-5,-25,2,-4,-42,-10
1501926584058626,-12,-4,18,55,14,4,-8,38
1501926584080642,-51,6,1,-2,8,4,-1,-29
1501926584080642,16,-1,6,-11,-8,-13,-32,57
1501926584081597,9,-2,3,19,4,15,46,65
1501926584081597,33,-5,-14,-2,3,4,3,28
1501926584102619,-30,3,9,4,-8,-6,19,-9
1501926584102619,-33,-5,-10,8,1,-12,-52,0
1501926584103618,15,-14,-1,-2,-2,0,-14,27
1501926584103618,-32,10,-4,5,-1,-10,-18,7
1501926584118620,33,4,7,15,9,14,83,4
1501926584118620,-28,0,1,2,0,0,14,-58
1501926584118620,-4,-1,-4,13,0,-4,-35,4
1501926584118620,-5,16,-2,-36,-12,-2,50,-3
1501926584140660,-11,-22,-4,-4,0,-14,-107,-61
1501926584140660,4,-6,5,-4,-5,-3,13,10
1501926584141603,26,6,-7,0,1,2,45,-3
1501926584141603,-12,0,8,3,9,10,-14,-17
1501926584162657,3,11,22,48,8,5,11,15
1501926584162657,21,4,-7,23,3,5,7,-13
1501926584163589,-20,-7,-27,-100,-18,-3,21,-36
1501926584163589,18,2,-11,33,-3,-7,-24,-20
1501926584177632,-6,-3,-3,0,-3,-4,1,22
1501926584177632,-46,6,21,-2,12,6,-17,31
1501926584178625,-19,-8,-2,49,2,-10,-52,-88
1501926584178625,-13,-24,-4,-66,-12,-3,-8,-6
1501926584200650,16,8,3,13,-3,-2,-15,74
1501926584200650,28,9,0,-1,0,5,29,28
1501926584201606,6,-2,2,2,2,9,73,0
1501926584201606,-6,10,-5,5,-2,-5,-12,3
1501926584222662,-5,-1,9,13,-4,-3,-19,-12
1501926584222662,35,4,-20,-31,-6,1,26,-9
1501926584223629,-26,-17,4,3,-2,-6,-45,-15
1501926584223629,15,-10,-5,7,-2,1,1,-19
1501926584237593,-3,6,6,-11,-2,-1,5,-21
1501926584237593,-18,13,-1,3,-1,-2,-21,-29
1501926584238596,0,0,0,1,-5,-7,-47,5
1501926584238596,-5,5,4,3,-4,3,14,1
1501926584268653,8,3,-11,0,0,-13,-73,8
1501926584268653,-2,-13,0,5,4,11,68,44
1501926584269602,-3,1,-4,-8,-4,-8,-29,19
1501926584269602,-5,-6,1,13,1,-1,-8,-15
1501926584282663,2,-2,-2,5,-9,-4,-33,-30
1501926584282663,22,-10,-9,-9,0,-5,43,-11
1501926584283620,-20,-1,-15,-11,-4,4,51,18
1501926584283620,7,2,0,-1,-2,-3,-11,45
1501926584297639,-25,-10,-8,-7,-5,-3,8,-42
1501926584297639,6,-1,1,-1,6,-3,-25,-10
1501926584304596,14,7,15,14,-3,-1,10,26
1501926584304596,-12,-4,-10,-3,-2,1,-4,3
1501926584328653,-2,4,2,4,-3,4,30,-23
1501926584328653,6,-3,2,-8,-2,-3,-25,4
1501926584329607,-14,10,-1,6,2,-6,-28,-1
1501926584329607,-4,0,1,-9,-5,-5,-9,6
1501926584342673,28,-14,-15,-2,-6,-1,4,-20
1501926584342673,-10,7,6,15,10,1,-20,-16
1501926584343634,-9,2,-6,-34,-7,-2,-1,-15
1501926584343634,14,7,2,-5,-8,-4,-15,-15
1501926584357642,-14,1,-8,9,-3,5,13,-27
1501926584357642,-18,-25,-7,-5,5,-4,-30,27
1501926584364670,0,-5,-6,10,0,-2,-24,-26
1501926584364670,-5,27,15,7,5,2,16,-18
1501926584380635,1,-35,-6,-4,-2,-3,11,20
1501926584380635,-6,7,0,-4,0,5,-10,-14
1501926584381611,6,-5,-1,-1,0,-5,-33,4
1501926584381611,0,3,-6,-8,-4,2,25,12
1501926584402615,5,16,13,31,3,-2,8,11
1501926584402615,-10,-3,2,-34,1,4,54,17
1501926584403605,4,3,-2,4,-1,6,38,15
1501926584403605,12,-6,-2,-2,-4,-5,3,-23
1501926584417603,3,6,8,-1,-1,2,17,13
1501926584417603,-8,-9,0,-1,0,-4,-32,4
1501926584424613,20,7,4,10,-1,2,6,-7
1501926584424613,-8,-14,-13,-11,-7,-4,4,-11
1501926584440678,-11,-2,-17,-22,-8,-5,-16,43
1501926584440678,4,4,3,1,2,-3,-33,-13
1501926584441607,-3,-2,4,-5,1,1,4,-5
1501926584441607,1,-9,-9,13,-8,-5,4,31
1501926584462670,-29,3,0,6,9,7,-10,-32
1501926584462670,26,1,16,15,3,-13,-75,-9
1501926584463635,0,-5,-14,-33,-15,15,99,28
1501926584463635,-2,-8,-4,-4,9,5,-7,-21
1501926584477651,-6,10,-2,-6,-5,-4,-16,-10
1501926584477651,31,-3,-2,-6,-3,-6,-4,-45
1501926584484651,-5,-7,8,20,5,-3,-37,-32
1501926584484651,-12,-3,0,-7,1,-3,-9,2
1501926584508681,-8,-4,-10,-25,-5,-1,23,-20
1501926584508681,-3,-2,-24,13,0,-6,-31,-6
1501926584509610,1,-1,2,-22,-11,-2,-23,1
1501926584509610,6,-7,3,-5,-3,-3,16,-26
1501926584522669,23,4,17,25,12,-1,11,22
1501926584522669,-20,-3,2,-5,-5,-5,-20,36
1501926584523621,3,2,-7,24,3,4,4,-13
1501926584523621,1,1,-11,-51,-4,7,13,22
1501926584545654,-3,-5,2,1,0,-8,-24,12
1501926584545654,-16,15,3,-4,3,2,27,-29
1501926584546612,2,-17,7,9,-1,-5,-16,1
1501926584546612,-3,2,15,30,2,-10,-78,-6
1501926584568655,24,3,-4,-8,-1,-1,43,32
1501926584568655,-31,-6,-13,-11,-8,-6,5,-23
1501926584569624,3,6,-1,-19,-5,9,18,10
1501926584569624,-5,2,6,1,0,-6,-13,-4
1501926584582660,0,-5,-6,-17,1,-7,-46,13
1501926584582660,5,0,9,34,1,1,17,3
1501926584583650,-3,1,-7,0,-3,0,-7,6
1501926584583650,-6,-1,-17,-5,-3,3,-7,10
1501926584605656,-2,2,3,10,4,-1,-4,-11
1501926584605656,8,0,8,-19,11,4,34,25
1501926584606616,-3,3,-10,4,-8,-7,-19,3
1501926584606616,4,3,14,15,-9,2,17,-2
1501926584628677,-5,-1,-10,-6,-1,-3,4,5
1501926584628677,-2,-1,4,-7,1,-2,7,29
1501926584629619,-4,3,1,8,5,-4,4,1
1501926584629619,10,2,7,17,3,9,20,16
1501926584642681,-8,-1,-10,3,0,1,-3,-9
1501926584642681,6,-7,-6,-15,-5,2,-58,-2
1501926584643642,2,6,6,33,8,11,51,22
1501926584643642,-7,-4,-4,-47,-13,-12,-37,-4
1501926584665689,6,2,8,17,1,-1,25,-10
1501926584665689,6,-1,-5,-12,-1,-1,-11,-4
1501926584666618,3,-6,4,-5,-3,-2,-21,18
1501926584666618,-2,-4,-11,19,-3,-4,-11,-19
1501926584688678,-6,1,-4,-7,-5,0,-3,-11
1501926584688678,-15,-6,-8,1,0,3,18,-10
1501926584689620,-8,0,2,-23,-2,-11,-36,-42
1501926584689620,-8,1,8,12,3,5,43,-22
1501926584702665,-2,-10,-8,-18,-9,-8,-19,-5
1501926584702665,-6,1,2,13,3,1,-5,-21
1501926584703633,11,-2,-9,24,3,5,29,36
1501926584703633,8,-3,-1,-28,-2,0,-11,-10
1501926584725664,2,2,8,-3,0,-4,1,-21
1501926584725664,-3,-1,7,13,1,5,17,9
1501926584726622,4,-3,-2,10,2,-1,22,20
1501926584726622,27,0,2,11,1,1,6,31
1501926584748636,-15,-5,-6,-3,-4,-8,5,-22
1501926584748636,-5,-6,-18,-12,-4,6,20,-15
1501926584749625,5,1,-3,-10,-4,-8,-35,6
1501926584749625,1,-2,2,9,-9,-6,11,66
1501926584763623,-2,6,5,11,14,14,7,-21
1501926584763623,5,-8,4,-25,-9,-5,9,24
1501926584771657,-15,3,-6,-9,-5,-9,-10,-22
1501926584771657,-2,-4,-5,9,-1,2,3,-9
1501926584785668,9,-1,1,6,5,1,1,22
1501926584785668,-16,1,6,7,0,-3,-6,-17
1501926584786639,3,9,-2,-7,-8,4,9,-4
1501926584786639,-8,-19,4,36,2,0,-5,4
1501926584808627,-1,5,-10,-70,-9,-2,-14,-16
1501926584808627,3,1,-3,2,3,-3,-2,-28
1501926584809660,-4,-2,9,13,-1,-4,-14,-16
1501926584809660,-9,0,-14,-8,-5,0,-4,1
1501926584822670,-1,-6,5,6,-1,-3,-4,4
1501926584822670,0,5,-1,0,0,3,4,21
1501926584823671,5,2,3,-13,0,-5,-10,-13
1501926584823671,-10,3,-2,2,5,5,12,-8
1501926584845671,-2,0,19,10,1,-6,0,38
1501926584845671,-4,-1,-11,-5,-5,3,18,-22
1501926584846629,-8,-6,-39,11,1,0,15,-16
1501926584846629,-10,11,6,-13,1,2,-8,-25
1501926584868675,9,13,47,18,-5,-3,-1,7
1501926584868675,3,-32,-20,-28,-5,-4,-8,36
1501926584869673,-10,-5,19,2,-4,-5,-37,-34
1501926584869673,6,-15,-97,-10,-2,-3,14,-10
1501926584882677,-5,1,-19,1,3,4,9,-9
1501926584882677,10,7,7,15,-5,-7,-8,14
1501926584890671,1,0,-5,-4,2,3,-11,15
1501926584890671,-6,-3,-7,-8,0,-1,-2,15
1501926584905679,-2,-6,17,17,6,2,-10,-5
1501926584905679,-1,4,4,9,0,2,24,-8
1501926584906632,-7,-9,0,-5,-1,-3,-16,-4
1501926584906632,7,12,29,3,0,-6,3,-9
1501926584928707,-16,-9,-18,-24,-11,-6,8,-21
1501926584928707,-5,-5,-25,-19,-12,1,-5,-18
1501926584929643,-4,18,50,27,5,2,10,-37
1501926584929643,-7,-6,18,15,3,-5,-24,-20
1501926584942703,4,3,-9,-48,1,-1,-2,-6
1501926584942703,-10,8,21,22,0,0,10,-18
1501926584950707,8,-4,0,1,1,6,9,35
1501926584950707,-17,-5,-17,-79,-14,-14,-49,6
1501926584965677,-1,6,20,98,11,2,27,-6
1501926584965677,20,8,8,-44,-1,-3,-10,28
1501926584972706,-10,-6,-10,12,-1,0,-6,-28
1501926584972706,-4,7,21,19,8,3,17,2
1501926584988707,5,-1,-15,-17,-5,-4,-15,41
1501926584988707,16,-9,-26,10,0,-3,-3,18
1501926584989639,2,-1,6,5,-1,-2,-6,65
1501926584989639,-2,6,1,-9,-2,3,0,-76
1501926585002674,-2,3,13,19,4,3,2,17
1501926585002674,4,-6,7,9,1,-3,-12,-33
1501926585010650,0,-6,-25,-44,-7,-8,16,27
1501926585010650,-2,-1,-7,11,-7,-6,16,11
1501926585025693,4,11,3,-3,8,8,-6,-5
1501926585025693,-1,3,11,-2,-1,5,0,-2
1501926585026646,4,-17,-34,5,-9,-1,5,0
1501926585026646,9,4,20,-25,1,-7,0,19
1501926585048698,-5,-14,-19,-1,6,-4,-29,-11
1501926585048698,-3,12,1,-11,-6,2,23,13
1501926585049641,-1,-1,4,61,1,-3,-11,-13
1501926585049641,-6,-5,-7,-69,-3,3,-10,-12
1501926585062707,17,1,-9,-3,1,-12,-40,-12
1501926585062707,-13,-7,20,30,2,4,28,-13
1501926585070712,4,2,-10,-11,-2,-3,2,12
1501926585070712,-3,2,23,65,9,0,-11,-20
1501926585085658,-15,-1,-12,-62,-14,1,12,-45
1501926585085658,-1,-4,-17,0,-1,-3,-45,-21
1501926585086642,-6,-4,10,-4,4,4,10,-15
1501926585086642,12,-2,5,22,-1,3,29,38
1501926585108708,7,3,2,24,12,5,-7,-22
1501926585108708,-8,3,-18,-43,-8,-2,1,6
1501926585109646,-3,-1,16,-10,-5,-4,5,-21
1501926585109646,-13,4,4,20,2,0,-18,15
1501926585122713,6,-15,-8,-34,-6,-3,23,28
1501926585122713,-5,1,6,27,6,0,-2,-8
1501926585130683,0,8,4,-34,-2,-3,-18,-5
1501926585130683,-1,5,3,14,-6,-7,-3,8
1501926585145685,5,-12,1,24,0,7,33,22
1501926585145685,0,2,6,3,1,-4,-20,-25
1501926585146647,-6,4,-12,-3,-5,1,1,2
1501926585146647,9,-7,2,15,6,-5,-3,3
1501926585168689,-3,-4,-2,25,0,-3,-23,11
1501926585168689,13,-2,-5,-41,-13,4,21,30
1501926585169655,-9,-1,-4,13,-2,-1,-2,2
1501926585169655,16,2,5,12,4,0,10,-58
1501926585182712,-18,-3,-16,-68,-3,0,6,-14
1501926585182712,-11,-5,11,29,-3,-10,-12,-8
1501926585190717,-8,-4,-9,2,-4,-2,-6,-6
1501926585190717,1,2,9,-13,4,2,1,33
1501926585205719,-7,0,-17,7,1,-3,-10,61
1501926585205719,16,4,-3,7,0,-3,-17,-11
1501926585206652,7,-6,6,-13,-5,-1,4,-17
1501926585206652,-5,-6,2,24,3,-1,2,-10
1501926585228690,0,3,20,1,-7,-3,5,-15
1501926585228690,-8,-6,-20,-28,-16,-1,2,20
1501926585229651,8,-2,-5,16,7,1,-9,20
1501926585229651,11,-3,-4,-5,1,-1,-9,-3
1501926585258667,0,0,1,12,-3,-6,-11,-23
1501926585258667,-1,6,3,14,4,11,12,7
1501926585259665,11,6,6,-14,-4,-5,-3,3
1501926585259665,-10,-9,1,-17,2,-1,9,3
1501926585266669,3,-3,3,17,3,-1,20,11
1501926585266669,-18,-8,-19,-24,-10,-6,-7,-18
1501926585267654,8,0,-4,3,-10,2,-5,-2
1501926585267654,-3,3,15,11,5,2,9,24
1501926585288693,0,1,-9,2,1,-1,3,-60
1501926585288693,-12,0,-12,27,11,2,-6,0
1501926585289663,7,7,5,-84,-10,-6,-7,-27
1501926585289663,-17,2,0,-5,-2,0,22,6
1501926585311667,0,-2,7,18,-1,4,-5,46
1501926585311667,4,1,11,11,0,3,12,-24
1501926585311667,-4,-3,4,31,2,3,-1,1
1501926585311667,0,-11,2,-47,-10,-5,-17,-3
1501926585325697,-3,5,7,-10,-2,0,6,10
1501926585325697,-3,3,8,17,2,-1,-3,-29
1501926585326657,3,-11,39,26,4,-1,0,27
1501926585326657,-3,-10,-11,10,0,-1,1,3
1501926585348702,8,-1,9,-18,-1,1,-2,2
1501926585348702,-2,-8,-2,19,5,-3,11,10
1501926585349658,-6,0,-25,-31,-12,-2,2,-13
1501926585349658,1,-3,-5,3,1,3,-3,-4
1501926585370686,2,13,-7,25,5,5,-2,6
1501926585370686,14,-13,35,-14,-1,2,-5,-1
1501926585371679,-10,-6,-3,-8,1,-2,5,-7
1501926585371679,-3,-2,-40,-15,-5,-7,-7,-5
1501926585385701,-11,-10,6,3,-8,0,6,-10
1501926585385701,2,6,4,8,3,-1,1,30
1501926585386662,-19,-3,19,28,5,2,7,-21
1501926585386662,13,1,-10,-27,0,2,-2,11
1501926585408710,8,-8,-16,-6,0,-3,-9,-20
1501926585408710,-3,7,-7,-5,-8,-1,-4,0
1501926585409662,11,-5,-5,24,-3,-10,-12,46
1501926585409662,-9,6,17,-17,1,4,-5,-13
1501926585431665,2,-1,21,18,5,2,13,-8
1501926585431665,1,-7,-31,-9,-5,-3,-13,11
1501926585431665,13,7,-13,-22,-1,-3,-7,-8
1501926585431665,4,1,5,11,2,0,-3,3
1501926585445706,8,15,29,12,1,5,19,-7
1501926585445706,-6,0,13,21,2,-3,-5,35
1501926585446665,-10,4,-10,-4,3,-5,-10,-78
1501926585446665,4,8,6,-18,-12,-4,-1,4
1501926585468725,-3,-7,16,14,8,9,8,-18
1501926585468725,-6,-3,-36,7,0,-3,-3,-16
1501926585469664,0,-3,-8,-34,-5,-3,3,27
1501926585469664,-4,-3,-1,13,8,-3,-8,-3
1501926585491667,-2,0,-10,-20,-6,-4,-11,-6
1501926585491667,0,2,24,28,3,7,15,32
1501926585491667,-8,-2,-14,-1,-6,-3,-6,-3
1501926585491667,-9,4,6,-32,5,10,4,-36
1501926585505707,0,-3,1,24,-7,-5,-5,39
1501926585505707,-19,0,-29,-36,-2,-4,6,-86
1501926585506667,0,3,-1,49,1,0,9,12
1501926585506667,2,-5,-6,-26,-4,-7,-12,13
1501926585528727,-7,-1,-13,-20,-5,-2,-3,-4
1501926585528727,17,2,7,-20,-6,-2,-10,56
1501926585529669,-9,0,-12,43,2,2,-6,10
1501926585529669,-14,2,12,38,6,-4,0,-37
1501926585558737,8,0,7,12,0,-2,-5,23
1501926585558737,7,-2,2,-29,-12,-3,-6,-16
1501926585559671,-16,-3,2,-17,4,3,9,-14
1501926585559671,-5,1,-9,12,3,-1,-4,12
1501926585565713,0,-4,-26,-10,1,-5,-9,-9
1501926585565713,-13,-4,-6,22,-2,2,12,16
1501926585572713,4,-18,-6,13,10,3,5,13
1501926585572713,7,2,32,22,-5,-4,6,14
1501926585588713,-2,1,-7,-23,-12,-3,-1,-39
1501926585588713,24,0,7,12,3,-1,0,5
1501926585589672,11,1,-6,-45,-5,-2,2,54
1501926585589672,20,6,-26,39,5,-9,-11,-15
1501926585611684,-18,1,-24,19,3,6,-15,-40
1501926585611684,-10,2,2,-12,-5,0,18,-5
1501926585611684,-13,4,17,7,0,3,-2,-3
1501926585611684,12,-4,3,-30,-3,5,36,20
1501926585625741,-10,-3,-24,-10,-7,-7,-5,-13
1501926585625741,-1,2,1,1,2,-2,-5,3
1501926585626675,-9,-1,21,30,9,0,-6,0
1501926585626675,-3,-4,-9,-3,-6,0,0,-16
1501926585648737,9,-7,-26,-85,-15,-2,-3,-1
1501926585648737,-14,-4,-2,27,1,0,10,-3
1501926585649677,11,4,-7,-47,-6,-5,-7,-27
1501926585649677,-7,2,20,36,12,5,-11,11
1501926585671688,4,3,19,21,8,-2,-2,25
1501926585671688,-15,-3,-5,-46,-14,-6,3,-39
1501926585671688,-15,-1,-12,49,1,2,9,-20
1501926585671688,10,-1,-33,-15,0,1,5,27
1501926585684745,11,-2,2,-19,-7,-6,-12,44
1501926585684745,-9,-3,40,53,13,-1,1,-39
1501926585692740,-6,1,11,-7,1,-4,3,-16
1501926585692740,-12,-3,-15,-53,-13,0,-5,-4
1501926585708724,2,-1,32,71,15,5,11,28
1501926585708724,-2,0,-5,-2,-7,-5,-24,22
1501926585709681,5,-9,10,-25,-6,1,15,-3
1501926585709681,-4,6,23,23,0,3,3,0
1501926585731695,-1,-8,-50,-27,-5,-4,5,15
1501926585731695,-3,0,-30,32,-6,-7,-12,-49
1501926585731695,12,2,-4,-6,-2,-4,-15,-22
1501926585731695,-6,-20,-21,-39,-5,-7,-9,-8
1501926585745682,-2,4,6,51,4,8,6,-6
1501926585745682,-4,1,-2,-28,-5,-4,8,1
1501926585746686,32,8,-23,-70,-6,-4,-3,70
1501926585746686,-11,-4,8,49,0,-5,4,-45
1501926585768715,-8,-6,-15,-33,-19,-9,-14,-18
1501926585768715,-2,2,8,19,10,3,-9,28
1501926585769684,20,0,1,-3,-1,-5,7,6
1501926585769684,-3,2,-1,16,3,7,-2,-14
1501926585790690,-8,-2,18,-12,7,1,-1,6
1501926585790690,0,-3,-3,-27,-1,0,-1,16
1501926585791683,-26,-5,-4,-23,-1,-2,9,14
1501926585791683,0,-4,-25,-14,-5,0,-6,-17
1501926585805692,18,6,20,52,1,4,13,50
1501926585805692,-30,4,12,-41,-3,-3,-7,-32
1501926585806684,-9,-2,-14,9,4,-3,3,-17
1501926585806684,7,-1,-3,-3,-2,-7,-11,18
1501926585828716,-5,6,37,2,6,6,2,-12
1501926585828716,16,-1,-7,65,3,-4,-19,5
1501926585829688,-2,-5,-37,-57,-16,-4,15,-6
1501926585829688,-33,-4,2,45,7,5,15,17
1501926585851687,10,-4,-13,-43,-10,-9,-8,-38
1501926585851687,7,4,15,0,2,4,-2,10
1501926585851687,-1,-1,17,24,10,4,-15,-17
1501926585851687,10,-2,-2,23,-3,1,1,46
1501926585864754,0,-2,4,-9,-3,-2,5,-12
1501926585864754,5,-5,-14,-25,-12,-2,1,-1
1501926585872753,-16,0,5,36,6,0,-10,-1
1501926585872753,20,2,7,1,0,1,3,60
1501926585888727,-13,-3,0,30,2,-8,-24,-25
1501926585888727,-3,1,7,35,9,1,13,8
1501926585889688,-4,1,2,-34,-4,3,17,3
1501926585889688,2,4,12,-7,3,6,3,-19
1501926585911704,-3,-5,-11,14,0,-4,0,1
1501926585911704,5,0,8,-1,1,0,-5,8
1501926585911704,-13,-1,-9,7,2,-3,9,23
1501926585911704,5,2,11,-8,-1,4,-12,-19
1501926585924755,17,-1,-28,-18,-17,-1,21,8
1501926585924755,17,-8,-6,-21,-3,-1,9,-7
1501926585932727,1,0,-7,20,10,2,-11,-2
1501926585932727,-19,-3,1,32,-3,-2,-2,24
1501926585956706,-8,-2,-3,-28,-5,-1,2,-7
1501926585956706,0,0,-2,-16,-5,1,-5,13
1501926585956706,17,-2,1,42,1,-1,-7,-10
1501926585956706,4,-1,9,-33,-1,-3,3,-6
1501926585971724,-8,-1,-3,13,1,0,-6,-12
1501926585971724,3,-1,-6,-2,-4,-1,11,14
1501926585971724,-2,-1,17,14,10,1,-9,-15
1501926585971724,-3,-4,-14,-39,-2,-3,0,-20
1501926585984763,-4,-1,16,16,6,0,0,9
1501926585984763,0,-1,-13,15,2,-6,-13,14
1501926585992735,20,-6,-9,-55,-12,0,-1,-16
1501926585992735,-31,3,8,42,3,0,3,-12
1501926586008735,-30,-4,-2,-14,-3,-6,-6,-13
1501926586008735,27,2,7,23,2,6,-4,-16
1501926586009696,4,8,21,39,9,1,-5,4
1501926586009696,19,-2,-20,-30,-11,-5,-1,20
1501926586031724,-38,-7,-12,7,-8,0,6,-38
1501926586031724,-15,3,13,25,5,3,18,25
1501926586031724,8,2,-3,-42,0,-3,-6,1
1501926586031724,16,0,7,0,-2,-2,-10,-21
1501926586044737,25,-5,-7,-5,-7,-5,-1,24
1501926586044737,-4,-2,-7,-11,1,-3,-5,13
1501926586052736,5,3,9,18,3,4,1,-12
1501926586052736,-5,1,9,53,5,0,0,-10
1501926586068762,27,6,0,-21,4,6,3,23
1501926586068762,4,-9,-22,-106,-21,-7,-7,-9
1501926586069702,-12,0,5,41,12,1,-6,6
1501926586069702,-4,-5,-5,-13,-2,-1,-3,1
1501926586091735,2,1,-2,-10,-8,-4,-3,-12
1501926586091735,-3,0,2,29,10,4,-2,-1
1501926586091735,-16,-1,-6,-29,-16,-7,2,2
1501926586091735,5,-3,0,18,8,6,15,31
1501926586104770,-20,-1,-7,-1,3,-1,-1,-34
1501926586104770,-4,6,7,-17,-2,-7,-10,-18
1501926586112743,-7,-2,11,35,4,0,-9,12
1501926586112743,0,-5,-18,-50,-14,-11,-34,-11
1501926586128762,-46,-3,-15,2,2,2,11,-11
1501926586128762,-2,-2,2,15,2,-4,-25,7
1501926586129705,28,-2,-14,-81,-8,1,22,-23
1501926586129705,-12,5,13,-22,-12,-1,-8,-7
1501926586150769,8,3,17,22,10,1,-13,-10
1501926586150769,7,-5,-23,-6,-7,-7,-6,64
1501926586151738,1,-2,13,29,-3,2,-12,-25
1501926586151738,-26,2,-6,-36,0,4,23,-14
1501926586173746,11,-5,-6,13,-5,-3,-13,-9
1501926586173746,-3,2,16,69,14,0,12,-23
1501926586174706,-2,-5,-18,-94,-25,-11,-12,31
1501926586174706,19,-1,-7,5,-7,-2,0,-5
1501926586187778,13,3,14,13,5,8,4,-2
1501926586187778,-4,4,2,34,9,5,2,1
1501926586196708,-2,-2,-10,2,10,5,9,9
1501926586196708,-6,-2,-9,-97,-28,-8,5,-24
1501926586210751,10,2,9,23,0,-5,-4,25
1501926586210751,-7,-2,3,-10,-5,-5,-5,-35
1501926586211741,-19,-3,-10,46,5,5,-5,-43
1501926586211741,20,-1,-16,19,4,-4,0,28
1501926586233749,3,0,-1,-50,-14,-2,5,12
1501926586233749,3,-5,7,-1,-1,-1,12,13
1501926586234742,-5,-2,4,18,9,6,1,25
1501926586234742,1,-1,5,29,6,-4,-10,-8
1501926586247746,8,-1,-12,14,-9,-2,-11,14
1501926586247746,4,0,5,-34,1,0,-2,-59
1501926586256715,2,0,1,10,-1,-2,-5,-5
1501926586256715,4,-3,2,42,0,1,3,8
1501926586270771,-7,-2,9,0,3,1,-4,-9
1501926586270771,-4,1,3,25,8,3,11,11
1501926586272723,1,0,1,8,-8,-5,-1,-12
1501926586272723,-10,-6,-22,-61,-13,-2,-4,-23
1501926586293759,-5,5,-1,-2,3,1,5,0
1501926586293759,4,-5,1,5,5,0,-2,22
1501926586295718,15,1,15,-11,1,-2,4,-20
1501926586295718,-11,-3,8,81,6,-1,-15,-2
1501926586307735,12,-3,-16,35,-1,7,30,10
1501926586307735,-46,-2,-13,-111,-13,-3,1,-26
1501926586316716,-8,0,1,53,3,-4,-11,16
1501926586316716,-12,1,6,-21,-3,-7,-15,-58
1501926586338756,2,-2,9,28,7,3,13,15
1501926586338756,36,3,5,44,8,4,25,19
1501926586340751,-27,-1,-4,-29,-6,0,-1,27
1501926586340751,-2,0,6,14,1,-1,0,-7
1501926586360780,10,-2,-16,-34,-4,-5,-6,28
1501926586360780,-5,-3,2,-13,-5,-10,-4,-14
1501926586362726,3,-2,-14,-9,-16,2,-13,-8
1501926586362726,16,1,8,28,9,5,11,38
1501926586367738,-11,-1,-2,-39,-3,0,0,-30
1501926586367738,2,2,-1,-10,6,5,-4,27
1501926586383725,4,0,-1,11,-1,-6,-7,5
1501926586383725,-16,1,21,94,8,3,9,-4
1501926586391719,7,-5,-21,-101,-17,-9,-12,11
1501926586391719,-1,-2,3,-35,-8,-6,-29,7
1501926586392725,24,-1,8,38,5,-1,11,6
1501926586392725,3,2,-14,14,2,0,-3,-9
1501926586413756,-5,-3,-9,-31,-10,-2,0,0
1501926586413756,10,-4,4,23,4,1,-1,14
1501926586415720,-13,-3,1,-24,-2,-4,-14,-1
1501926586415720,61,-1,8,6,-4,2,10,32
1501926586427780,19,-1,-1,26,1,0,0,16
1501926586427780,-38,-1,-10,-22,-4,-6,-18,-35
1501926586436722,0,1,12,-5,1,5,30,-41
1501926586436722,4,-4,-16,-30,-7,-3,-5,22
1501926586450785,-8,3,2,24,4,-1,-5,1
1501926586450785,5,1,7,12,5,2,7,-47
1501926586452737,7,-5,5,47,10,3,-5,30
1501926586452737,-31,-2,-3,-59,-5,-1,-4,-26
1501926586473796,-1,-1,5,4,-5,-3,-2,4
1501926586473796,-10,-3,-7,12,2,-1,7,12
1501926586475723,-3,-1,-5,0,-2,2,0,14
1501926586475723,1,-2,-1,-8,7,2,3,-31
1501926586487767,-5,1,3,17,-3,-5,-10,-5
1501926586487767,24,1,1,-9,-3,3,3,28
1501926586494726,-6,1,-7,28,2,-2,-4,-20
1501926586494726,22,-1,0,-51,-9,-2,2,11
1501926586510794,-2,-1,2,10,4,-2,-4,-4
1501926586510794,22,-5,-5,15,-2,-7,-13,24
1501926586512735,-6,-6,-3,-32,-8,-3,-4,-36
1501926586512735,30,6,-6,23,4,-3,-4,51
1501926586533727,0,1,10,-12,1,1,1,-4
1501926586533727,-31,-8,-4,29,5,7,34,-63
1501926586535726,31,-3,-6,-32,-8,-3,-14,-31
1501926586535726,7,0,1,-1,1,-3,-5,-4
1501926586547766,-17,3,14,62,10,-1,-5,8
1501926586547766,-10,3,5,26,7,4,-4,26
1501926586554792,-16,-7,-22,-23,-15,-7,3,-12
1501926586554792,-7,-1,0,12,8,14,18,-22
1501926586570799,14,3,1,-12,4,-1,1,-5
1501926586570799,17,-3,6,25,3,3,-1,21
1501926586572730,-4,4,-4,-14,-4,-3,-4,3
1501926586572730,-13,-5,11,-12,-1,-6,-7,-14
1501926586593728,-9,0,-17,43,2,12,28,16
1501926586593728,-16,0,5,9,-8,-4,-1,-18
1501926586595731,-12,-2,-14,-21,0,2,14,6
1501926586595731,3,-1,-8,-2,-3,-4,-4,-41
1501926586607794,-26,-2,10,44,13,-3,-9,22
1501926586607794,3,2,-4,-60,-9,-4,-11,-45
1501926586614753,9,-1,5,-1,4,5,-2,16
1501926586614753,-28,1,6,47,2,4,17,71
1501926586638774,-21,-5,-6,-34,-9,-6,-3,-56
1501926586638774,-48,-1,-9,-24,-9,-4,-7,-14
1501926586640733,-72,0,10,20,7,1,-5,19
1501926586640733,0,1,1,2,-1,-2,-17,40
1501926586652770,-24,-15,-32,7,-12,-5,13,18
1501926586652770,23,-3,-7,-51,-1,0,-4,66
1501926586661736,-44,9,22,8,5,3,-10,-100
1501926586661736,10,-7,-24,-36,-12,-9,-14,-16
1501926586667751,-39,-7,-5,-3,2,1,-6,-28
1501926586667751,38,4,3,-12,-5,-8,-9,26
1501926586683746,17,-3,-5,38,9,4,8,26
1501926586683746,-48,-3,-6,-42,-16,-1,-3,-40
1501926586690806,34,4,15,-19,6,-1,0,-55
1501926586690806,20,0,4,5,4,4,-3,-31
1501926586692747,15,0,4,-3,-10,-11,-5,17
1501926586692747,-5,0,1,9,1,-3,-1,-10
1501926586713777,11,-2,0,16,-4,-1,-14,66
1501926586713777,23,3,-12,-15,0,4,19,34
1501926586715737,34,-2,-4,-31,-4,-1,8,49
1501926586715737,0,-4,-7,-48,-8,-5,-9,-37
1501926586727749,-20,-2,5,7,9,-3,-7,37
1501926586727749,60,2,5,6,-2,-7,-17,-97
1501926586742751,-2,-4,5,56,0,-2,2,24
1501926586742751,7,1,-10,4,-4,2,2,21
1501926586750799,-57,5,-3,-23,0,0,-3,-46
1501926586750799,-13,-9,-5,11,-10,-7,-13,-8
1501926586752741,8,-4,3,-14,1,4,2,22
1501926586752741,-4,5,14,58,8,3,0,-39
1501926586773787,24,-4,-12,-75,-6,-3,-2,21
1501926586773787,-12,-1,-5,12,-5,1,7,11
1501926586775743,4,-3,-8,7,-6,-7,-4,-3
1501926586775743,1,-3,3,2,1,2,21,47
1501926586787754,26,1,8,23,6,2,2,1
1501926586787754,-61,1,-12,-29,2,5,0,12
1501926586796747,15,-3,6,8,-4,0,1,-48
1501926586796747,-43,-3,5,-5,1,-1,-8,14
1501926586810810,45,4,-2,29,9,-2,0,8
1501926586810810,-22,-1,-7,-42,-25,-6,15,-5
1501926586812742,-7,-2,-14,-61,-7,-2,-13,7
1501926586812742,3,-6,-14,-11,-3,-2,2,-4
1501926586833808,-1,1,12,4,3,-3,-3,-2
1501926586833808,17,-8,8,49,6,0,-2,47
1501926586835756,7,-2,-1,28,3,2,7,-58
1501926586835756,5,-6,-4,-36,-7,-4,1,-15
1501926586847745,1,1,1,-12,5,-2,-8,-18
1501926586847745,-8,-1,3,15,5,6,1,29
1501926586856745,24,-8,-8,-9,-10,-7,2,6
1501926586856745,17,1,13,40,3,1,-6,-16
1501926586870744,-3,-9,-15,-30,-2,-3,-5,-13
1501926586870744,-2,0,-2,-19,-4,-2,2,-2
1501926586872753,2,3,2,32,-2,-6,-4,32
1501926586872753,2,0,-10,16,-1,1,-2,21
1501926586893787,37,1,8,5,-1,-3,-1,-3
1501926586893787,-3,-1,9,10,2,2,4,21
1501926586895757,-5,3,-3,-6,5,5,-2,-12
1501926586895757,-1,1,2,-1,1,-3,-1,-3
1501926586907758,-7,-1,0,-1,-1,0,-7,-10
1501926586907758,-38,-2,-4,-13,0,4,10,-5
1501926586916749,-49,0,1,23,-4,-7,-2,-6
1501926586916749,-12,-1,-4,-44,-13,-7,-5,-17
1501926586930782,-8,-5,-15,-4,-3,-1,0,-20
1501926586930782,-6,1,2,1,2,-2,-11,-10
1501926586932751,15,-1,-5,0,3,2,5,31
1501926586932751,7,2,3,2,2,2,5,25
1501926586953751,-19,0,1,6,-2,-2,5,29
1501926586953751,12,2,0,18,4,-2,-11,15
1501926586959775,3,0,-3,-23,1,2,-4,-5
1501926586959775,3,0,1,-1,-6,-4,0,-1
1501926586967760,-9,2,12,28,0,2,2,38
1501926586967760,23,-7,-15,-11,-6,-3,0,15
1501926586976754,9,5,1,7,5,5,6,43
1501926586976754,-37,4,6,27,10,2,0,-17
1501926586990777,-4,-1,1,-15,-6,-5,-7,1
1501926586990777,-7,1,1,-4,3,3,4,-18
1501926586998754,-25,-1,-2,-15,-1,-2,-3,-7
1501926586998754,18,1,0,13,0,-2,-12,5
1501926587013795,-4,-7,0,-3,-6,-2,-4,40
1501926587013795,-26,-3,-7,15,-1,-2,22,52
1501926587015774,54,4,2,-18,0,-1,-3,43
1501926587015774,-10,7,9,38,11,1,-4,14
1501926587027766,41,3,-1,-21,2,2,6,15
1501926587027766,14,0,1,-21,-7,-2,-1,40
1501926587036760,-32,-5,-3,5,-4,0,-2,-11
1501926587036760,-53,-2,-1,7,-1,2,5,-29
1501926587050821,3,4,-3,-22,-5,-3,-11,-34
1501926587050821,36,4,1,-16,1,-4,-7,27
1501926587052785,-17,2,11,22,-4,0,1,14
1501926587052785,10,-8,-23,-64,-8,-6,-7,-59
1501926587073802,-4,-2,-2,7,2,0,6,-2
1501926587073802,5,-5,5,43,3,-1,0,-18
1501926587074757,-46,-3,-2,0,-3,-2,-1,-34
1501926587074757,15,-3,2,7,0,-4,-5,2
1501926587096801,3,-2,1,0,1,6,0,38
1501926587096801,4,-2,-1,-35,-4,-4,-7,-23
1501926587097771,46,2,-8,-29,-9,0,3,28
1501926587097771,-19,-4,-8,-1,2,0,3,5
1501926587110828,23,-2,7,21,1,-6,-10,-76
1501926587110828,13,-1,2,33,2,-3,-32,-59
1501926587112762,-19,-2,-2,-13,-5,-1,12,-5
1501926587112762,7,7,4,3,3,-1,2,-49
1501926587133787,-21,3,4,-6,4,5,11,89
1501926587133787,-30,2,3,4,7,-3,-20,-63
1501926587134762,-13,-3,-5,-4,-8,-1,4,-56
1501926587134762,63,-3,0,3,-2,1,14,100
1501926587155807,-2,0,10,11,2,3,0,7
1501926587155807,-11,-6,-11,16,-6,-1,0,-26
1501926587157763,-6,-4,-11,-49,-10,-3,-10,-2
1501926587157763,-23,-2,5,-5,1,0,3,-4
1501926587170828,8,2,1,-2,2,3,2,-33
1501926587170828,7,1,-2,-2,-7,3,14,14
1501926587172775,16,-1,3,26,2,2,-2,-6
1501926587172775,3,-4,-6,-44,3,-4,-6,14
1501926587193809,-8,-1,6,46,-7,-5,-2,-28
1501926587193809,0,-2,9,1,-3,-3,3,68
1501926587195765,-1,-3,-5,37,6,-3,-3,-30
1501926587195765,44,-3,-6,-24,-6,-6,-10,9
1501926587215807,-5,-3,-8,-36,0,0,-2,3
1501926587215807,-14,1,-1,-37,-12,0,10,-8
1501926587217776,57,-8,4,55,-2,-4,-6,71
1501926587217776,-53,-1,1,-18,5,2,-1,-42
1501926587231804,20,-2,-11,-7,-5,0,-11,-37
1501926587231804,14,1,-12,-9,-4,-1,11,-6
1501926587233777,-42,-5,-11,-14,-5,-6,-12,9
1501926587233777,-3,1,9,14,6,1,1,0
1501926587253816,10,0,3,10,-1,-2,12,-37
1501926587253816,-17,-3,-2,-26,-3,0,-15,-13
1501926587255771,26,4,1,20,6,3,2,-24
1501926587255771,-7,3,0,20,1,-2,4,-29
1501926587275809,-9,-3,-8,-45,-15,-1,9,29
1501926587275809,-19,0,6,27,4,-1,-13,-64
1501926587277803,-2,3,3,-4,6,0,5,-6
1501926587277803,8,-2,-4,15,0,-2,-5,17
1501926587290813,20,-2,-2,23,-2,-2,0,55
1501926587290813,6,4,7,7,4,5,5,3
1501926587297787,21,1,-2,-46,-9,-6,-7,-25
1501926587297787,3,1,13,33,11,-1,5,9
1501926587313812,-24,3,-1,20,6,1,-5,-36
1501926587313812,3,-8,-27,-61,-13,-6,2,-6
1501926587314771,37,2,2,-10,-1,-2,6,30
1501926587314771,21,-5,-9,27,1,6,-3,50
1501926587335773,-15,5,10,-1,9,1,3,-27
1501926587335773,-5,3,15,109,5,2,31,-54
1501926587337774,-28,-2,-18,-77,-14,-1,7,-44
1501926587337774,22,0,3,14,5,-2,0,30
1501926587350817,31,-9,-17,-40,-19,-5,-4,-16
1501926587350817,-3,0,5,23,8,3,-15,42
1501926587357788,-29,7,9,4,5,-1,-5,-18
1501926587357788,-3,-3,2,5,-2,-4,3,14
1501926587373817,-12,-1,0,-6,1,-2,-21,-53
1501926587373817,16,2,6,3,-1,3,19,66
1501926587374781,-12,2,-4,-20,-4,-1,-5,-15
1501926587374781,0,-4,8,4,-1,-1,-3,39
1501926587395820,-9,3,-2,10,9,0,4,11
1501926587395820,6,-8,-7,-32,-20,-10,-11,14
1501926587397809,-11,-1,-8,-9,-6,-2,1,23
1501926587397809,-16,0,2,-5,0,2,-3,-38
1501926587418839,-15,-2,5,-10,-3,3,5,6
1501926587418839,-5,-1,-2,8,9,0,0,0
1501926587419792,20,2,13,49,7,-1,-7,-1
1501926587419792,1,-1,-9,-68,-10,-5,-7,-88
1501926587433778,20,-4,-5,1,-4,-2,-2,-20
1501926587433778,-66,-4,-5,-19,3,0,5,20
1501926587434795,-9,4,1,14,5,-1,-12,-78
1501926587434795,4,3,8,37,6,0,-2,14
1501926587454823,-6,-1,0,-25,-6,3,0,21
1501926587454823,19,-3,-10,-23,-8,0,14,25
1501926587472782,-11,-2,5,18,2,-5,-4,41
1501926587472782,-25,4,-9,-22,-3,1,4,-35
1501926587473783,17,2,9,3,2,3,-3,-43
1501926587473783,-10,1,-1,15,5,3,-7,-31
1501926587477794,19,-4,4,10,-7,-5,1,27
1501926587477794,3,-3,-7,6,3,-3,-3,-16
1501926587493824,-22,-4,-3,-6,-7,-7,4,-5
1501926587493824,16,0,-3,-6,4,1,-6,-14
1501926587495782,2,-5,-8,7,5,1,5,9
1501926587495782,-9,-2,11,16,-3,3,1,47
1501926587515822,-17,-3,-13,-10,2,-2,0,51
1501926587515822,14,0,2,8,-3,-1,-2,-10
1501926587517784,-16,-2,-4,-34,-6,-1,1,9
1501926587517784,-9,-2,-2,13,0,0,-1,-23
1501926587530845,-23,4,0,19,3,5,9,33
1501926587530845,2,0,1,-4,-5,-3,-23,-23
1501926587537796,-7,-5,3,2,9,-1,3,25
1501926587537796,9,3,0,2,-6,3,18,-29
1501926587553831,-5,-3,3,-2,1,-3,1,-48
1501926587553831,13,-1,-16,-6,-12,-7,-29,30
1501926587555788,-14,-3,1,8,4,-3,4,-40
1501926587555788,-20,1,0,-7,3,-1,-7,1
1501926587576805,4,1,1,-31,-7,0,-2,25
1501926587576805,4,0,0,-29,-7,-4,-11,-1
1501926587577787,11,-4,-10,2,-2,1,-3,7
1501926587577787,13,-4,-7,5,1,-1,-4,8
1501926587589837,-4,0,0,-6,-10,-3,-2,-45
1501926587589837,15,-2,5,34,0,0,6,31
1501926587598801,1,-1,2,2,4,1,-4,-26
1501926587598801,12,-2,-1,-12,-5,-4,-9,-11
1501926587613832,3,0,-1,9,3,-1,-1,25
1501926587613832,-1,-3,0,-3,0,1,10,-40
1501926587614797,-6,4,2,4,0,-2,-4,81
1501926587614797,-7,-7,-6,-12,-4,-3,-5,-28
1501926587635834,-4,-3,-5,7,-1,-1,2,-10
1501926587635834,6,0,2,26,4,5,6,5
1501926587637796,-4,-1,-1,-34,-5,0,0,-21
1501926587637796,-4,-1,4,3,3,3,-10,13
1501926587649840,66,4,-1,8,1,1,11,59
1501926587649840,-12,-3,-15,-23,-4,-5,-3,-40
1501926587658799,-26,-2,-4,16,1,-2,4,-43
1501926587658799,-3,1,2,-16,-5,-4,-6,-72
1501926587673830,-31,-5,-7,17,-4,1,-1,0
1501926587673830,14,2,8,-5,4,2,4,2
1501926587675793,15,5,-3,-11,4,-1,-3,15
1501926587675793,-9,-4,-7,-23,-15,-5,-1,5
1501926587695835,-18,-2,8,52,2,-1,-11,-16
1501926587695835,-24,-3,1,-14,-8,-6,-1,-23
1501926587697797,1,-3,5,16,7,1,3,9
1501926587697797,16,0,-2,13,1,3,11,2
1501926587709834,-8,-2,-18,-42,-7,-6,-7,-1
1501926587709834,34,-5,-6,2,-9,-8,-1,87
1501926587718808,-28,0,3,-7,1,3,-4,3
1501926587718808,-10,3,4,16,8,2,-10,25
1501926587733836,3,-1,1,10,5,0,1,-23
1501926587733836,-1,-4,-4,-2,-7,-2,-2,3
1501926587734796,9,-5,-1,-1,0,-5,-14,65
1501926587734796,5,-4,-3,7,-9,-2,4,13
1501926587771810,53,-1,-1,-10,-2,-7,-9,78
1501926587771810,42,-5,-5,-1,-9,-5,6,23
1501926587773799,10,2,-5,-8,6,3,-6,10
1501926587773799,-55,-2,0,-3,2,10,31,51
1501926587773799,34,0,2,-8,-4,-3,2,1
1501926587773799,-43,0,6,33,1,-2,-7,-14
1501926587778801,7,-3,2,20,6,-1,-2,-45
1501926587778801,8,-2,-9,-63,-21,-6,-11,3
1501926587793841,7,-5,-8,-12,-3,1,10,10
1501926587793841,-17,5,8,4,9,0,3,-9
1501926587795812,-7,1,6,55,9,5,3,-1
1501926587795812,-2,-7,-16,-69,-16,-11,-6,7
1501926587815845,-9,-2,1,-7,-6,-7,-31,-41
1501926587815845,4,5,-3,13,6,7,27,-28
1501926587817834,-1,0,5,-31,-4,-1,3,39
1501926587817834,21,2,6,-5,2,3,1,-9
1501926587829822,-24,1,0,11,-3,0,1,-2
1501926587829822,0,-2,-4,-5,3,-4,-14,4
1501926587855803,-8,-7,-2,-17,-2,-6,1,-22
1501926587855803,54,2,1,37,1,3,22,41
1501926587856805,-48,-4,6,11,2,1,-10,-50
1501926587856805,-26,1,-6,-7,2,3,2,-30
1501926587859841,9,-3,0,-12,-2,-4,-9,50
1501926587859841,-5,1,-1,2,3,-4,-13,-17
1501926587875845,-28,-1,-2,11,-3,-1,1,-30
1501926587875845,16,-2,-4,-12,-4,-2,0,28
1501926587877805,-8,-1,-4,-32,0,-7,-3,-21
1501926587877805,3,-1,3,64,-4,-3,-7,17
1501926587889846,0,2,4,-29,1,1,4,16
1501926587889846,-6,1,2,11,1,0,-3,-3
1501926587898816,1,1,0,-17,-1,6,16,34
1501926587898816,-15,4,14,52,14,2,-9,-11
1501926587913807,7,2,-20,-67,-9,3,19,-11
1501926587913807,-10,-4,3,7,-6,-9,-16,-58
1501926587914806,-4,-1,-2,20,4,-1,-11,-14
1501926587914806,4,-2,-7,-19,0,-3,-12,-15
1501926587935808,-13,4,15,44,11,5,2,14
1501926587935808,-31,0,1,25,2,1,15,16
1501926587937820,11,-3,-7,-35,-8,-2,9,-88
1501926587937820,-1,-1,3,-20,-6,5,2,7
1501926587949850,-54,-6,-9,-5,-5,-4,-1,9
1501926587949850,1,-1,3,13,3,-6,-13,-38
1501926587958851,4,-1,7,26,-2,0,-7,13
1501926587958851,-12,-4,-8,-4,2,1,10,19
1501926587973837,62,2,3,19,0,-6,-8,-37
1501926587973837,1,-2,-5,-30,0,3,0,27
1501926587974809,-24,0,-5,0,0,3,9,-57
1501926587974809,5,0,-1,-3,2,1,13,6
1501926587995855,2,-1,-2,10,-4,-3,4,19
1501926587995855,2,4,9,19,5,-2,-3,16
1501926587997813,14,-2,-12,-58,-13,-6,-3,7
1501926587997813,-12,-1,-1,14,0,4,3,-9
1501926588009853,-7,-1,4,35,-1,-2,-19,-2
1501926588009853,4,-4,-1,-3,0,3,40,-1
1501926588019822,-10,0,2,13,2,-3,-19,2
1501926588019822,10,-2,-3,-13,-3,-9,0,-3
1501926588032850,-2,-1,-6,-17,-4,0,1,4
1501926588032850,11,1,-9,-5,3,-4,-15,-50
1501926588046843,-8,0,3,-20,0,0,-2,-10
1501926588046843,-7,-4,-14,-11,-11,-9,-13,-21
1501926588055834,15,5,4,-15,3,-1,8,-4
1501926588055834,2,0,1,-10,-2,5,1,20
1501926588057815,-12,-1,-1,20,5,1,-8,-31
1501926588057815,-7,-4,1,-4,-1,-8,-22,-9
1501926588078835,-40,-3,-1,20,4,5,30,56
1501926588078835,20,2,-2,-25,-4,-4,-20,-6
1501926588079835,7,0,0,15,-3,5,23,-19
1501926588079835,0,1,3,-16,3,0,-7,5
1501926588093860,-1,-2,2,23,-1,-2,-4,10
1501926588093860,-7,-2,-6,52,-2,-5,5,10
1501926588094823,0,0,-1,-44,-10,-6,-9,24
1501926588094823,-5,0,2,13,-2,2,2,-22
1501926588115884,37,1,5,13,2,2,-3,-14
1501926588115884,10,2,6,-16,3,-2,-17,7
1501926588117851,6,-1,0,6,-4,-1,2,6
1501926588117851,-8,-2,8,45,4,-2,-11,-9
1501926588138866,3,-5,-31,-89,-14,-2,-16,10
1501926588138866,-28,-3,4,-3,-1,4,12,8
1501926588139829,1,1,-2,23,2,3,9,17
1501926588139829,19,-1,0,-23,0,2,20,29
1501926588153822,3,-3,6,32,2,-4,-13,13
1501926588153822,-20,3,4,-21,4,-6,-19,-43
1501926588154820,-15,0,-4,-29,-11,-5,-8,3
1501926588154820,1,2,14,38,4,5,-3,-1
1501926588175860,-23,-4,-13,12,-5,-3,-16,6
1501926588175860,-8,-3,-3,-41,4,8,40,27
1501926588177821,61,-5,-2,39,0,-8,-21,38
1501926588177821,-5,0,-6,-14,-1,6,13,-2
1501926588198713,9,1,12,3,-4,-3,5,55
1501926588198713,-2,-2,-2,-18,3,2,-7,-21
1501926588200646,-6,-2,4,58,-1,-3,-4,-2
1501926588200646,16,-3,-10,-30,-6,-2,-11,-6
1501926588212645,-13,0,3,-6,-5,0,2,-32
1501926588212645,15,1,3,0,1,-5,-4,10
1501926588219648,-20,-6,-24,-3,-1,1,-9,-25
1501926588219648,-11,1,-7,-1,3,1,16,28
1501926588236648,-3,0,14,52,3,2,33,-33
1501926588236648,2,-3,-6,-49,-2,-5,-12,20
1501926588237647,4,1,2,7,0,2,-5,24
1501926588237647,-6,1,-1,-16,-4,-1,1,-29
1501926588258691,-4,1,0,13,4,1,-5,16
1501926588258691,-6,-2,-3,-6,2,-1,-2,-28
1501926588260648,-3,-2,1,-15,-6,-3,0,2
1501926588260648,-1,0,-6,4,1,3,7,28
1501926588272692,-7,-2,0,-19,-3,-3,-12,-15
1501926588272692,3,-1,-3,33,-1,-4,-3,2
1501926588279689,12,-2,-11,-44,-3,-8,-11,1
1501926588279689,-6,2,4,5,2,6,0,-7
1501926588303656,-6,-6,-9,9,1,3,18,-13
1501926588303656,-14,4,10,-19,2,2,-15,4
1501926588305651,7,1,10,36,5,1,18,-32
1501926588305651,-10,-2,-6,-12,-6,-5,-19,-6
1501926588326672,3,-1,-6,-22,-1,-3,-5,-2
1501926588326672,3,-3,-1,8,6,-5,-21,2
1501926588327652,8,1,6,44,4,3,33,13
1501926588327652,-4,0,-2,-30,-14,0,0,-27
1501926588332719,-1,0,-6,-22,0,1,9,-17
1501926588332719,14,0,-4,-20,-8,-3,-2,-2
1501926588339692,-1,-5,0,-10,1,-3,-20,-9
1501926588339692,0,2,2,27,-1,-3,12,11
1501926588356661,1,2,9,17,3,0,6,-2
1501926588356661,0,-2,-11,-26,-1,-3,-1,-8
1501926588357665,-18,-2,3,-16,-6,3,-11,-27
1501926588357665,-2,-2,-13,15,-7,-6,-9,6
1501926588386722,5,-4,2,-16,-4,-1,-14,-24
1501926588386722,-2,1,2,9,0,-2,4,-36
1501926588388657,-3,1,7,-7,3,3,5,9
1501926588388657,-2,-3,4,22,5,-3,-4,-4
1501926588392695,-4,-2,-12,-38,-5,-1,11,1
1501926588392695,1,-2,1,24,-8,-2,-6,9
1501926588399697,-7,-2,-8,-40,-5,0,8,8
1501926588399697,4,-2,-2,-12,-2,0,-2,-7
1501926588416680,2,-1,0,23,-1,-4,-1,19
1501926588416680,-4,1,9,20,9,1,3,-18
1501926588417673,-3,3,4,19,-3,0,8,16
1501926588417673,-7,-2,4,18,-4,2,8,42
1501926588438701,-3,-2,-17,-25,-2,-5,-4,-32
1501926588438701,1,1,13,9,5,4,-4,15
1501926588440660,0,-2,-16,0,-3,-2,-3,7
1501926588440660,-14,-3,0,-10,5,0,-7,-15
1501926588452684,44,-1,4,19,0,0,-1,15
1501926588452684,-23,-2,-5,2,3,3,19,6
1501926588459702,-4,2,5,-17,-1,-1,0,13
1501926588459702,12,0,3,-14,-3,-2,-24,-8
1501926588476683,-21,-5,-12,-8,-6,-6,-1,2
1501926588476683,7,-2,-2,13,5,5,-5,-15
1501926588477661,-1,-1,-1,19,2,-1,-8,2
1501926588477661,-5,2,-2,-21,-4,-4,-6,2
1501926588498706,-7,1,3,-8,-1,-5,-18,-17
1501926588498706,1,-1,-3,3,-7,3,27,21
1501926588500663,-3,3,0,-10,-2,3,9,-22
1501926588500663,10,1,2,3,0,7,7,5
1501926588512678,-6,0,5,3,5,2,22,22
1501926588512678,8,-2,-3,-20,-2,-4,4,17
1501926588519663,-1,-5,-3,19,-9,-5,-27,-16
1501926588519663,6,0,0,12,0,3,2,24
1501926588536666,-9,0,4,3,3,-1,-6,-12
1501926588536666,-5,1,2,37,-2,-4,-31,10
1501926588537665,-6,-1,-4,-12,-3,1,23,5
1501926588537665,5,-4,-5,8,-5,-6,-4,5
1501926588558701,-8,-5,-13,-11,1,-2,-14,-23
1501926588558701,4,-2,4,8,0,-1,-6,26
1501926588560664,-3,0,2,-15,0,-1,-2,-11
1501926588560664,-6,-4,-6,11,-6,-8,-3,-7
1501926588581686,6,2,10,-1,0,-1,-13,-16
1501926588581686,-2,-5,-9,4,-6,-5,-20,-15
1501926588582677,-1,0,1,8,-2,0,11,5
1501926588582677,0,-2,-8,-19,-5,1,8,-12
1501926588595667,2,0,2,-9,1,-6,-4,18
1501926588595667,-1,3,1,-5,-2,2,5,-37
1501926588603668,-4,-3,-1,-8,7,6,-2,6
1501926588603668,-14,-1,2,5,-3,-4,0,-23
1501926588618712,9,2,3,26,-2,-1,19,5
1501926588618712,-7,1,-1,10,-1,-2,6,19
1501926588626674,3,0,-9,-10,0,2,3,18
1501926588626674,-1,0,-1,5,2,-8,-29,2
1501926588632693,-5,1,6,-6,2,1,3,-7
1501926588632693,3,-3,-2,-12,-1,3,-2,4
1501926588641680,-7,-1,0,30,-5,-3,-3,-22
1501926588641680,5,0,-1,-7,-2,-1,1,14
1501926588656671,-19,-1,-4,-21,1,-2,-12,13
1501926588656671,17,-2,2,8,-3,-1,14,-26
1501926588657693,7,0,2,5,-4,-1,9,-1
1501926588657693,-6,-2,-4,0,1,-5,3,-1
1501926588678738,-1,2,3,-36,2,4,-4,-10
1501926588678738,-14,-6,-7,-9,-1,-1,-3,2
1501926588680673,5,1,3,0,0,-1,-17,-1
1501926588680673,13,-4,-9,12,-7,-2,21,30
1501926588692697,-9,2,13,14,5,-3,-8,-78
1501926588692697,0,-1,-12,-78,-8,-5,-14,-10
1501926588701675,1,-3,-4,41,-6,-3,8,-4
1501926588701675,-3,-2,3,-4,-5,2,6,0
1501926588716698,-12,-1,-4,5,2,-1,-4,11
1501926588716698,-1,0,9,1,4,-1,-9,17
1501926588717677,-6,-2,-8,-8,-1,-4,5,-11
1501926588717677,4,0,-5,-3,-1,-1,4,-4
1501926588738735,3,-2,0,-26,-8,0,5,1
1501926588738735,-4,0,5,18,2,1,-6,-17
1501926588740700,0,1,5,-11,3,-1,-9,24
1501926588740700,6,-3,-14,-10,-5,-7,-11,-40
1501926588752690,-3,-1,-1,-4,6,1,-7,9
1501926588752690,4,0,-4,14,-4,-4,0,14
1501926588761679,-1,-2,6,-13,-4,1,3,2
1501926588761679,-6,1,3,10,2,-3,-5,-5
1501926588776696,6,2,10,5,-1,-2,-4,10
1501926588776696,-2,0,-5,-4,0,1,4,-5
1501926588777679,-5,-1,-10,-33,-2,-4,-8,0
1501926588777679,-6,-1,-6,-17,-3,-1,-2,-4
1501926588798721,4,0,-1,20,5,0,-1,5
1501926588798721,3,1,8,13,-3,1,-3,22
1501926588800715,7,1,5,-12,-3,-5,15,-34
1501926588800715,-10,3,1,6,5,5,4,-3
1501926588812692,9,1,1,9,1,3,6,19
1501926588812692,-5,-2,-5,-20,-15,2,22,-1
1501926588821691,-37,1,4,25,2,-9,-16,0
1501926588821691,-12,-2,-1,-23,4,1,-7,-51
1501926588835682,4,0,-2,27,9,2,4,15
1501926588835682,-1,-3,3,-1,5,0,-18,4
1501926588837692,16,-4,-9,2,-4,0,9,10
1501926588837692,4,-2,-18,-75,-11,-6,2,21
1501926588858759,-10,-4,-1,-14,0,-4,-13,-22
1501926588858759,9,3,-6,17,2,4,0,11
1501926588860719,3,-3,0,31,1,2,-2,2
1501926588860719,-5,-3,6,-9,3,-3,-4,2
1501926588881703,6,0,0,40,-1,1,-10,-12
1501926588881703,-5,-4,-6,-61,-11,-7,-2,11
1501926588882685,11,2,2,11,3,3,-17,-5
1501926588882685,-1,2,13,26,5,2,4,10
1501926588896724,-3,-1,-11,22,1,-3,-7,9
1501926588896724,-1,-3,-8,-69,-12,-9,6,-15
1501926588897687,-3,0,-1,9,3,10,-2,12
1501926588897687,6,-2,0,18,-1,-6,-17,19
