timestamp,emg1,emg2,emg3,emg4,emg5,emg6,emg7,emg8
1501932503795187,50,-36,-10,39,-5,-21,-67,33
1501932503795187,-68,15,15,9,3,17,72,41
1501932503796187,89,21,1,-9,1,1,-16,19
1501932503796187,-39,23,54,28,11,22,89,-27
1501932503796187,-30,-12,0,-19,-13,-14,-48,0
1501932503796187,29,-20,-28,-49,-8,-3,23,-96
1501932503800191,-39,-26,-78,3,-6,-18,-14,-45
1501932503800191,51,12,9,21,3,6,43,5
1501932503806234,-37,-6,-12,-3,5,18,32,25
1501932503806234,31,20,33,26,5,7,48,70
1501932503815226,19,-20,-11,16,3,12,60,-20
1501932503815226,5,-1,-10,-38,-13,-21,-22,63
1501932503823189,31,22,26,9,11,11,27,50
1501932503823189,-19,-13,-31,-6,-6,4,4,12
1501932503837251,-9,-16,-33,0,4,3,75,22
1501932503837251,17,0,70,10,1,-2,-54,-35
1501932503845227,-37,-2,10,17,2,6,30,13
1501932503845227,21,14,0,8,10,2,13,-45
1501932503860230,-38,3,9,-9,-5,-3,-53,-23
1501932503860230,-26,-16,-11,-65,-3,7,39,-5
1501932503868191,-23,11,-10,-28,-7,-8,63,-66
1501932503868191,101,-4,24,10,3,-6,-41,35
1501932503881248,-44,21,17,11,-2,-4,27,-73
1501932503881248,61,1,3,14,4,9,46,59
1501932503924208,-12,3,36,-15,-3,2,-9,-10
1501932503924208,-43,-7,-6,2,1,1,-28,45
1501932503928212,16,14,2,21,7,5,-2,-42
1501932503928212,-25,-4,-24,-10,-7,-12,-27,69
1501932503928212,95,-4,-4,7,4,6,-41,-60
1501932503928212,-60,16,5,-3,2,7,67,1
1501932503929206,11,-1,21,-10,-2,0,13,-7
1501932503929206,71,8,12,21,5,8,5,19
1501932503934276,-44,-3,-22,22,2,-5,36,9
1501932503934276,3,0,-14,-17,-7,-12,-79,-18
1501932503943198,-9,-9,-3,-12,-3,-2,8,-4
1501932503943198,-34,-11,-12,-11,-4,-7,6,12
1501932503957232,16,13,10,11,6,12,75,57
1501932503957232,8,3,18,19,4,0,25,-14
1501932503964269,-8,-5,-6,10,-2,-2,8,48
1501932503964269,-14,-3,30,-17,-3,6,8,-10
1501932503971240,-17,-11,-41,-13,-8,-17,-38,4
1501932503971240,4,-16,-7,-7,-5,4,-16,20
1501932503994272,35,-19,-24,-15,-5,-10,-70,-28
1501932503994272,78,9,19,30,3,1,55,-13
1501932503995211,9,1,4,-40,5,14,48,17
1501932503995211,40,-10,11,7,-10,-5,27,15
1501932504009261,52,2,-19,-8,-6,-4,-68,-35
1501932504009261,-3,3,-33,40,4,-4,-74,-46
1501932504010216,-25,4,8,-30,-10,-8,7,1
1501932504010216,24,-17,-5,-1,-3,-8,11,26
1501932504032273,-40,8,44,8,8,-2,-20,19
1501932504032273,-19,7,9,20,7,7,25,-46
1501932504033225,2,3,-1,-23,-11,-5,-29,-14
1501932504033225,-18,10,-11,-20,-1,-6,-20,-29
1501932504054236,-6,-17,2,-3,0,8,40,26
1501932504054236,-17,-16,21,0,3,5,32,49
1501932504055203,-22,0,-17,-1,-1,8,54,4
1501932504055203,14,4,3,-5,1,-2,20,11
1501932504069279,-22,6,-11,-1,-5,1,39,-34
1501932504069279,21,0,-4,-7,-3,1,20,26
1501932504070217,92,-5,18,23,4,-6,-52,12
1501932504070217,-29,-1,8,16,5,-2,-8,26
1501932504092272,-20,1,-30,-41,-12,-5,-17,1
1501932504092272,-35,-6,-7,-29,-2,4,-40,-4
1501932504093218,-54,-6,19,4,2,2,58,-13
1501932504093218,88,-2,-12,-3,-4,-3,-59,-62
1501932504114277,15,0,18,28,14,13,24,28
1501932504114277,-3,18,-10,-20,-10,-9,-16,-12
1501932504115237,-34,-11,-13,6,-6,-11,-65,-39
1501932504115237,-32,-2,20,7,1,6,17,31
1501932504129280,8,-12,-24,-4,-3,-1,-4,-3
1501932504129280,-2,-10,-17,-1,-1,-1,36,-13
1501932504137255,-1,14,21,9,8,10,41,-2
1501932504137255,-11,-15,-26,9,-3,9,31,-7
1501932504152267,16,9,5,-35,-13,-10,-27,10
1501932504152267,-22,8,-11,-11,-1,-17,-126,-87
1501932504153224,3,17,4,14,4,15,49,-8
1501932504153224,0,-4,-18,-5,1,16,62,-1
1501932504174279,-11,-6,2,11,-3,2,-14,1
1501932504174279,4,-8,-22,-16,0,5,25,6
1501932504175216,5,-4,21,25,1,10,23,25
1501932504175216,9,15,-45,-22,-3,-10,-19,-39
1501932504189284,-26,-12,44,41,5,-13,-46,-9
1501932504189284,-29,-9,-15,-83,-19,-4,-44,23
1501932504197227,3,0,0,-7,2,-13,-67,-33
1501932504197227,-19,-2,21,14,1,-1,-28,-13
1501932504212281,8,9,-12,6,-2,2,37,37
1501932504212281,-2,7,21,16,4,-2,14,-3
1501932504213213,-7,-19,-9,-4,-4,-10,-37,47
1501932504213213,-35,6,16,6,1,-16,-127,-2
1501932504234274,50,10,2,12,9,17,35,77
1501932504234274,-11,20,-1,-25,-7,8,33,-44
1501932504235225,5,5,-20,-15,-7,-4,9,-33
1501932504235225,0,-26,0,-7,-5,-13,-10,20
1501932504249284,-2,-4,-14,12,-1,-8,13,-16
1501932504249284,-16,-9,4,20,1,1,56,61
1501932504257229,-3,-1,-3,0,-2,-9,-86,-15
1501932504257229,-2,7,13,-2,3,2,37,-5
1501932504272216,-8,-3,-10,-19,-3,2,84,-31
1501932504272216,-13,-15,19,7,-2,-1,-13,12
1501932504273219,23,3,-19,5,3,-4,-37,-1
1501932504273219,-4,3,14,1,1,9,76,-48
1501932504294282,-15,7,6,-23,-7,-5,-29,-37
1501932504294282,18,-7,-15,8,-3,1,3,-11
1501932504295231,-64,-5,-6,23,2,-8,13,8
1501932504295231,-34,4,-1,-36,-10,-7,-67,33
1501932504309259,60,8,-15,-5,1,2,26,33
1501932504309259,3,-8,7,12,0,-12,27,3
1501932504317252,-19,7,13,6,1,11,-41,4
1501932504317252,52,0,-9,10,5,8,-13,-55
1501932504332289,-34,2,17,-6,1,8,57,38
1501932504332289,25,1,-13,15,4,-6,-29,-15
1501932504333218,10,-4,0,-7,4,2,-36,17
1501932504333218,10,10,-9,-8,-4,7,97,-16
1501932504354281,-18,-10,-18,12,-4,-12,-106,-22
1501932504354281,-4,3,17,7,4,2,-38,15
1501932504355229,42,1,-6,-11,-3,2,31,-25
1501932504355229,5,-6,-13,17,6,5,0,16
1501932504369243,10,-18,-18,-12,-10,-8,-4,11
1501932504369243,-34,2,25,-2,-1,3,-16,7
1501932504377287,1,-6,-44,-12,-4,0,44,28
1501932504377287,9,4,3,2,-6,-5,-24,35
1501932504392223,-11,-3,10,4,-1,-1,-11,-1
1501932504392223,-6,-1,-11,-1,1,1,25,50
1501932504393222,4,-3,20,11,0,0,56,13
1501932504393222,19,2,5,-8,1,-1,-16,57
1501932504414235,-26,17,3,-1,6,13,92,-51
1501932504414235,1,2,-23,-7,-3,-5,-14,-28
1501932504415241,-58,-1,42,3,-4,-8,-8,-23
1501932504415241,-23,3,0,11,2,-2,18,-11
1501932504429234,-28,-6,-8,-8,-3,-6,-30,58
1501932504429234,-11,5,3,-2,0,-4,-23,-41
1501932504437291,23,6,-17,0,1,-1,-25,-12
1501932504437291,-12,-6,8,1,0,1,28,-23
1501932504452271,-10,2,9,-5,0,-5,-9,-25
1501932504452271,15,-1,2,21,3,5,15,-8
1501932504453228,-2,-7,-2,-43,-9,-10,-41,33
1501932504453228,-8,-1,-4,5,0,-7,-58,-12
1501932504474288,0,0,-2,-10,4,7,-19,-52
1501932504474288,29,-15,8,1,-3,-7,1,-10
1501932504475234,1,4,-3,4,-3,-5,-60,10
1501932504475234,15,-4,-26,-11,-6,-4,-14,-7
1501932504489279,-17,-2,-13,-4,-7,-26,-82,-13
1501932504489279,19,10,3,8,5,11,29,40
1501932504497295,-19,-9,2,9,1,5,9,-58
1501932504497295,-4,5,-2,-13,0,-4,-3,-18
1501932504512303,-12,2,24,2,-1,2,43,12
1501932504512303,17,-1,-25,-12,-5,2,5,-46
1501932504513238,7,-5,-9,-4,-3,0,1,16
1501932504513238,-26,2,34,9,3,-4,-25,27
1501932504535272,-21,-6,-30,1,-1,2,-27,5
1501932504535272,-27,2,-16,-2,0,-5,-14,29
1501932504536232,6,-6,0,8,0,2,8,-2
1501932504536232,5,1,3,-8,-5,-2,14,-6
1501932504557296,22,-10,27,2,-4,0,23,5
1501932504557296,27,5,-19,-10,-4,-5,-64,7
1501932504558267,-2,5,6,26,0,-11,-51,-4
1501932504558267,-1,-5,4,-13,1,8,36,76
1501932504572297,-10,-4,-7,0,-3,3,47,6
1501932504572297,5,-5,23,-1,-3,-3,13,-8
1501932504573234,4,5,-2,-9,-3,0,52,12
1501932504573234,8,-5,10,9,2,-1,-51,35
1501932504594300,-18,-7,-9,-1,1,5,26,-41
1501932504594300,-15,7,8,-3,0,-2,20,-7
1501932504595243,-1,4,7,5,-1,5,30,4
1501932504595243,4,-8,-26,3,-2,1,43,-27
1501932504617296,0,5,6,-11,0,4,-14,-46
1501932504617296,79,-4,8,31,4,-1,11,-26
1501932504618236,-22,10,15,-26,1,8,27,27
1501932504618236,-38,-10,-3,-6,-5,-6,-6,-54
1501932504632277,9,8,-7,-2,-3,-14,-75,-7
1501932504632277,-28,-10,24,-4,0,0,8,12
1501932504633238,-5,-4,-26,1,-1,-2,-8,-19
1501932504633238,41,5,-3,3,-2,-2,15,50
1501932504654279,-3,-7,0,14,1,0,-21,-33
1501932504654279,-18,-9,-12,-21,-9,-10,-92,-12
1501932504655252,3,0,-6,-1,-4,-6,2,-45
1501932504655252,-6,4,-1,1,1,2,-38,-35
1501932504677303,-28,-8,-3,19,5,2,19,24
1501932504677303,-16,-5,9,5,1,3,8,18
1501932504678240,3,-4,-2,-18,-12,-6,-48,-1
1501932504678240,-33,-6,8,-3,-4,0,17,-2
1501932504692298,37,5,1,-2,-2,-5,-28,-22
1501932504692298,-9,-9,-22,-1,2,10,67,-41
1501932504693244,-4,-4,12,14,5,-1,6,9
1501932504693244,29,8,-12,12,-3,-12,-23,-65
1501932504714312,14,-7,-29,-45,-16,1,34,92
1501932504714312,-33,-9,-13,-8,-1,-2,-22,19
1501932504715255,-10,-4,2,-4,-4,0,37,-10
1501932504715255,-9,-1,12,13,5,8,66,-1
1501932504738275,-50,-3,25,11,5,3,29,19
1501932504738275,35,3,15,-9,-3,-8,-15,11
1501932504738275,39,-9,-19,-5,0,0,17,-31
1501932504738275,66,1,1,-7,0,2,7,27
1501932504752291,6,2,-16,-3,3,1,-31,29
1501932504752291,-57,5,21,2,-2,4,46,20
1501932504753244,10,15,10,13,1,-7,-7,23
1501932504753244,73,-17,-24,-19,-3,3,71,3
1501932504774318,-15,8,9,12,5,4,7,-9
1501932504774318,24,-16,-19,1,-3,-1,-24,-2
1501932504775255,-31,-4,21,7,2,6,40,68
1501932504775255,-45,4,-22,-8,1,0,8,-13
1501932504798247,-6,12,30,5,-4,-7,-38,-46
1501932504798247,-30,1,-52,-13,1,1,21,15
1501932504798247,84,-12,23,2,-2,2,72,18
1501932504798247,-34,-1,10,8,2,-1,8,-19
1501932504812310,3,-5,-18,-2,-2,3,7,33
1501932504812310,-11,3,21,3,-1,-3,-12,-26
1501932504813248,-14,2,-17,13,3,2,-29,-16
1501932504813248,4,4,17,-8,-4,-5,-35,-19
1501932504834286,17,-8,-14,11,0,-7,-58,22
1501932504834286,-20,6,6,-7,0,9,59,-8
1501932504835266,-54,8,-15,-14,-2,0,-15,-1
1501932504835266,-21,3,28,5,-1,-1,10,35
1501932504859253,-2,-9,-27,3,5,0,12,-24
1501932504859253,12,10,5,7,2,-1,8,-12
1501932504860251,-11,-7,-6,0,-1,-11,-58,-66
1501932504860251,10,1,-6,6,1,4,0,9
1501932504872311,57,18,9,-19,-9,-10,-21,-38
1501932504872311,56,-4,4,7,-1,1,-22,13
1501932504873261,-19,-1,-6,20,8,9,27,56
1501932504873261,-76,-9,-19,-40,-14,-4,-19,9
1501932504894280,27,13,-2,-10,1,4,12,-34
1501932504894280,16,15,-13,-6,-3,-9,-34,-6
1501932504903261,-49,-33,14,-4,-5,-7,-17,18
1501932504903261,25,2,3,12,3,0,-11,0
1501932504917313,-16,-1,8,6,0,8,21,12
1501932504917313,-84,19,17,3,0,-1,-36,-85
1501932504919289,25,-11,-6,8,0,-8,-27,-45
1501932504919289,-32,13,-18,-29,-7,-8,-43,21
1501932504940323,35,-59,-13,-9,-1,0,-29,103
1501932504940323,-30,-17,30,16,9,10,56,42
1501932504942256,53,63,-10,-6,-5,0,-23,-8
1501932504942256,-34,10,32,13,3,0,43,86
1501932504954306,-38,-3,-3,6,1,7,58,-42
1501932504954306,-17,-35,-13,-18,-9,-18,-49,7
1501932504963256,-42,-23,-26,-8,2,3,0,3
1501932504963256,5,3,13,7,-3,-4,-4,6
1501932504978276,6,21,-12,-5,-8,-20,-20,-21
1501932504978276,21,4,22,11,4,20,74,101
1501932504979259,-36,3,-15,-7,2,-6,-86,-6
1501932504979259,78,-9,-24,-9,-5,13,24,-92
1501932505000300,58,5,61,18,6,0,23,-80
1501932505000300,-33,-6,-21,-14,-8,2,11,-75
1501932505002259,7,-11,4,13,-5,-15,-77,-22
1501932505002259,-38,-17,-22,-17,4,9,-17,-4
1501932505014306,16,25,6,-11,-8,3,56,81
1501932505014306,103,12,20,23,1,-3,10,-70
1501932505023260,-14,-9,18,-32,0,7,34,56
1501932505023260,-36,-25,-41,4,0,-4,-53,-47
1501932505038284,13,-2,5,2,4,4,-14,-34
1501932505038284,-22,1,0,5,0,-5,-17,38
1501932505039261,-31,4,1,-12,-12,-12,2,67
1501932505039261,-25,0,-10,13,5,0,39,-7
1501932505060301,-11,18,-1,-1,4,-2,-63,-23
1501932505060301,-15,15,20,5,2,-4,-22,-48
1501932505062262,71,-15,-43,-6,-3,2,40,-29
1501932505062262,42,10,-6,4,1,-8,-42,54
1501932505082301,-49,-9,-6,6,5,9,-39,-40
1501932505082301,44,7,-23,-3,2,-3,19,62
1501932505084273,99,-1,27,0,-3,6,27,13
1501932505084273,66,19,10,9,3,0,54,40
1501932505097309,-51,-19,-25,-8,-1,-5,1,-10
1501932505097309,-14,-4,22,-3,0,-5,-62,67
1501932505099274,-58,4,-30,-4,2,-1,36,-52
1501932505099274,-11,-24,24,15,-2,-12,-18,-5
1501932505120308,-15,2,4,-12,-6,3,-17,71
1501932505120308,-68,-14,-46,-16,-7,-16,-17,-32
1501932505122266,36,16,20,1,2,0,-23,-89
1501932505122266,-61,-4,-1,4,-3,1,-24,-49
1501932505142279,66,3,-34,-6,-2,-14,-80,-52
1501932505142279,-3,5,-1,-2,-2,5,33,18
1501932505144267,-2,-11,11,3,1,-3,21,46
1501932505144267,-24,8,49,2,2,2,-36,-17
1501932505157329,-17,-13,-6,0,0,7,75,23
1501932505157329,37,-5,-38,-9,-1,6,26,19
1501932505159267,-86,-5,7,1,1,8,23,-75
1501932505159267,-2,3,23,-2,1,1,-25,-34
1501932505180310,-27,-2,-16,10,1,-2,28,22
1501932505180310,2,23,-1,-1,3,4,16,-18
1501932505182269,-21,-31,-11,-7,-6,-7,4,54
1501932505182269,127,-11,-32,-5,-8,-13,-22,-84
1501932505202341,-40,-13,71,9,-3,-4,-19,69
1501932505202341,-23,14,-6,-5,2,-1,-3,-40
1501932505204270,32,-13,1,14,2,5,2,14
1501932505204270,-25,-1,-43,-30,-4,-3,-22,4
1501932505217336,-41,6,18,-2,-2,-3,-10,-33
1501932505217336,77,-21,19,4,-1,-5,-10,-8
1501932505224290,10,25,23,4,2,-3,-57,-14
1501932505224290,6,20,12,12,5,13,69,-23
1501932505240314,-1,2,-32,-11,-5,0,49,-20
1501932505240314,-24,0,21,-3,-3,2,56,46
1501932505242272,-52,4,-30,-1,0,2,7,24
1501932505242272,-42,-22,18,5,-2,-6,-9,70
1501932505263292,49,4,-17,-1,5,6,24,-13
1501932505263292,40,-2,-10,1,-4,-5,-86,-38
1501932505264306,57,0,-7,5,1,1,6,70
1501932505264306,90,35,-8,-21,-4,0,-46,3
1501932505277339,-55,4,8,11,-6,-6,-22,-54
1501932505277339,-23,-7,12,-6,3,6,0,8
1501932505284306,26,17,-23,-15,-2,-3,77,-11
1501932505284306,29,-8,-9,7,-3,-1,3,47
1501932505300344,21,22,-3,3,2,-3,-29,-12
1501932505300344,-1,6,-3,-8,-1,-5,-33,-16
1501932505302277,14,-12,7,2,-1,-4,-43,0
1501932505302277,-96,-3,-9,-2,3,9,32,-39
1501932505322343,26,-8,-28,-6,-3,-1,25,42
1501932505322343,8,-14,29,5,-4,-9,-18,-18
1501932505324311,-10,-3,-13,-6,-6,-4,10,-28
1501932505324311,44,-27,5,8,1,-8,-51,-14
1501932505337300,-52,-12,6,-6,1,3,24,76
1501932505337300,-9,12,0,2,-1,-7,-76,-33
1501932505345286,25,-17,11,-8,0,4,4,-13
1501932505345286,26,12,21,15,-4,-15,-58,14
1501932505360319,-54,-5,10,8,5,9,23,21
1501932505360319,-10,-34,-49,-12,-4,5,54,33
1501932505362280,8,18,2,3,0,-1,-7,-31
1501932505362280,-45,-45,9,-18,-9,-3,-11,42
1501932505382342,-15,37,18,-1,4,1,-14,-45
1501932505382342,9,-22,-2,8,-4,-3,31,47
1501932505384289,-38,-1,-3,0,-2,-5,-44,-20
1501932505384289,-51,13,1,3,2,-5,32,-16
1501932505397283,41,-27,7,0,-8,-9,0,8
1501932505397283,-24,3,-8,-1,1,-2,-1,-5
1501932505404331,-3,-4,-6,-14,2,18,116,31
1501932505404331,75,-3,-11,1,4,8,-26,-25
1501932505420349,40,-12,-11,-1,0,-8,-99,-41
1501932505420349,-105,1,-24,-7,-11,1,45,-35
1501932505421294,17,16,16,-5,-3,-5,-59,65
1501932505421294,13,7,-10,68,1,-2,16,-29
1501932505442351,-18,-67,-54,-104,-33,-22,42,32
1501932505442351,46,19,28,26,6,3,-9,-29
1501932505444320,51,18,15,14,1,-1,14,-23
1501932505444320,-122,-3,-42,-10,-1,2,22,15
1501932505457350,49,-24,30,6,-5,-4,8,-40
1501932505457350,-46,-15,-12,-5,-2,1,41,42
1501932505464285,30,-11,-33,-27,-1,0,-48,-62
1501932505464285,65,31,31,9,4,2,-12,46
1501932505480352,-24,18,4,22,7,8,48,-8
1501932505480352,-75,-21,-38,-23,-5,-5,0,-36
1501932505482299,28,6,25,22,1,0,-16,14
1501932505482299,-28,-17,10,5,2,0,-19,-7
1501932505503322,-82,-5,-45,-19,-5,-6,12,-71
1501932505503322,32,28,21,17,10,7,62,30
1501932505504288,23,-16,-3,1,-3,-1,14,18
1501932505504288,-44,17,7,1,2,-1,-33,-23
1501932505517352,51,5,19,19,4,1,-15,74
1501932505517352,54,-2,-12,-8,-3,-4,10,31
1501932505524307,-11,7,0,-13,-5,-7,9,-27
1501932505524307,43,-1,-7,-17,3,0,-12,-44
1501932505540355,-10,37,41,54,11,6,-36,-70
1501932505540355,-7,-17,-18,-54,-14,-17,-50,24
1501932505542290,-83,-9,-4,-3,2,15,57,-15
1501932505542290,105,22,25,-14,-6,0,33,-14
1501932505562333,42,0,-37,4,3,1,22,-15
1501932505562333,-26,9,14,5,-3,-2,-35,2
1501932505564301,33,-12,5,-3,-3,-14,-14,27
1501932505564301,-32,0,-18,-3,1,1,47,26
1501932505576355,65,-11,11,-1,-2,9,26,23
1501932505576355,19,5,-4,15,7,2,-53,-42
1501932505585300,-18,7,30,13,1,-1,-52,-19
1501932505585300,-39,-20,-21,-16,-11,-5,-17,-16
1501932505600335,4,5,7,1,0,2,16,3
1501932505600335,16,9,-2,5,0,1,-22,-13
1501932505602293,-46,16,11,7,0,0,6,9
1501932505602293,42,-24,-1,-9,-3,-1,15,11
1501932505622333,4,14,9,4,-2,-3,-26,-4
1501932505622333,-2,-6,-7,-5,-1,-2,29,3
1501932505624306,-20,-13,-12,1,-6,-6,2,-10
1501932505624306,-12,2,-1,-5,-2,-2,-38,-6
1501932505636363,-18,15,2,13,5,6,38,18
1501932505636363,86,16,7,-8,1,6,11,4
1501932505645303,11,-5,-4,3,-4,-4,-35,15
1501932505645303,-39,-1,-11,-8,-4,-1,-4,0
1501932505660357,-54,-14,-2,2,-1,-5,-9,-28
1501932505660357,-33,2,5,12,2,6,31,9
1501932505662300,-17,-2,0,0,-1,-1,-30,29
1501932505662300,20,14,17,-2,0,2,45,-51
1501932505682348,4,-2,-27,-18,-12,-8,-26,-15
1501932505682348,24,-3,1,5,-2,-2,31,29
1501932505684299,-30,-9,-15,-10,-2,-3,33,17
1501932505684299,16,-23,5,4,-1,3,-12,105
1501932505705340,-13,29,20,-1,2,0,6,24
1501932505705340,7,6,13,8,2,-14,-70,-12
1501932505706311,-14,4,-48,-15,-7,6,60,14
1501932505706311,-10,12,32,13,0,-1,-10,13
1501932505720340,27,3,-21,-7,6,9,15,44
1501932505720340,-49,-19,-2,3,-3,-3,-39,-68
1501932505722301,77,4,20,13,9,6,-6,-77
1501932505722301,-7,-13,-40,-5,-1,2,58,15
1501932505742341,-9,2,11,8,0,3,12,39
1501932505742341,44,-23,-28,-8,-3,-3,0,18
1501932505744311,-63,0,15,-17,-1,-13,-29,-8
1501932505744311,-73,-4,0,2,1,7,53,-103
1501932505756340,23,-15,-7,-7,-8,-9,-40,-64
1501932505756340,38,6,27,9,-1,1,-1,8
1501932505765301,29,7,-17,-1,-2,-5,-24,-76
1501932505765301,43,1,-4,-6,-5,-13,-10,26
1501932505780344,-37,9,1,-1,1,5,44,65
1501932505780344,68,1,9,3,3,6,3,8
1501932505781316,-4,-6,-7,1,-1,-2,10,66
1501932505781316,17,10,1,10,3,-6,-16,-32
1501932505802350,-15,-24,5,2,2,-10,-9,2
1501932505802350,-35,-15,-38,-34,-10,-4,14,-15
1501932505804306,-17,-2,15,5,-1,-1,1,50
1501932505804306,-10,0,-15,-4,-4,-9,-82,50
1501932505816350,-45,1,8,-5,1,-4,13,29
1501932505816350,-125,8,47,10,-1,-6,-99,-128
1501932505825305,-26,-3,-10,7,3,3,5,13
1501932505825305,-26,26,11,-9,2,8,29,-37
1501932505840339,10,-19,-33,4,-4,-9,-51,21
1501932505840339,-39,2,-9,-11,-2,2,51,15
1501932505842310,-25,-22,-22,-4,0,4,-46,-58
1501932505842310,-25,8,9,-8,-3,-1,19,-85
1501932505862342,-16,7,12,3,-4,3,-28,-50
1501932505862342,71,10,-22,5,4,-2,-10,29
1501932505864319,28,-8,37,0,0,7,31,-40
1501932505864319,40,-51,-13,-11,-14,-23,-71,-37
1501932505876349,-20,16,12,7,5,20,53,29
1501932505876349,23,5,-8,4,-3,-1,-46,-22
1501932505885342,-39,-4,-7,-8,-1,-1,4,24
1501932505885342,23,2,-3,4,0,4,-57,-51
1501932505900350,20,1,13,0,-6,-4,-3,-51
1501932505900350,-34,-26,-38,-1,-2,-1,24,28
1501932505902310,18,15,-8,-1,2,4,-23,29
1501932505902310,-81,5,23,9,5,6,16,-38
1501932505922351,-66,6,-2,-1,1,1,-1,12
1501932505922351,41,8,0,-1,2,5,28,0
1501932505924322,-69,-4,-3,7,-6,-11,-83,20
1501932505924322,-4,20,11,-5,4,13,43,55
1501932505936374,118,-18,-23,-8,-2,-1,10,-8
1501932505936374,-6,8,10,1,0,2,6,-43
1501932505945321,4,5,-14,0,-1,-3,14,23
1501932505945321,32,-9,0,1,-2,-4,8,31
1501932505960356,2,-3,-8,-7,-2,-3,4,-38
1501932505960356,10,-4,30,2,-1,0,-13,46
1501932505962314,-4,-6,19,7,1,1,18,-15
1501932505962314,-59,-32,-34,-3,-3,1,4,90
1501932505982382,28,34,1,-9,-4,-15,-84,39
1501932505982382,-30,3,-4,0,-2,3,67,-18
1501932505984353,23,5,19,6,1,3,36,-12
1501932505984353,43,-6,-3,-3,-6,-1,28,-9
1501932506005382,25,-10,16,3,0,-1,-9,-15
1501932506005382,-54,-7,-10,4,-1,-10,-34,99
1501932506007318,14,10,-1,1,0,6,39,26
1501932506007318,-21,3,13,0,1,4,25,77
1501932506020362,-56,12,8,5,4,5,38,-71
1501932506020362,7,-8,8,4,-1,-2,-6,-5
1501932506022317,24,-17,-2,-3,0,-2,0,-12
1501932506022317,-7,7,-25,-1,1,7,7,8
1501932506042356,1,-14,9,-13,-3,-1,5,-7
1501932506042356,23,-2,13,5,1,-1,-2,-3
1501932506044354,-58,2,-9,-4,-2,-2,-32,7
1501932506044354,53,22,30,6,1,-1,-14,-84
1501932506065363,1,-9,-22,-1,2,-1,34,5
1501932506065363,21,3,4,1,-4,6,11,-35
1501932506067339,-4,-11,-15,-11,-2,-9,-28,-21
1501932506067339,-35,-5,34,8,1,0,17,15
1501932506080362,-20,-11,-38,-5,1,-1,-27,16
1501932506080362,78,-11,7,4,1,4,18,24
1501932506082332,-78,7,-15,-4,-3,1,48,-5
1501932506082332,56,41,21,9,2,-3,-53,44
1501932506103203,30,-3,-7,4,-3,6,47,13
1501932506103203,-90,-18,-20,-42,-5,-5,-23,63
1501932506104214,4,-9,9,20,-1,-7,-68,-18
1501932506104214,-1,-11,-7,-10,-5,-2,47,22
1501932506125251,-19,19,-34,8,-2,-6,-37,-9
1501932506125251,-15,6,19,3,-4,-7,-11,1
1501932506127196,88,10,11,-3,1,1,27,-45
1501932506127196,51,-20,-11,-12,-2,-9,-7,42
1501932506139182,-8,4,-3,-7,-5,-2,-16,4
1501932506139182,-9,-4,5,8,3,2,-40,-27
1501932506146217,60,23,-6,-2,-3,-9,-27,17
1501932506146217,-66,-10,3,-15,-8,-6,8,41
1501932506163184,76,-9,0,2,3,14,98,-21
1501932506163184,72,11,-13,4,3,-1,-15,-51
1501932506164188,-2,5,23,11,0,3,-9,-34
1501932506164188,-2,2,-14,-1,2,0,-27,-18
1501932506185218,-53,-7,-1,-4,-2,-6,-30,15
1501932506185218,-14,8,12,6,-2,-2,14,-4
1501932506187199,-48,-48,-22,-9,0,4,30,23
1501932506187199,23,10,1,3,-1,-2,12,-65
1501932506199191,47,-22,25,-4,-1,-7,-26,51
1501932506199191,27,2,-19,0,-2,-3,-12,-34
1501932506206217,32,-2,1,-14,-8,2,44,2
1501932506206217,-11,-12,-21,-7,1,0,4,-10
1501932506223188,-44,-32,1,0,-6,-11,-42,39
1501932506223188,-48,-2,-1,3,5,5,14,-6
1501932506224188,12,15,10,3,2,-3,9,-71
1501932506224188,-40,-1,12,4,-2,5,36,0
1501932506245201,-10,7,-18,-7,-3,-1,-14,-31
1501932506245201,-65,-2,0,-1,0,-3,-38,48
1501932506247190,-1,-6,-15,-8,-2,-2,12,-46
1501932506247190,-128,-23,8,8,3,-5,-67,-90
1501932506259204,-6,16,1,-7,-8,-3,-23,-67
1501932506259204,-11,-4,-5,-9,-2,4,9,31
1501932506266252,-14,2,6,2,0,-7,-54,65
1501932506266252,15,-1,-23,-2,-2,-2,-21,-20
1501932506283192,88,13,22,5,-1,1,41,-107
1501932506283192,6,1,-4,9,-1,-3,1,34
1501932506285194,11,-1,5,3,-2,-5,-49,-50
1501932506285194,-36,8,-5,-13,-2,0,35,23
1501932506305255,49,13,5,-3,-1,-4,-38,-89
1501932506305255,-23,2,10,4,2,0,4,-13
1501932506307228,-42,-4,-20,6,2,6,38,32
1501932506307228,14,-1,-5,-1,-1,-4,-45,47
1501932506319285,5,-3,0,0,3,9,13,-32
1501932506319285,-18,14,1,-2,-5,-4,-10,-15
1501932506326258,57,7,17,-4,-3,-4,-4,-1
1501932506326258,-15,-2,5,6,0,-5,-35,-74
1501932506343206,-8,3,7,-4,-2,-3,16,114
1501932506343206,42,1,-17,-5,-6,-9,-21,-39
1501932506344195,-35,-2,-16,-3,-1,-1,37,79
1501932506344195,18,17,-8,-1,-2,7,18,92
1501932506365243,-115,-24,-20,6,4,-6,-70,0
1501932506365243,71,-13,33,-3,-4,-4,4,-28
1501932506367234,-49,13,13,1,-1,-5,-43,-60
1501932506367234,11,-19,-4,1,-3,-1,30,-12
1501932506379271,-59,-24,-10,-12,0,-2,-20,20
1501932506379271,-69,-18,-31,-6,-6,-6,-38,1
1501932506386262,-16,-8,-16,-6,0,4,31,-19
1501932506386262,5,0,-3,5,4,3,6,25
1501932506403219,-22,5,18,5,0,-1,-17,-27
1501932506403219,5,3,5,-2,-1,-4,3,31
1501932506404200,75,-4,9,-3,-3,7,20,76
1501932506404200,-9,18,-15,1,1,2,34,-38
1501932506425240,-4,1,25,-1,1,-3,-20,-2
1501932506425240,4,5,-3,7,4,5,70,-21
1501932506427201,20,3,-10,-3,-3,-1,-11,-9
1501932506427201,7,-2,15,-6,-4,-6,-23,-28
1501932506439271,34,4,-20,2,0,3,33,35
1501932506439271,7,-6,-14,-6,-2,0,-7,-12
1501932506446242,10,-15,7,-2,1,0,34,-8
1501932506446242,-2,6,-8,-4,-4,-2,9,22
1501932506463224,-29,15,19,8,6,10,53,-48
1501932506463224,10,-19,-23,-11,-7,-7,-2,-108
1501932506464203,-4,0,-4,-8,-5,-7,-22,-32
1501932506464203,10,-12,-11,0,-2,-5,14,-23
1501932506485249,22,0,4,1,-4,-4,10,56
1501932506485249,43,6,24,6,3,5,19,13
1501932506487230,-19,-2,-26,-8,-3,-10,-22,-58
1501932506487230,40,6,9,4,2,4,39,-16
1501932506499256,-24,-11,-8,-4,-3,2,9,10
1501932506499256,22,4,25,1,1,2,17,32
1501932506508207,-38,-5,-19,-4,-2,-4,-46,49
1501932506508207,21,-9,-12,2,1,2,28,55
1501932506523220,27,-11,-14,-4,-1,-3,-9,4
1501932506523220,-73,2,-10,2,5,5,-19,-18
1501932506524206,22,-15,20,4,0,6,26,19
1501932506524206,-11,17,-1,-5,-2,-5,-70,-28
1501932506545249,115,-3,9,-1,-1,0,18,15
1501932506545249,5,18,-8,-4,0,1,-15,20
1501932506547211,-89,13,-11,3,3,6,-2,64
1501932506547211,-9,-9,-11,-6,-3,-3,-48,-89
1501932506559275,53,1,5,0,0,-2,12,-3
1501932506559275,-8,28,24,5,0,0,36,-7
1501932506568210,13,-5,-12,-2,2,3,7,-13
1501932506568210,-8,-26,-48,-13,-6,-6,-27,38
1501932506583242,-89,19,13,3,-1,10,-25,15
1501932506583242,-84,33,-1,2,1,1,-4,-42
1501932506584208,41,9,13,3,-1,-6,3,-13
1501932506584208,33,-7,11,-2,0,-1,0,60
1501932506605274,-2,-8,0,-9,-10,-15,-38,32
1501932506605274,6,-15,8,-2,-5,-3,-8,-27
1501932506607211,-32,-8,-9,-2,-2,-2,-36,-41
1501932506607211,-6,4,2,2,-2,0,35,-10
1501932506619279,-18,2,0,2,4,-1,-25,-20
1501932506619279,2,-22,-4,-1,-3,-8,-39,48
1501932506628225,-37,26,27,3,1,-2,39,36
1501932506628225,31,-17,1,7,4,7,-1,-16
1501932506642261,-25,-7,-27,0,-1,0,14,-14
1501932506642261,30,-12,-3,-9,-2,-1,7,30
1501932506644223,42,-10,8,10,2,-2,-4,-64
1501932506644223,-27,1,-11,-13,-5,-2,-31,-46
1501932506665277,-47,-2,12,4,2,-5,-4,-16
1501932506665277,27,-7,-2,4,2,2,35,22
1501932506667213,14,-19,-31,-9,-1,-3,-45,11
1501932506667213,78,18,15,14,0,-1,-7,12
1501932506679285,7,1,5,-6,-5,-4,23,16
1501932506679285,-11,-8,1,2,1,6,18,-21
1501932506688251,35,2,-6,1,-4,-3,13,18
1501932506688251,28,1,-19,-12,-7,-1,-4,-26
1501932506702257,16,-5,-15,-6,-2,4,16,43
1501932506702257,77,-13,-9,-3,-5,-7,-10,-32
1501932506704227,-44,17,20,-1,1,2,35,-6
1501932506704227,-24,3,10,3,2,-2,-7,-37
1501932506725265,17,2,25,5,1,-4,-2,16
1501932506725265,-27,-8,-51,-10,-3,1,8,44
1501932506727218,34,-20,3,-2,1,7,48,12
1501932506727218,-7,0,16,4,0,-8,-14,5
1501932506739256,43,8,-1,-3,2,8,77,17
1501932506739256,-14,4,-2,1,0,-3,-31,15
1501932506748232,1,-7,-2,-3,-4,-8,-22,47
1501932506748232,-18,4,17,4,3,8,27,21
1501932506762261,-37,-12,-12,-5,-5,-12,-74,-48
1501932506762261,-23,-11,13,2,1,-3,20,32
1501932506764229,33,-15,-12,-3,-2,0,-54,-8
1501932506764229,-65,12,40,-1,0,-1,1,-28
1501932506785258,11,1,-48,-8,-6,-5,-19,-9
1501932506785258,-8,3,2,-1,-1,-3,-27,-21
1501932506787231,-23,-1,-14,-1,-2,-1,-6,-11
1501932506787231,15,-10,-12,2,1,1,1,42
1501932506799281,-31,-7,19,2,2,7,45,7
1501932506799281,-32,4,-5,-1,-1,-4,1,-40
1501932506808233,-47,2,-12,0,-2,-6,-56,-19
1501932506808233,-44,-17,22,-2,-2,-6,-40,-5
1501932506823240,17,2,-12,-1,-2,0,19,20
1501932506823240,7,4,12,-2,-1,5,11,-13
1501932506824232,24,-2,3,-2,-4,0,47,-5
1501932506824232,72,-19,-15,-8,-3,-2,9,18
1501932506845265,-73,-12,-6,-7,-5,-1,-29,-53
1501932506845265,-21,29,9,9,4,5,35,-8
1501932506847246,7,9,17,-6,-5,-4,-30,-42
1501932506847246,0,-3,-27,-7,-3,-3,25,5
1501932506859280,-4,12,0,3,0,-1,-24,-18
1501932506859280,23,-6,4,3,1,1,-28,13
1501932506868261,-9,-1,-15,-5,0,-2,39,13
1501932506868261,-17,16,20,0,1,-2,22,-30
1501932506883227,63,16,15,3,6,13,40,18
1501932506883227,8,18,19,9,7,4,1,-62
1501932506884226,-7,5,-7,-2,1,-1,18,18
1501932506884226,-38,-16,-19,0,-2,0,-6,15
1501932506905271,10,-2,-3,6,2,-3,11,-4
1501932506905271,6,-16,7,-1,-4,-3,8,17
1501932506907228,28,10,9,5,4,5,13,-16
1501932506907228,19,15,5,1,-1,-2,3,-11
1501932506919277,-2,-2,10,3,-1,-4,-35,-2
1501932506919277,-1,-12,-20,-9,-3,3,16,13
1501932506928230,-9,1,6,-1,-2,-2,-11,-25
1501932506928230,-10,-2,1,0,-3,-3,-4,16
1501932506942269,-1,1,8,1,1,0,-6,2
1501932506942269,2,-4,-11,-6,-6,-5,-8,3
1501932506944230,0,1,2,0,0,2,-2,17
1501932506944230,-1,7,2,1,-1,0,6,-16
1501932506965271,3,-13,-4,-4,0,-1,-7,-11
1501932506965271,67,-12,-20,-15,-7,-3,24,-16
1501932506967233,4,-24,4,0,-5,-9,-29,12
1501932506967233,-21,8,-13,0,2,2,13,-4
1501932506987273,-7,4,7,-2,-3,-7,-12,2
1501932506987273,-26,-4,-25,-7,-5,-5,-24,-14
1501932506989242,-33,-16,10,-4,-4,-2,16,3
1501932506989242,1,-5,-16,-7,-7,-4,-1,-12
1501932507003252,-2,11,-4,4,2,-3,-20,-11
1501932507003252,-25,3,-1,-1,-3,-2,-3,8
1501932507004242,0,1,3,3,2,1,-6,-9
1501932507004242,-9,-1,8,-2,-3,-6,-20,8
1501932507025276,15,2,-2,-2,-2,0,26,7
1501932507025276,25,-10,22,6,2,3,-8,24
1501932507027270,-81,12,-21,-4,1,2,-3,-20
1501932507027270,25,-16,-6,-2,1,3,2,1
1501932507047301,-34,2,9,3,-2,-3,-11,-16
1501932507047301,-12,5,-23,-6,-1,-1,7,4
1501932507049246,26,-6,8,-3,-5,-9,-48,9
1501932507049246,-40,-1,1,6,2,1,24,21
1501932507062304,-7,-18,-12,-2,-2,1,-11,-17
1501932507062304,19,-12,-6,-1,-2,-1,9,9
1501932507064269,31,15,13,4,2,1,3,-39
1501932507064269,-29,8,-14,-5,-2,-2,32,1
1501932507085277,31,6,6,-3,0,1,-9,3
1501932507085277,-61,6,8,11,1,1,73,-33
1501932507087238,9,-8,-17,-8,-2,5,16,17
1501932507087238,16,11,29,1,-1,-3,-46,3
1501932507108253,-30,-2,-4,2,2,2,-5,-16
1501932507108253,-33,3,10,6,3,0,0,71
1501932507109249,88,2,1,2,0,-1,1,-2
1501932507109249,-3,7,-22,-6,-5,-4,-28,-36
1501932507122280,46,-26,-8,-6,-10,-10,-13,-29
1501932507122280,-15,11,-10,0,3,3,-30,-53
1501932507129256,-16,8,12,4,1,3,15,-4
1501932507129256,23,-4,-12,-4,3,5,12,49
1501932507145304,19,2,24,1,-1,-8,-16,3
1501932507145304,-5,-1,-26,-6,-2,1,-4,-14
1501932507147246,1,-1,14,-1,-5,-6,-3,5
1501932507147246,-22,-6,5,-1,-3,-14,-88,-109
1501932507167301,-100,10,-1,-9,-2,4,4,-33
1501932507167301,-11,-12,4,1,-2,-1,-21,31
1501932507169246,-56,5,-15,2,3,8,44,14
1501932507169246,3,0,-6,-2,-3,-4,3,16
1501932507182286,-3,-10,0,1,-1,0,-13,6
1501932507182286,63,-5,-19,-8,-3,-10,-19,12
1501932507189307,-87,6,0,2,0,2,17,-25
1501932507189307,0,5,13,3,0,3,35,7
1501932507205250,29,-7,-2,1,2,4,-5,-53
1501932507205250,18,-1,-7,0,1,-1,19,-47
1501932507207246,35,-6,3,0,-2,-8,-41,-11
1501932507207246,-9,-5,10,-5,-1,2,32,55
1501932507228274,-25,-5,-2,6,0,0,0,33
1501932507228274,-26,14,15,-1,-3,-8,-42,-38
1501932507229246,64,-8,-16,-4,1,3,9,11
1501932507229246,-9,-4,0,2,0,2,12,-7
1501932507242312,21,2,-5,-3,-3,-8,-9,-10
1501932507242312,-32,-14,1,-7,-6,-7,-37,31
1501932507249307,35,24,2,2,-2,-2,17,-27
1501932507249307,29,-12,17,4,0,1,27,25
1501932507265293,18,-6,-15,4,0,0,-3,34
1501932507265293,13,-10,5,12,3,6,23,11
1501932507267249,-32,7,-10,-27,-6,-4,-4,26
1501932507267249,-15,2,-12,2,0,-8,-14,-39
1501932507288271,19,4,4,0,2,7,30,20
1501932507288271,-17,5,13,5,2,12,48,13
1501932507289282,106,8,-5,6,1,-1,-16,-21
1501932507289282,11,8,14,8,3,3,-1,-18
1501932507302281,10,0,10,19,3,2,-10,9
1501932507302281,28,-4,-5,-36,-6,-2,-10,4
1501932507309266,-21,-13,-23,0,-2,-2,-10,8
1501932507309266,15,2,-2,-2,0,3,-14,1
1501932507325296,-98,-16,-18,-1,2,4,-13,14
1501932507325296,100,16,24,11,5,5,29,36
1501932507327253,-39,-7,-15,3,2,3,22,-34
1501932507327253,32,1,-4,-5,-4,-2,-19,7
1501932507347265,-22,15,-23,-3,-2,-3,-47,81
1501932507347265,30,-8,0,-2,-6,-8,-18,-11
1501932507349255,-25,-29,2,-3,-1,2,10,-22
1501932507349255,76,6,4,1,-4,-2,23,18
1501932507362292,28,8,6,-7,-4,-5,1,-19
1501932507362292,-63,-10,-1,-2,0,-5,-11,0
1501932507369275,39,-9,4,0,-2,-3,1,11
1501932507369275,-16,-16,-14,-9,-1,-3,-22,13
1501932507385298,3,-3,-11,-11,-4,1,34,-7
1501932507385298,-1,13,10,9,3,0,-18,-5
1501932507387256,-21,-2,-22,1,-3,-4,-16,11
1501932507387256,8,-6,-6,-3,0,8,3,-24
1501932507407327,84,-6,-4,-5,-3,-4,-1,-11
1501932507407327,-29,3,15,3,-1,0,-12,-23
1501932507409256,-24,3,-4,-7,-2,1,14,-11
1501932507409256,-19,-19,9,5,2,7,66,21
1501932507422323,-63,0,-4,-3,1,-2,14,-31
1501932507422323,-3,2,-5,2,0,0,-51,-26
1501932507429281,-42,8,39,5,1,6,37,-1
1501932507429281,-41,-18,-36,-12,-6,-4,-9,20
1501932507445301,-43,3,11,2,3,1,15,-7
1501932507445301,-21,2,-10,-2,-4,-5,-29,21
1501932507447260,-24,-9,11,4,1,1,-22,-38
1501932507447260,1,22,7,3,2,-4,9,-13
1501932507467329,-4,3,7,0,0,1,30,-10
1501932507467329,17,2,24,6,-1,-3,-23,-15
1501932507469292,10,0,-17,-2,-2,-5,-2,33
1501932507469292,-38,0,-2,-3,-1,0,-7,0
1501932507481301,10,-9,-4,-5,-2,-3,2,1
1501932507481301,19,6,-4,1,1,-2,17,22
1501932507490275,13,10,21,8,-2,-4,-8,9
1501932507490275,11,-3,7,7,2,4,-7,-19
1501932507505311,24,-5,-14,-6,0,2,15,2
1501932507505311,1,-10,-4,-7,-2,1,11,-1
1501932507507263,-17,3,1,0,-1,-1,9,20
1501932507507263,-32,-3,-5,4,2,0,8,46
1501932507527267,12,18,4,1,0,2,-8,-11
1501932507527267,81,-5,-2,2,1,3,31,11
1501932507529274,-8,-4,1,-5,-1,-4,-25,-11
1501932507529274,2,-4,-7,-4,-3,-5,-16,-11
1501932507541305,-6,-5,12,6,3,1,-11,3
1501932507541305,-93,10,-3,-1,0,1,12,-4
1501932507550276,65,-11,-5,-8,-5,-5,-29,12
1501932507550276,-4,-3,6,0,-1,-1,15,-3
1501932507565327,17,13,-39,3,-1,-6,-44,-7
1501932507565327,15,-26,-14,-17,-7,-4,-24,-29
1501932507567267,-54,20,11,1,0,-6,-33,-26
1501932507567267,25,2,9,-2,-2,-6,13,13
1501932507587285,-5,1,20,0,-3,-3,-17,-34
1501932507587285,74,-9,-21,-6,0,3,1,15
1501932507589267,-15,2,-14,-1,0,1,16,17
1501932507589267,11,2,-2,-5,-2,-2,-32,-34
1501932507601268,-11,-5,18,4,1,0,34,-9
1501932507601268,9,7,-3,3,-5,-8,-14,-4
1501932507610296,27,-4,17,1,0,-2,-3,14
1501932507610296,-25,17,8,4,3,-1,-32,-27
1501932507625310,-26,-7,-5,-2,0,5,30,-11
1501932507625310,-20,11,-11,0,-5,-2,8,-22
1501932507627270,-4,7,-8,-8,0,3,23,8
1501932507627270,2,0,11,2,0,2,4,-1
1501932507647310,-5,-2,3,3,-1,-2,3,27
1501932507647310,-1,-18,-3,-3,-1,-4,-14,-9
1501932507649303,-3,6,3,3,-1,-2,-1,-3
1501932507649303,12,-3,-17,-2,0,-4,3,-26
1501932507661317,31,-1,-5,-6,0,-3,-1,27
1501932507661317,50,-3,7,6,-3,0,-4,-27
1501932507670285,-35,-10,-14,-15,-2,0,-4,27
1501932507670285,-11,-12,-14,-14,-1,2,5,-23
1501932507685313,6,-9,6,8,-5,-4,-5,-42
1501932507685313,-47,11,-14,1,2,2,27,-7
1501932507687278,25,2,10,7,-1,3,9,7
1501932507687278,-38,4,8,5,0,-1,-10,-1
1501932507707285,-14,-2,-11,-9,-2,2,-2,14
1501932507707285,-12,0,-9,2,5,1,1,22
1501932507709276,-2,-10,5,4,0,-1,-4,-18
1501932507709276,-21,-6,-10,1,0,2,16,9
1501932507721281,-16,2,6,-6,-2,-1,-13,-11
1501932507721281,-23,-8,-1,-4,-4,-5,-1,1
1501932507730296,3,-3,-6,-1,-1,-4,2,4
1501932507730296,8,-6,-14,0,-2,-4,-24,6
1501932507745318,-14,14,20,1,1,6,36,32
1501932507745318,-12,-11,-26,-6,1,-6,-11,-14
1501932507747276,10,-1,-11,-2,-2,-3,-13,-13
1501932507747276,8,5,-2,-1,-4,-2,4,-2
1501932507767349,63,-11,-10,-4,-1,-4,-17,1
1501932507767349,-50,20,22,8,2,4,4,15
1501932507769280,-26,-16,18,1,-2,-6,-3,-24
1501932507769280,10,-7,-5,-2,0,-3,-23,21
1501932507781317,13,11,1,-3,0,1,1,3
1501932507781317,9,8,18,3,1,-3,-18,-12
1501932507790288,-13,-1,-1,1,-3,-3,16,17
1501932507790288,-43,3,-3,-1,-3,0,2,7
1501932507805320,-29,-4,-6,1,3,1,19,4
1501932507805320,29,4,13,0,0,4,15,12
1501932507807279,-15,5,-24,0,0,3,-12,7
1501932507807279,17,9,10,0,-1,1,9,-5
1501932507827347,-16,0,-8,-4,-5,-7,-27,-5
1501932507827347,-12,3,3,-2,-1,4,40,15
1501932507829291,-5,-12,2,-2,0,2,6,-25
1501932507829291,9,4,3,-5,-2,-2,19,4
1501932507841323,13,-2,1,4,-2,-2,-3,-8
1501932507841323,-15,-7,28,-4,-2,-2,-2,8
1501932507850315,18,5,-2,1,2,-6,-34,2
1501932507850315,-6,-7,1,-1,-1,-2,3,-1
1501932507865324,9,-8,-13,-6,-7,-6,-16,-7
1501932507865324,-43,-20,-18,-3,0,1,5,7
1501932507866296,14,8,1,-1,0,4,0,9
1501932507866296,0,0,25,0,-3,-3,7,-7
1501932507887346,-5,-12,-30,-6,-2,-3,-21,7
1501932507887346,-15,7,-2,1,-4,-6,-16,-11
1501932507889286,-29,3,6,4,2,8,11,-5
1501932507889286,-21,5,10,11,3,2,1,-4
1501932507910350,-30,4,-24,-8,-2,4,15,-33
1501932507910350,-25,-16,-18,-7,0,1,17,-3
1501932507911286,3,-1,11,1,-1,2,-2,-16
1501932507911286,11,-11,-13,-10,-4,-4,7,3
1501932507925350,15,3,2,2,0,-2,3,43
1501932507925350,-3,2,10,5,1,1,-4,-20
1501932507927286,-5,0,-9,-2,-1,-5,-7,-1
1501932507927286,-2,-13,-20,3,0,-4,-3,6
1501932507947349,17,0,37,0,-2,-2,-3,-7
1501932507947349,27,3,-16,-6,-3,-2,-10,10
1501932507949287,35,1,6,4,0,-1,-9,13
1501932507949287,76,-13,-4,-6,-1,1,9,-8
1501932507970305,13,3,9,0,2,-2,12,-7
1501932507970305,-54,26,-3,1,-2,-3,32,25
1501932507971329,12,-14,0,3,2,-1,-4,-18
1501932507971329,-20,9,3,-4,0,2,-7,13
1501932507985360,3,-9,-36,-5,-1,-2,-1,-17
1501932507985360,41,-26,12,-3,-3,-1,-9,13
1501932507986304,-46,5,13,4,2,-3,-15,1
1501932507986304,-22,-2,-5,-3,-1,-4,-13,1
1501932508007361,52,-9,1,-2,-2,1,14,10
1501932508007361,-17,9,-2,0,3,0,-3,-18
1501932508009303,29,2,-7,-7,-4,-2,-6,-6
1501932508009303,9,2,7,6,0,-1,-36,4
1501932508030336,-12,-11,-1,1,-1,-1,6,9
1501932508030336,34,-7,-2,-1,-2,-6,-28,2
1501932508032294,-1,1,-7,-10,-6,-2,13,4
1501932508032294,-8,8,14,6,0,-1,-13,-19
1501932508044355,-32,-8,1,-2,-1,-4,-14,2
1501932508044355,-4,7,-3,1,-2,-4,-5,-7
1501932508051335,-16,2,0,-1,1,2,-12,-14
1501932508051335,-7,6,6,-2,-1,-3,-21,-11
1501932508067361,-12,-4,16,3,-4,-6,-15,10
1501932508067361,9,3,-7,-1,2,1,2,-6
1501932508069328,37,-21,-7,-8,-5,-5,7,5
1501932508069328,1,18,-1,5,5,4,1,-20
1501932508090365,79,-20,10,-6,-6,-4,2,18
1501932508090365,-45,-2,-4,2,1,-2,-5,-1
1501932508091324,-27,-4,-18,1,3,1,8,6
1501932508091324,-35,3,9,-2,-3,-3,1,-8
1501932508104365,-4,5,3,-1,2,0,2,-2
1501932508104365,10,-11,2,-2,-4,0,-19,-10
1501932508111364,-5,-9,-23,-10,-5,-3,-8,5
1501932508111364,41,-1,34,2,5,4,20,9
1501932508127361,-76,18,-28,2,2,3,-2,-16
1501932508127361,-14,2,2,1,-2,-2,-23,-2
1501932508129299,-20,-9,-9,-4,-1,0,20,-6
1501932508129299,22,8,-15,0,-1,0,15,-7
1501932508150361,5,6,4,-15,1,-3,-38,-16
1501932508150361,40,-11,-5,12,1,4,38,27
1501932508151302,-18,16,5,3,-2,-1,7,4
1501932508151302,-43,5,-2,1,-1,-1,4,10
1501932508164340,-10,8,-21,0,0,-1,-28,-9
1501932508164340,4,3,-2,-11,-1,2,22,-5
1501932508171342,9,13,-2,-2,0,0,-4,2
1501932508171342,25,-18,-17,-5,-6,-4,7,11
1501932508187344,-11,-1,22,6,2,4,20,-3
1501932508187344,-79,-13,-7,-9,-3,-7,-27,-13
1501932508189352,-18,-2,5,5,-1,0,8,-5
1501932508189352,21,-9,-37,-13,-3,0,-2,8
1501932508210345,38,1,14,8,0,1,6,6
1501932508210345,-4,-12,10,-2,-7,-4,-8,-9
1501932508212303,-67,-15,-3,-4,-1,-7,-15,4
1501932508212303,-37,-1,2,1,-3,-4,-22,-25
1501932508224345,17,18,-16,-5,-2,3,45,-15
1501932508224345,3,9,23,1,1,1,11,-3
1501932508231364,3,3,24,-1,-2,-2,-8,11
1501932508231364,38,-4,-13,-2,-2,-5,-8,-15
1501932508247365,37,-17,1,3,-1,9,53,40
1501932508247365,39,20,7,-1,-1,-3,0,-27
1501932508249305,13,7,4,5,0,1,8,-7
1501932508249305,-23,-5,-3,3,-3,-1,-19,11
1501932508270349,-28,-19,1,-8,-6,-7,-9,-7
1501932508270349,2,-8,-9,4,2,1,5,8
1501932508271309,-2,-2,6,3,1,2,-10,-6
1501932508271309,41,-5,-3,3,2,-1,-2,38
1501932508284382,-79,-2,-36,-10,-6,-4,-1,12
1501932508284382,49,0,13,-4,-3,-1,17,20
1501932508291347,8,6,-17,-4,3,3,0,-10
1501932508291347,-21,4,4,-6,-2,-1,-10,-8
1501932508307375,-18,2,5,4,-1,-5,-11,-6
1501932508307375,2,-14,2,2,2,2,5,11
1501932508309320,-16,-2,-7,-4,-3,-3,-41,-27
1501932508309320,-24,-10,-18,-7,-5,-1,13,-16
1501932508330352,30,1,21,9,3,4,29,8
1501932508330352,1,17,-19,0,2,0,-22,-8
1501932508331323,10,-1,19,5,1,-2,3,-2
1501932508331323,-32,-16,-20,-14,-7,-2,1,-1
1501932508344377,-12,2,6,6,0,-3,-19,-7
1501932508344377,-2,1,-15,-1,-1,3,-10,-30
1501932508351312,28,13,15,3,0,1,14,30
1501932508351312,-28,-1,11,3,0,0,13,-20
1501932508367352,24,5,-14,-4,-1,-5,-44,-9
1501932508367352,-25,-13,6,-4,-2,1,26,-1
1501932508369323,7,-1,-5,-2,-2,-2,-4,10
1501932508369323,23,2,24,5,1,5,27,3
1501932508389380,-28,-1,-19,-5,0,-4,-12,-11
1501932508389380,53,11,4,0,-3,-2,-1,18
1501932508398314,3,-11,-7,-3,-1,-2,16,24
1501932508398314,-7,-7,5,1,1,-2,-8,-14
1501932508404335,14,2,22,6,3,3,-6,-1
1501932508404335,-10,7,-2,-4,-4,0,-15,-25
1501932508413316,13,-9,7,-1,0,-3,7,11
1501932508413316,20,7,21,16,9,6,5,19
1501932508427339,-8,-1,-21,-8,-3,-11,-15,13
1501932508427339,-10,-1,-1,3,1,0,0,16
1501932508429325,-10,-12,-30,21,1,-1,-10,-59
1501932508429325,-16,8,29,-30,0,1,7,10
1501932508450361,10,-12,-27,-5,-7,-2,-7,-15
1501932508450361,2,9,33,-4,-3,-2,-4,3
1501932508451319,-14,2,-12,-10,1,2,12,21
1501932508451319,12,-6,-4,58,4,-2,9,22
1501932508464337,20,6,7,-54,-8,-5,-15,-31
1501932508464337,10,12,-13,0,-4,-3,-6,-19
1501932508473319,2,13,-19,-16,-3,2,17,14
1501932508473319,-76,-2,9,7,1,0,-4,-11
1501932508487358,-31,-4,18,29,3,-2,-26,21
1501932508487358,25,-20,-1,14,7,7,25,-13
1501932508489327,-43,23,20,-4,1,-3,-18,-26
1501932508489327,42,0,-30,-22,-1,-3,-11,4
1501932508510343,-2,-2,22,9,-7,-3,11,3
1501932508510343,-16,-5,-1,-10,0,-1,-12,24
1501932508512321,24,-19,-23,0,-3,-6,-6,-16
1501932508512321,2,2,-22,-9,-4,-4,-14,-6
1501932508524325,52,4,14,2,2,2,-4,-8
1501932508524325,-17,-30,-26,-4,-2,-6,8,13
1501932508532363,19,3,21,6,-1,4,9,-4
1501932508532363,-15,9,-36,-10,0,-2,1,-8
1501932508547387,13,-4,1,-1,3,2,8,-3
1501932508547387,-49,6,-31,-3,-1,-5,-4,13
1501932508549323,40,-1,24,6,0,4,-4,-13
1501932508549323,66,-5,0,-10,-5,-3,-18,-24
1501932508570334,-58,19,16,8,1,-1,-12,-15
1501932508570334,27,-10,-3,-4,-1,0,-10,-5
1501932508571327,0,-31,-7,-5,-1,1,3,5
1501932508571327,-39,11,3,20,-1,0,24,7
1501932508584344,21,6,10,-20,4,4,16,14
1501932508584344,-22,-10,6,-3,-7,-8,-17,-7
1501932508592402,-29,4,-21,-3,0,-4,-8,0
1501932508592402,28,-20,-3,-6,1,-1,19,-7
1501932508607394,-24,-15,-2,13,2,3,18,27
1501932508607394,-1,0,-1,-6,-1,-1,1,6
1501932508609335,21,3,9,0,-2,-1,8,6
1501932508609335,-33,6,8,1,-1,-1,-5,8
1501932508630361,4,1,-13,2,-1,-4,-3,-1
1501932508630361,-6,-19,-7,-5,1,0,6,-2
1501932508631339,19,18,10,7,0,1,-17,-6
1501932508631339,-19,-9,3,-6,-4,-1,20,18
1501932508644346,19,-7,-3,-3,0,0,1,-14
1501932508644346,36,-4,-5,-2,-3,-3,-14,10
1501932508653330,16,11,36,24,2,-2,-5,10
1501932508653330,45,-10,-63,-41,-7,-7,-1,17
1501932508675363,-1,-6,20,1,0,0,-1,-11
1501932508675363,-1,10,2,4,0,1,3,-10
1501932508676347,-12,-6,-2,-11,-3,-3,-4,8
1501932508676347,-5,13,8,12,1,-3,-27,-10
1501932508690345,9,-14,-15,-5,-6,0,14,7
1501932508690345,28,-11,-2,-4,1,-2,-15,-11
1501932508691342,-9,7,-8,-3,-1,3,11,9
1501932508691342,-20,9,10,0,-1,0,9,-3
1501932508704354,-29,-1,-18,-3,0,1,10,-12
1501932508704354,-12,10,21,9,1,0,11,14
1501932508713333,-19,-10,-25,-12,-1,0,5,-4
1501932508713333,-4,-5,0,1,-4,-5,-5,-27
1501932508727393,-7,-9,-1,4,-1,0,-13,6
1501932508727393,-11,3,10,-3,-4,-4,-3,-10
1501932508729368,-6,-4,10,-5,-6,-5,-6,-11
1501932508729368,25,6,-4,0,2,1,-9,1
1501932508750373,-20,6,-1,2,-3,-3,-11,-16
1501932508750373,-1,12,2,-2,-3,0,11,-6
1501932508751335,-10,-12,-13,-8,-1,-1,-9,-2
1501932508751335,-5,-8,15,7,3,4,-4,4
1501932508763398,-14,8,3,3,1,2,13,11
1501932508763398,6,1,-9,0,2,2,-24,-1
1501932508773336,-19,-17,-1,-3,-2,-6,13,-8
1501932508773336,1,1,10,2,-2,-1,-12,-4
1501932508787369,6,0,-1,2,-4,-6,-11,1
1501932508787369,-25,7,-2,-5,-3,-4,-5,-4
1501932508789337,30,-10,4,-1,0,3,-2,4
1501932508789337,7,4,-18,-6,-2,1,-3,-12
1501932508810407,-8,-10,2,27,3,-1,14,-6
1501932508810407,19,-8,-11,-40,-2,-5,-4,6
1501932508811350,-3,14,-6,-1,2,4,1,8
1501932508811350,16,-13,15,-7,-5,-5,-5,-11
1501932508824357,-4,3,5,-3,1,0,-11,-3
1501932508824357,-2,-2,-8,18,1,3,11,7
1501932508832372,-2,-3,-17,-3,-1,-5,-5,-9
1501932508832372,5,10,16,2,-2,-4,7,21
1501932508847413,-14,11,-5,-3,1,1,-4,-3
1501932508847413,0,-10,-3,2,0,1,16,-23
1501932508849342,0,7,4,-1,-2,-2,-7,-6
1501932508849342,-16,-8,-4,8,0,1,-3,1
1501932508870342,7,-3,-5,-10,-3,-1,-8,14
1501932508870342,-16,7,3,4,-2,-1,7,-5
1501932508872341,4,-1,2,0,-2,-3,-12,0
1501932508872341,-10,-9,-6,-3,-3,-3,6,1
1501932508892384,5,0,0,-3,-1,-2,-12,0
1501932508892384,0,3,2,2,-1,1,-8,0
1501932508894348,-6,-2,-2,2,1,0,3,-1
1501932508894348,-7,2,1,2,0,1,-10,8
1501932508907408,3,3,1,-5,-1,-2,19,-14
1501932508907408,-3,-2,0,2,1,5,1,5
1501932508909353,-3,-3,-3,-4,-6,-1,7,-10
1501932508909353,-9,3,2,0,-1,-3,-11,-4
1501932508930357,4,-2,-3,1,0,-1,7,-2
1501932508930357,-2,-1,-2,-1,-4,-11,-19,-3
1501932508931350,1,0,-2,-1,3,9,23,5
1501932508931350,-3,1,1,-2,0,-2,0,0
1501932508953384,-4,-3,-2,1,-2,7,-2,-2
1501932508953384,-3,-1,-2,2,0,-4,-8,-1
1501932508954347,-2,-2,-3,-4,-6,-9,-8,8
1501932508954347,-5,-2,0,-1,2,10,-2,-6
1501932508967412,3,-2,-4,-3,-6,-31,-4,5
1501932508967412,-2,1,0,-2,-2,24,-21,2
1501932508974368,-1,-1,-1,2,3,-6,24,13
1501932508974368,-3,-1,-3,-1,2,19,8,2
1501932508990389,0,-1,-2,-6,-6,-32,-5,-2
1501932508990389,-2,-1,0,0,2,20,-13,-2
1501932508991361,-2,-2,-1,-1,-15,-47,-10,-5
1501932508991361,-5,-3,0,1,12,33,0,2
1501932509014350,2,2,-2,-2,-5,-3,30,0
1501932509014350,-1,2,1,5,13,42,4,1
1501932509015349,0,-1,-1,-2,2,-21,-2,-3
1501932509015349,-2,-2,-2,-2,-5,27,3,1
1501932509027414,-1,-1,1,1,5,-6,-10,0
1501932509027414,-1,-3,-3,-3,-8,-29,9,-3
1501932509034375,0,-1,-1,-4,-1,12,-17,-4
1501932509034375,-2,-3,0,-4,-11,-46,-11,-3
1501932509050393,-2,-3,-3,-1,-1,19,-9,-2
1501932509050393,0,-1,0,1,-4,-21,6,1
1501932509051353,0,0,-2,-1,4,40,-2,-1
1501932509051353,-1,1,-1,-3,-2,-9,5,0
1501932509072427,-2,-2,-2,-3,2,12,-7,-10
1501932509072427,-3,-1,-1,-2,-13,-41,3,1
1501932509074356,-2,-3,-2,-4,2,6,-18,-5
1501932509074356,-2,-2,-3,-7,3,-9,15,-2
1501932509086418,0,1,1,7,0,20,-11,1
1501932509086418,3,4,4,17,5,12,17,4
1501932509095387,0,0,2,3,-5,5,12,1
1501932509095387,-4,-3,-6,-13,-2,-13,-13,-1
1501932509110402,-4,-4,0,-5,2,17,-4,-1
1501932509110402,-2,-2,-8,24,-8,-53,-4,-3
1501932509111355,1,0,0,-52,-5,26,-2,2
1501932509111355,0,-2,-3,3,-2,15,9,0
1501932509132356,-2,-5,-5,-33,-11,-11,-8,1
1501932509132356,-3,-1,-1,-2,5,9,-1,-2
1501932509134359,-1,-1,-7,31,-11,-43,-11,-4
1501932509134359,-2,0,8,11,12,31,6,0
1501932509146419,1,2,4,7,-1,-6,-3,1
1501932509146419,-1,0,5,-12,4,28,5,2
1501932509155369,-1,0,-10,-6,3,-22,-10,-1
1501932509155369,-3,-3,-11,-17,-12,-17,0,-12
1501932509170405,-3,-2,-4,17,-1,3,4,-2
1501932509170405,-1,-3,-3,-23,-3,-9,-6,-2
1501932509171360,-1,-3,5,21,2,7,-7,-4
1501932509171360,1,1,3,-8,-4,-18,2,3
1501932509192400,-2,1,-2,-1,8,17,-3,2
1501932509192400,1,-2,-4,-8,-6,-5,7,1
1501932509194361,0,-2,-2,-3,-3,3,-5,-1
1501932509194361,0,0,0,10,4,9,5,5
