timestamp,emg1,emg2,emg3,emg4,emg5,emg6,emg7,emg8
1501933157730134,-22,-9,-10,7,1,7,61,49
1501933157730134,-29,6,2,6,3,4,35,-23
1501933157734158,-32,-21,15,15,8,8,38,67
1501933157734158,-55,8,8,-12,4,-1,-41,0
1501933157735106,23,17,10,12,2,-6,-26,-73
1501933157735106,-31,4,-11,-23,-3,-11,-69,14
1501933157737101,-34,13,5,-2,2,0,-20,9
1501933157737101,82,-18,21,56,5,9,72,53
1501933157741111,-55,8,-29,-64,-6,0,-40,44
1501933157741111,24,1,19,2,-5,2,48,-69
1501933157757143,10,5,-30,-12,-3,-7,-8,-85
1501933157757143,-38,9,16,3,-6,-6,-8,-24
1501933157762145,-6,7,10,21,7,6,4,40
1501933157762145,9,-14,-28,21,-8,-9,-49,9
1501933157771141,-110,-3,0,-49,-14,1,49,39
1501933157771141,59,16,12,3,0,-5,-69,-4
1501933157786140,23,-12,13,15,1,2,40,-22
1501933157786140,-28,-6,-2,-5,0,-6,-28,88
1501933157801141,24,-18,-8,23,-2,-4,35,-15
1501933157801141,33,-7,-23,14,-2,-7,-31,42
1501933157842105,-3,-1,2,5,1,-2,-14,-10
1501933157842105,-11,10,5,12,4,2,22,-24
1501933157846170,-3,-10,-18,-5,-1,-2,16,-2
1501933157846170,6,-2,7,-6,-2,0,-28,-7
1501933157847110,9,-8,-8,-15,-1,3,34,58
1501933157847110,-2,-12,-1,5,0,8,44,14
1501933157847110,25,16,17,11,3,3,4,1
1501933157847110,-8,4,-14,37,2,-5,-5,2
1501933157853183,103,-5,2,-39,0,8,68,-64
1501933157853183,9,-5,-9,1,4,0,14,10
1501933157860141,-15,1,-12,-2,-6,-13,-60,-25
1501933157860141,23,16,20,5,-2,3,31,52
1501933157867140,-16,-20,-29,14,-4,-9,-11,24
1501933157867140,26,2,3,2,-1,-6,-12,-5
1501933157882154,11,2,6,11,1,0,19,-1
1501933157882154,-17,-7,7,-24,-1,-2,-7,-31
1501933157890151,23,13,7,35,3,-8,-58,-98
1501933157890151,-10,-4,-11,-55,-17,-10,-47,-30
1501933157914127,1,-3,-7,9,6,10,48,25
1501933157914127,7,-16,-1,6,-1,-7,-41,20
1501933157914127,-54,-14,-6,-41,-10,-6,-20,-22
1501933157914127,4,5,1,25,5,-10,8,-3
1501933157928150,8,-1,5,-14,-1,0,-22,-63
1501933157928150,-66,-11,0,-1,1,0,20,1
1501933157929122,-27,0,-4,-13,-8,-7,-39,14
1501933157929122,2,3,3,8,1,-4,-37,-1
1501933157951177,-36,-8,6,-13,-11,-12,-58,13
1501933157951177,4,1,-6,6,3,5,30,20
1501933157952113,-30,5,2,20,4,-5,-60,-14
1501933157952113,-49,-6,-9,-4,1,1,-41,-32
1501933157974132,-24,2,10,1,-2,-10,-66,-65
1501933157974132,16,15,0,2,-2,-3,-25,0
1501933157974132,4,-8,0,6,1,4,40,48
1501933157974132,53,-3,9,-7,-3,-1,0,-14
1501933157988161,-35,16,-1,6,2,3,28,28
1501933157988161,-64,1,-9,5,-4,-1,67,-24
1501933157989115,2,8,16,-27,-1,6,28,24
1501933157989115,30,6,-4,8,-1,4,12,-30
1501933158011182,-5,-9,-9,-6,0,-2,1,-9
1501933158011182,-16,6,4,11,6,1,-22,-14
1501933158012116,-10,10,12,-2,-2,1,-5,-10
1501933158012116,-41,-6,1,7,0,-1,6,19
1501933158034156,38,-1,1,-2,-4,4,52,-1
1501933158034156,27,-9,-20,-20,-1,1,-37,-11
1501933158034156,34,16,13,23,4,-2,13,-11
1501933158034156,-8,-8,-17,-9,-4,-6,-68,-24
1501933158048182,28,-11,-16,-3,2,4,-1,-3
1501933158048182,85,14,4,2,-4,-3,-24,-5
1501933158049124,-96,10,-2,0,0,4,38,-18
1501933158049124,-1,-12,11,9,0,1,-6,30
1501933158071162,8,-2,-11,-23,-12,-1,6,-7
1501933158071162,-31,-9,-3,-8,-2,-4,-36,-52
1501933158072122,85,8,-4,8,-2,-3,-7,42
1501933158072122,-40,-1,-2,-2,1,-3,-1,12
1501933158093160,-4,-5,23,12,3,3,16,20
1501933158093160,35,-10,-26,-17,-4,-1,53,47
1501933158094161,-42,0,1,7,3,2,-1,37
1501933158094161,14,0,4,15,0,-1,13,42
1501933158108161,0,0,8,8,9,5,18,31
1501933158108161,-2,7,-4,-59,-6,2,29,2
1501933158109122,2,-29,11,-10,-7,-12,-47,-21
1501933158109122,-9,23,-12,-11,0,6,38,26
1501933158131195,-36,-8,-2,-2,-1,-1,15,12
1501933158131195,-21,9,-3,15,5,-5,-53,11
1501933158132123,-16,-6,-19,-11,-3,9,97,37
1501933158132123,33,-9,1,-9,-1,-5,-20,28
1501933158153168,-3,-9,-26,51,-1,-8,11,1
1501933158153168,-13,4,9,-56,-6,-2,-5,-44
1501933158154162,-4,2,-1,-10,-2,4,-31,11
1501933158154162,13,-5,-7,33,-4,-6,-8,51
1501933158168191,15,-11,0,3,2,6,-11,7
1501933158168191,-5,-1,8,31,4,0,12,3
1501933158169125,10,-1,-13,-6,-2,-8,-31,-63
1501933158169125,-14,-2,17,-32,-6,-3,8,37
1501933158191185,15,-3,3,-4,-2,-7,-61,-21
1501933158191185,-59,4,18,30,10,6,31,4
1501933158192126,0,-3,-34,-12,-6,-1,-45,5
1501933158192126,-8,6,7,10,1,5,25,-32
1501933158213131,-4,-31,1,-6,-3,-7,-28,40
1501933158213131,47,-1,2,9,-1,1,11,51
1501933158214161,15,7,1,0,1,0,3,8
1501933158214161,-75,0,-8,-19,0,3,7,-28
1501933158227197,-7,0,-8,5,-9,-6,-1,-6
1501933158227197,3,-10,6,64,3,-1,-20,1
1501933158235188,-1,6,17,6,8,8,42,27
1501933158235188,32,-8,1,-51,1,1,-4,-30
1501933158251191,-30,11,-13,35,-3,1,0,-37
1501933158251191,-2,-11,2,-58,-4,0,-2,-12
1501933158252142,-3,3,-2,12,-1,-4,8,13
1501933158252142,3,-10,-4,-18,4,10,17,-35
1501933158273176,24,26,11,4,1,1,14,12
1501933158273176,26,0,-8,15,-7,-4,-1,-14
1501933158274131,-8,8,7,-9,-3,-5,-22,-10
1501933158274131,4,-4,-8,10,0,-1,33,8
1501933158296172,11,2,16,-11,3,3,24,-30
1501933158296172,11,4,4,0,-5,-1,-20,-15
1501933158297132,8,-4,9,15,1,-2,-6,-19
1501933158297132,22,5,21,17,-1,-2,-12,6
1501933158311173,-2,2,-7,-24,-1,-6,12,-20
1501933158311173,-6,0,8,-7,-2,-6,4,-4
1501933158312133,-14,-19,-11,-47,0,-1,-6,-14
1501933158312133,-29,-5,-15,30,-2,-2,-17,-60
1501933158333134,59,-8,22,-18,3,1,8,18
1501933158333134,34,-3,8,3,0,-1,-8,-1
1501933158334170,10,-7,-12,15,-5,-1,-6,-3
1501933158334170,6,3,-5,-5,-5,-3,6,21
1501933158347173,-30,0,-4,8,1,2,-6,7
1501933158347173,-11,-8,-5,10,1,-4,-18,-21
1501933158355178,14,1,-7,48,2,4,18,7
1501933158355178,21,5,-6,-5,-7,-4,-23,1
1501933158371184,4,6,7,-2,5,6,55,12
1501933158371184,29,1,-17,-11,-7,1,4,-21
1501933158372137,-15,2,17,19,6,4,17,-7
1501933158372137,13,-1,-9,12,5,-1,-10,9
1501933158393177,-13,1,-10,-24,0,1,-10,1
1501933158393177,-18,3,7,2,-7,-2,5,16
1501933158394176,13,7,6,17,1,-3,-1,35
1501933158394176,-13,-12,-8,-22,-2,-2,4,-40
1501933158407206,-8,-3,-2,-37,-2,-5,-40,4
1501933158407206,28,2,-2,6,1,6,14,1
1501933158415184,-39,-9,-6,-30,-2,-5,-39,-6
1501933158415184,19,5,15,33,3,0,27,14
1501933158431187,-12,-1,0,9,0,-1,5,7
1501933158431187,-20,-7,-17,-26,-5,-3,0,7
1501933158432151,-26,-11,1,-7,-2,-2,-6,40
1501933158432151,56,-2,-6,-2,-2,1,5,10
1501933158453181,-5,1,-4,2,-5,-4,7,16
1501933158453181,-18,-3,-4,-5,0,-5,1,-41
1501933158454185,6,0,-5,1,-2,-3,4,-15
1501933158454185,-25,-2,13,1,-3,-5,-10,-3
1501933158467203,-5,3,-19,-5,-2,-7,-65,-2
1501933158467203,-37,-10,-5,-23,2,7,46,33
1501933158475143,6,9,8,42,1,-5,-10,-6
1501933158475143,-59,-17,19,-27,0,7,24,-28
1501933158491209,32,10,-5,-6,-4,-6,-15,-14
1501933158491209,-10,-4,12,9,3,-4,-23,5
1501933158492143,12,-2,-6,-17,0,1,-14,-41
1501933158492143,10,24,-14,50,2,-3,-3,65
1501933158513144,-4,1,10,16,1,4,9,-36
1501933158513144,-3,-11,-17,-24,-9,-4,-16,-6
1501933158514156,39,0,2,5,0,-1,18,-29
1501933158514156,-4,6,5,-5,-1,-4,-27,-4
1501933158527145,-8,-7,-9,-2,1,-6,-5,9
1501933158527145,39,2,2,20,5,1,24,-10
1501933158535179,-13,-2,0,-7,-4,2,-1,-2
1501933158535179,-12,-9,-8,-23,-2,3,27,48
1501933158550157,30,7,3,-2,0,-2,-34,-31
1501933158550157,-12,-13,-1,1,-3,1,18,-26
1501933158551147,52,6,-6,-4,-5,-9,-45,-82
1501933158551147,2,6,1,0,5,7,24,36
1501933158574187,-43,-9,9,5,-2,-5,-18,40
1501933158574187,-47,5,-22,-1,2,8,13,-59
1501933158574187,3,1,-3,2,4,2,1,31
1501933158574187,26,9,3,2,-3,3,-67,-66
1501933158596196,-14,3,-2,-3,-1,13,66,10
1501933158596196,-8,-10,4,9,3,-11,-24,92
1501933158597149,-28,-12,1,3,-2,-2,47,25
1501933158597149,-21,-1,-11,-22,-9,-14,-86,25
1501933158610193,7,7,2,3,-1,0,-5,-28
1501933158610193,16,5,7,6,0,5,23,33
1501933158611186,-4,-3,1,7,4,5,27,56
1501933158611186,-9,-9,-9,-14,-5,-14,-35,-79
1501933158634180,17,-6,-5,1,-3,2,18,21
1501933158634180,17,6,0,-9,-2,-2,-9,-36
1501933158634180,-21,-4,8,-9,-3,-3,-63,-12
1501933158634180,-3,-3,-22,9,-7,-4,17,2
1501933158656215,-13,-7,-9,-10,-5,-7,-10,9
1501933158656215,11,7,8,9,5,3,-20,-20
1501933158657153,5,5,-2,-10,2,4,13,9
1501933158657153,4,-6,4,1,3,4,36,-18
1501933158670195,12,4,-4,1,0,8,49,23
1501933158670195,-17,1,8,12,2,-2,8,15
1501933158671164,-25,-8,-5,-18,-5,5,3,-44
1501933158671164,11,6,8,6,3,3,11,-40
1501933158693200,-19,-6,2,-6,0,-3,-27,-10
1501933158693200,16,-6,-3,4,-4,-2,-43,16
1501933158694186,-15,0,-7,-8,-4,-7,-17,-53
1501933158694186,11,-5,4,2,-1,8,44,46
1501933158716224,-22,-7,5,-12,1,2,20,-42
1501933158716224,22,8,2,15,2,-2,-10,47
1501933158717157,-20,6,7,23,3,0,34,55
1501933158717157,11,5,2,-8,3,5,41,-59
1501933158730190,-26,-4,-10,20,-2,-11,-63,-37
1501933158730190,-13,-2,-1,-27,-1,-2,11,-4
1501933158731169,-2,-3,7,18,-3,2,-1,-13
1501933158731169,3,2,-1,-24,-1,-15,-18,22
1501933158753224,19,1,-11,-3,-2,8,2,12
1501933158753224,-13,2,-1,8,1,2,-1,-5
1501933158754200,37,4,-5,-10,-2,-5,-11,8
1501933158754200,-7,-2,9,19,-3,-7,-4,32
1501933158776200,22,5,-3,-5,-2,0,12,3
1501933158776200,-2,-3,4,6,-4,-1,-18,43
1501933158777160,32,-1,-3,-11,-2,0,-31,5
1501933158777160,33,-10,11,16,3,4,5,-14
1501933158790172,-23,3,-1,-8,0,-3,-9,-6
1501933158790172,-4,-1,-8,2,-2,-1,22,19
1501933158799162,-23,-10,-6,-27,-3,0,16,-46
1501933158799162,-1,1,-8,26,2,3,3,-81
1501933158812223,13,-15,8,-44,-9,-2,-7,26
1501933158812223,22,12,-1,11,0,0,-4,-26
1501933158821170,-37,6,7,11,3,1,11,4
1501933158821170,-20,-4,-13,-11,1,2,12,5
1501933158836173,-1,-13,0,12,-1,4,28,-48
1501933158836173,-17,-4,-11,-11,-8,-14,-65,-84
1501933158838165,0,13,10,1,1,2,4,7
1501933158838165,-33,-2,-4,-7,-3,-5,-8,2
1501933158858198,7,6,6,8,1,-7,-3,49
1501933158858198,-24,-6,-18,-9,0,4,15,-18
1501933158860165,37,0,10,3,-2,-14,-72,-10
1501933158860165,27,6,3,-8,-3,4,4,-18
1501933158872165,4,-8,-30,-8,-8,-7,-14,6
1501933158872165,-8,-4,-8,-13,-1,-4,5,5
1501933158881168,-3,-1,-4,7,-1,-3,-12,76
1501933158881168,-5,-4,-8,3,2,9,40,-6
1501933158896165,4,0,11,4,2,-4,-26,-4
1501933158896165,-6,-2,4,1,0,1,-15,-3
1501933158898167,-10,0,-11,-2,-1,-2,-46,55
1501933158898167,0,0,8,-4,2,5,39,25
1501933158919168,-39,1,10,7,-1,-4,-21,19
1501933158919168,0,-3,-9,-6,1,5,82,26
1501933158920201,-2,4,4,0,5,10,91,-17
1501933158920201,-27,-7,4,2,-2,-9,-101,7
1501933158932167,-8,4,-1,7,5,6,15,0
1501933158932167,10,0,16,-1,2,7,61,33
1501933158941177,-7,-3,5,1,-2,1,36,-36
1501933158941177,-4,1,-28,-3,2,17,65,-11
1501933158956176,-5,2,19,5,5,-9,-63,-39
1501933158956176,19,0,16,9,0,12,64,-25
1501933158958172,-2,-6,-3,1,-2,-2,18,1
1501933158958172,-3,0,-1,-6,0,5,24,44
1501933158978204,9,-5,8,-6,-4,-3,38,5
1501933158978204,4,5,-12,11,-1,-5,-24,17
1501933158980171,4,-4,3,-15,-3,-3,-21,-5
1501933158980171,3,-2,4,17,-1,-9,-11,20
1501933158992171,3,-1,-25,-13,1,11,35,14
1501933158992171,-3,0,5,3,-1,-5,-55,6
1501933159007172,0,-1,-3,1,0,0,19,4
1501933159007172,6,1,9,-5,-2,-4,-77,7
1501933159016206,7,1,-10,0,-3,-2,11,-14
1501933159016206,-17,-3,2,-4,-1,-4,-61,6
1501933159018174,-3,-2,-7,-4,-3,1,-23,-53
1501933159018174,3,1,-2,6,-2,-8,-14,10
1501933159038184,27,2,9,1,1,6,14,16
1501933159038184,0,0,-3,-10,-2,-9,-38,-18
1501933159040176,9,-11,2,-4,-7,-5,-79,21
1501933159040176,6,-2,-18,-7,-1,-4,9,7
1501933159052185,-11,-5,-15,7,1,-1,-25,-13
1501933159052185,14,6,27,-1,1,6,48,53
1501933159061178,7,-4,-19,-8,-4,-5,-29,8
1501933159061178,2,-4,11,-1,-1,2,16,-11
1501933159076190,26,1,2,-3,-3,-3,-9,20
1501933159076190,-21,-2,-8,6,-1,-7,-31,-27
1501933159078178,-7,-3,-5,3,2,1,12,1
1501933159078178,-4,4,0,-7,-4,3,10,6
1501933159098184,-52,-5,4,-5,-3,-4,-12,2
1501933159098184,13,-9,0,-7,-1,-1,9,6
1501933159100180,-2,5,2,7,3,10,75,6
1501933159100180,-8,-8,-5,-6,-6,-14,-62,-2
1501933159121191,12,10,9,29,6,4,-11,21
1501933159121191,7,-1,-6,-36,-3,-6,-34,-9
1501933159127187,-6,-7,-17,-18,-9,-5,6,1
1501933159127187,16,0,-6,0,-4,-5,13,-11
1501933159136183,21,-5,2,-7,-4,-5,11,9
1501933159136183,-16,2,7,8,-1,-2,-37,-6
1501933159138181,12,4,-1,7,3,3,55,54
1501933159138181,9,-5,-1,-10,-3,-2,-14,36
1501933159158181,-16,2,0,4,0,-6,-10,-23
1501933159158181,-1,-3,-8,1,-1,5,11,-18
1501933159160184,-7,-2,9,2,0,2,14,0
1501933159160184,-21,-3,-13,8,-1,-3,-5,-3
1501933159181184,-2,-7,-8,-5,1,1,10,9
1501933159181184,2,5,-6,0,-2,5,15,-1
1501933159183183,-19,-1,0,0,-2,-9,-76,9
1501933159183183,-27,5,7,-1,4,3,50,-9
1501933159196193,35,3,1,-2,-2,3,3,11
1501933159196193,-8,-1,-3,3,-2,-1,8,-15
1501933159198185,12,0,-2,5,2,-1,-38,26
1501933159198185,-21,-2,-6,-7,-4,-4,-19,-2
1501933159218218,-17,-3,-2,-7,-4,2,42,-2
1501933159218218,9,-5,-1,4,-1,-3,17,22
1501933159220186,1,7,-1,0,2,6,23,-14
1501933159220186,0,-3,7,5,3,0,-14,-13
1501933159241219,-30,-5,-9,0,-2,-11,-80,-22
1501933159241219,4,0,-5,-13,-7,-1,-9,-6
1501933159242188,0,-8,-6,5,-1,-2,10,-19
1501933159242188,1,1,1,-14,-3,0,-19,-16
1501933159255220,4,4,1,15,1,6,48,9
1501933159255220,11,-6,-4,6,1,-4,-16,-4
1501933159262221,-11,-2,-5,-14,-4,-3,16,-4
1501933159262221,1,4,5,9,3,-1,-29,0
1501933159278188,4,2,8,-6,-4,0,6,22
1501933159278188,-12,-5,-10,-3,0,5,39,4
1501933159280189,15,1,-7,1,-1,-5,-3,-33
1501933159280189,-3,3,4,-1,0,-4,-74,-56
1501933159301191,9,2,-5,-8,-2,5,37,-1
1501933159301191,-5,-4,-7,-2,-3,-4,-13,-11
1501933159303191,-32,2,5,6,0,-4,-63,5
1501933159303191,17,-1,3,6,-3,-5,13,36
1501933159315191,-4,-4,0,-10,-1,-5,-15,-11
1501933159315191,-1,-1,-13,7,-1,-4,-47,-18
1501933159322224,0,-5,3,-4,-4,0,54,-12
1501933159322224,-1,-2,0,-3,-3,-6,-17,7
1501933159338225,6,1,-4,2,3,5,4,1
1501933159338225,8,6,7,8,5,10,5,-3
1501933159340192,12,0,4,-3,-1,4,20,30
1501933159340192,-3,-4,-2,2,-2,1,49,43
1501933159361226,-23,-6,-10,-3,-2,-4,-24,-28
1501933159361226,3,0,2,1,-2,-10,-39,25
1501933159362194,-1,-4,-3,-3,-2,7,65,7
1501933159362194,-14,-4,0,-4,-3,-5,8,-11
1501933159375227,5,2,0,0,1,6,5,-33
1501933159375227,8,-12,5,-1,-3,0,34,24
1501933159382196,-4,3,4,-4,-1,-3,-19,-45
1501933159382196,2,1,2,2,2,-1,37,6
1501933159398205,2,3,-4,-9,-5,1,14,40
1501933159398205,-1,-5,10,6,-2,-9,-80,17
1501933159400206,-3,0,-6,-2,-2,2,7,-46
1501933159400206,12,-9,-13,-5,-1,-3,-43,-18
1501933159421207,-5,7,3,1,-2,-3,14,-4
1501933159421207,-3,4,1,-5,0,6,46,-12
1501933159422197,-33,-6,0,-3,-3,-4,-24,20
1501933159422197,8,1,2,-1,0,-1,2,-7
1501933159435232,-4,1,11,5,1,1,5,11
1501933159435232,-6,-5,-13,1,-1,-3,0,-4
1501933159442208,4,-1,-3,2,2,0,10,-2
1501933159442208,-22,0,-7,-8,-4,4,54,-7
1501933159458201,13,-3,0,-2,-3,-8,-80,-17
1501933159458201,-6,2,1,-5,-2,-2,42,-6
1501933159460200,4,2,7,6,0,-6,-59,-17
1501933159460200,-1,-4,-7,-8,-1,-1,13,-28
1501933159481233,4,-1,-3,1,3,8,57,28
1501933159481233,1,3,-5,-9,-2,-2,-23,-9
1501933159482206,16,-3,-5,2,3,7,67,40
1501933159482206,-1,-1,-1,-4,-3,3,-12,12
1501933159495235,-2,-6,-6,-9,-4,-3,50,17
1501933159495235,-5,0,-3,-1,-1,-5,-73,-10
1501933159502235,-3,-3,2,1,1,8,74,0
1501933159502235,14,0,0,5,2,-7,-36,0
1501933159518235,2,-3,1,1,0,3,31,-1
1501933159518235,-1,15,6,2,-1,6,38,-1
1501933159520213,22,-1,4,-2,-2,-7,-40,4
1501933159520213,4,3,5,3,1,4,-8,-4
1501933159541205,-8,-2,-4,-2,-4,-9,-29,-8
1501933159541205,-7,-8,-5,-7,-2,-10,-40,3
1501933159542206,-15,2,2,5,1,3,48,-5
1501933159542206,9,3,3,-3,0,7,63,14
1501933159555225,29,-3,1,1,0,-11,-56,-15
1501933159555225,-2,-3,3,6,1,1,16,3
1501933159562238,5,0,-9,-7,-5,-1,2,9
1501933159562238,-4,-5,-6,0,-2,0,15,-6
1501933159578205,-13,0,0,-2,2,4,-2,-16
1501933159578205,19,1,2,1,0,0,13,23
1501933159580206,2,-2,-6,9,-3,-1,-14,-16
1501933159580206,-19,-4,7,-14,1,3,12,0
1501933159601212,-1,-2,-3,1,-2,-2,24,0
1501933159601212,-2,0,-18,-5,-1,-6,-40,-4
1501933159602209,-5,2,9,1,1,0,-3,-1
1501933159602209,-10,1,-6,6,-2,-3,-45,-11
1501933159614241,-25,-5,0,0,-3,-1,8,6
1501933159614241,-4,-4,6,2,0,4,31,-17
1501933159624212,-1,1,-7,0,-1,-7,-29,-9
1501933159624212,4,2,8,2,-2,-4,-2,-6
1501933159638242,0,-2,2,-1,-2,4,-34,-7
1501933159638242,-7,-1,-6,0,1,0,-2,-17
1501933159640211,9,-1,1,-5,-1,-4,-35,-15
1501933159640211,1,-1,5,-2,-2,-3,-7,1
1501933159661222,-3,0,-4,-1,-1,-5,-32,12
1501933159661222,2,-3,7,2,2,15,68,14
1501933159662211,-3,-1,-6,-2,-4,-2,-5,-5
1501933159662211,-2,-1,-4,6,0,0,-7,10
1501933159674211,4,0,-10,-6,-1,5,21,0
1501933159674211,-2,1,2,1,1,-2,-24,-28
1501933159683214,23,-8,1,-3,-2,-9,-70,-12
1501933159683214,-18,-4,0,4,3,20,96,17
1501933159698213,30,-1,-7,-4,-2,-3,-27,-7
1501933159698213,-2,0,-1,-4,-4,-16,-57,-1
1501933159700217,-10,-4,-3,-2,0,2,-38,40
1501933159700217,-33,-6,-6,-4,-5,-3,-25,-6
1501933159721247,-2,1,0,0,1,1,1,-7
1501933159721247,-10,-6,-3,-7,-5,-4,1,-3
1501933159722214,-11,0,-1,-2,-3,-3,-13,-11
1501933159722214,15,0,-2,-3,-3,-7,-56,8
1501933159735215,-3,7,7,6,2,6,56,4
1501933159735215,-1,-1,2,2,-2,-2,5,-3
1501933159743220,-20,3,-3,-6,-5,-3,-30,-20
1501933159743220,15,0,0,-7,-2,-1,3,-12
1501933159758225,-7,-1,0,-1,-2,-7,-28,-13
1501933159758225,-22,-5,-5,-4,-2,-5,-47,-22
1501933159760218,9,-5,6,2,3,6,43,4
1501933159760218,2,2,1,4,3,3,32,-17
1501933159781250,0,-1,-2,-2,-3,-7,-27,2
1501933159781250,-5,-3,-3,-2,-3,-1,-18,23
1501933159782221,-8,11,3,1,3,9,62,27
1501933159782221,27,-3,-9,3,-2,-11,-34,0
1501933159794252,-20,-6,2,0,2,1,13,-8
1501933159794252,1,1,4,3,0,1,-20,-11
1501933159803252,28,-2,-7,-4,-3,-4,-6,59
1501933159803252,-20,-3,1,3,0,-7,-25,-9
1501933159818221,24,5,-4,-5,-4,-5,8,20
1501933159818221,-1,-1,-3,-2,-4,2,44,-13
1501933159820222,1,2,1,2,6,3,0,29
1501933159820222,1,0,-5,-8,-8,-5,-19,-97
1501933159841222,-11,-1,2,0,2,-6,-44,5
1501933159841222,-3,1,4,2,-2,0,63,-10
1501933159842222,-43,-1,7,2,-1,-4,-30,-55
1501933159842222,-1,-5,-2,2,4,12,39,94
1501933159854255,27,8,8,8,3,0,-23,-22
1501933159854255,3,-2,-3,-5,-2,0,1,-1
1501933159864225,3,-5,-9,-5,-5,-5,-52,-35
1501933159864225,3,2,1,-1,2,-9,-61,-33
1501933159878256,-23,-2,-2,-1,-3,-2,-24,-48
1501933159878256,28,1,-2,-1,0,3,64,15
1501933159880223,17,0,2,-1,-1,-5,-7,13
1501933159880223,3,2,8,0,3,7,4,20
1501933159901257,-6,-9,-15,-4,-9,3,40,-19
1501933159901257,-13,1,0,1,1,0,35,12
1501933159902232,26,3,-2,0,-2,-1,1,-21
1501933159902232,-15,2,2,-1,-3,-6,6,-30
1501933159914259,-14,-8,-9,-13,-6,-8,-99,5
1501933159914259,-1,1,-1,-1,-1,-6,-53,8
1501933159924228,-9,-10,-10,-4,-4,4,49,-14
1501933159924228,-4,-2,-12,-4,-3,-1,-1,17
1501933159938259,19,-2,11,4,0,-4,-8,-60
1501933159938259,7,2,0,1,2,1,6,-70
1501933159940231,-15,-2,-3,1,0,-4,-10,-16
1501933159940231,10,-4,-3,-5,-6,-4,-10,9
1501933159961261,-1,8,-2,2,5,16,96,2
1501933159961261,28,-1,-5,-2,-1,0,10,-29
1501933159962228,-57,-1,6,3,3,6,27,47
1501933159962228,21,6,-6,-3,-1,-2,-8,-38
1501933159975229,-5,-1,-2,5,-2,-3,-7,29
1501933159975229,-20,-7,4,-1,-2,-5,-18,53
1501933159983231,8,6,4,-1,-2,-5,13,-31
1501933159983231,-19,-3,-2,-1,-1,6,40,36
1501933159998240,28,-4,-4,-6,-3,-2,-11,-9
1501933159998240,7,5,0,1,3,7,-18,78
1501933160000230,17,6,9,4,2,-2,10,12
1501933160000230,-2,-4,0,-1,-1,2,6,18
1501933160021233,-5,-2,1,-2,4,2,7,43
1501933160021233,-18,-2,-1,1,-2,2,5,-6
1501933160022234,6,-2,-4,-3,-2,-1,-29,-11
1501933160022234,23,-1,2,3,-1,-7,-55,9
1501933160043244,4,7,9,9,5,7,68,49
1501933160043244,14,2,-2,-5,-7,-5,35,21
1501933160045235,-19,-2,-7,-7,-4,-7,-57,-18
1501933160045235,4,0,-4,-2,2,0,37,5
1501933160058237,-18,-1,3,0,0,1,-11,-26
1501933160058237,-10,-3,1,-1,0,2,9,-12
1501933160060237,11,-1,-5,-2,-3,-3,12,1
1501933160060237,-12,1,1,-1,1,-3,-6,2
1501933160081268,0,-4,3,2,-2,-1,22,22
1501933160081268,-13,-1,-3,1,2,3,1,-30
1501933160082240,21,-1,-5,-9,-3,-4,3,6
1501933160082240,-8,-6,5,5,-1,0,-26,-16
1501933160103238,30,3,1,-2,-4,-6,-49,20
1501933160103238,-4,-4,-8,-2,1,4,-18,12
1501933160105237,1,-4,0,-1,1,-2,-16,-5
1501933160105237,-3,-4,-2,0,-1,-2,-23,-8
1501933160118238,-15,-1,1,-3,-2,-4,-8,-2
1501933160118238,-7,-2,-1,-1,1,-3,-11,0
1501933160120239,2,-1,1,2,0,-3,10,4
1501933160120239,-3,2,-1,-2,0,0,-3,8
1501933160141238,-18,-4,-4,-6,0,0,-17,65
1501933160141238,22,2,7,-1,-1,-2,-32,36
1501933160142240,5,9,-6,-3,0,11,50,-17
1501933160142240,-4,0,-1,-1,-1,0,27,6
1501933160163250,9,-3,-3,0,-1,-3,-9,-11
1501933160163250,-16,-2,4,-1,-2,-8,-47,-1
1501933160165253,-32,-10,2,2,0,0,7,-11
1501933160165253,-21,-5,-1,0,-1,-3,-11,-12
1501933160178274,2,1,-9,-4,-4,-3,13,8
1501933160178274,-5,-1,3,3,-2,-2,13,-48
1501933160180252,6,-2,4,1,-2,-1,21,-19
1501933160180252,-11,-5,-5,-7,-4,-4,-26,24
1501933160201242,-47,-4,-4,3,2,1,4,-21
1501933160201242,15,-3,-2,0,-1,-1,12,-5
1501933160202243,3,-2,-1,-1,-3,-4,-17,8
1501933160202243,8,3,2,-1,0,4,19,0
1501933160223253,1,-3,-1,-3,-1,0,5,-19
1501933160223253,32,-1,-5,-1,-1,-3,-23,-5
1501933160225244,9,0,-3,-2,0,1,-4,33
1501933160225244,-3,1,4,0,-2,-10,-62,-59
1501933160238255,-4,-7,-6,-2,-1,-1,9,-41
1501933160238255,-3,6,8,5,6,5,33,-6
1501933160244244,-6,-5,-7,-7,-6,-8,-50,6
1501933160244244,29,-2,0,0,-1,5,42,-7
1501933160261246,-9,-2,1,2,-2,-7,-18,-15
1501933160261246,-19,0,-4,-1,-3,-7,-15,-6
1501933160262246,7,2,0,-1,0,0,-22,16
1501933160262246,-5,-4,3,1,-3,-7,-36,-5
1501933160283280,2,-1,-3,-1,-2,-1,-2,18
1501933160283280,23,0,2,1,2,7,20,31
1501933160285248,17,-4,-6,-4,-3,-2,14,24
1501933160285248,-1,5,-5,-3,0,2,27,-7
1501933160298247,1,-1,-1,-3,-3,-1,4,-42
1501933160298247,13,-2,-5,-6,-5,-3,0,6
1501933160304248,-29,-4,1,2,-2,-9,-62,-36
1501933160304248,2,-1,-3,-1,-1,0,21,-4
1501933160321282,21,1,2,-4,-2,4,28,6
1501933160321282,9,-4,-9,-3,-2,-2,7,4
1501933160322251,-23,3,3,3,2,3,22,-74
1501933160322251,-33,-5,-1,0,-1,-2,-15,51
1501933160343283,-16,2,0,1,1,-2,-39,-16
1501933160343283,-26,-2,-2,-1,0,4,17,-38
1501933160345252,-19,-10,-3,3,0,0,4,114
1501933160345252,44,2,-4,1,1,-1,28,25
1501933160358288,3,-2,-6,-5,-3,-1,-6,27
1501933160358288,-47,-5,-1,1,1,4,23,-36
1501933160364284,-11,5,4,1,1,-2,4,20
1501933160364284,-9,2,1,4,1,2,-25,25
1501933160381252,37,1,0,1,-1,0,33,-54
1501933160381252,2,-2,-2,-2,-3,-3,-4,26
1501933160382254,41,3,-2,-2,1,2,-5,-44
1501933160382254,-16,-4,-6,-1,-3,-4,-15,-2
1501933160403288,-13,-2,-2,-3,-2,-5,-3,67
1501933160403288,-15,-1,-1,0,-2,-2,-17,-24
1501933160405255,-1,-1,-6,-6,-3,0,-3,-34
1501933160405255,8,-4,0,-3,-1,3,14,32
1501933160418291,-16,0,1,0,0,-3,-11,-38
1501933160418291,6,0,0,0,-1,-4,-14,-10
1501933160424256,-4,-1,-6,0,-1,3,24,10
1501933160424256,-2,1,-1,-2,0,2,19,-21
1501933160441289,-9,-3,-1,0,-2,1,24,19
1501933160441289,-2,-1,-1,-2,-2,-1,4,17
1501933160442256,0,-1,5,0,-1,-4,-17,-50
1501933160442256,-1,2,1,1,0,3,13,8
1501933160463258,7,1,1,0,2,2,-1,10
1501933160463258,1,0,0,-1,0,-1,5,-16
1501933160465257,5,1,-1,1,-1,-2,-35,1
1501933160465257,6,0,-9,-6,-1,2,40,-9
1501933160478257,3,-7,2,1,-3,-4,-18,6
1501933160478257,-5,-2,-1,-2,0,-2,-18,-9
1501933160484291,-17,-5,-1,0,-2,-3,-7,67
1501933160484291,2,2,2,0,-3,-10,-43,-32
1501933160501259,-41,0,1,-2,-1,1,-3,-72
1501933160501259,2,0,-6,-4,-1,-1,-14,12
1501933160502259,3,-2,-2,-3,-4,-4,15,-5
1501933160502259,-10,-9,2,1,-1,-1,-5,-2
1501933160523293,9,4,-1,1,0,0,-3,41
1501933160523293,5,-1,-2,-3,-3,0,17,15
1501933160525273,-31,2,2,0,2,5,-11,20
1501933160525273,-1,4,4,1,0,-2,0,-26
1501933160537261,-3,-4,-4,0,-1,-1,-17,-16
1501933160537261,5,-1,-1,1,-4,-4,-13,-51
1501933160546272,0,-5,0,1,-2,1,1,5
1501933160546272,3,3,2,-1,0,0,-8,0
1501933160561296,5,4,2,-1,0,-2,-8,-8
1501933160561296,54,12,4,5,6,8,36,-32
1501933160562277,-12,-4,-2,0,0,-1,14,-12
1501933160562277,-7,-4,-7,-4,-4,-7,-4,-15
1501933160583297,4,-1,1,-1,1,5,50,5
1501933160583297,-9,-1,-1,-2,-1,1,-1,31
1501933160585272,9,-1,-4,-5,-2,-1,8,-21
1501933160585272,1,-2,0,1,1,4,10,23
1501933160597298,2,0,-3,-2,-3,-2,-14,9
1501933160597298,-6,-5,-2,0,-1,1,20,34
1501933160606267,2,-2,0,-1,-3,-6,-44,-54
1501933160606267,-8,-1,2,2,-1,2,34,18
1501933160621299,15,-5,-4,-4,-3,-4,-22,-5
1501933160621299,-24,2,5,0,1,1,-21,-6
1501933160622267,16,7,-5,-6,-5,-3,-9,-18
1501933160622267,-10,0,3,1,2,1,-6,-1
1501933160643277,28,2,-4,-5,-5,-5,-1,26
1501933160643277,-12,-3,0,-4,0,0,32,57
1501933160645271,0,0,2,3,2,3,17,14
1501933160645271,-4,0,-3,0,-1,-2,-37,-13
1501933160657296,23,0,2,4,5,24,88,49
1501933160657296,-6,-3,-2,3,-1,-3,-43,29
1501933160666272,24,1,-4,-4,-2,-6,4,13
1501933160666272,-5,-2,0,-2,-2,0,2,-7
1501933160681302,-11,-3,-3,1,0,-5,-14,-13
1501933160681302,-11,-9,-7,-5,-1,-4,-29,8
1501933160682271,-9,-3,2,1,1,-1,38,-1
1501933160682271,24,1,0,-2,-1,2,17,-1
1501933160703273,-10,-1,1,-4,-2,-8,-50,-3
1501933160703273,-3,-2,-2,-3,-2,-5,-31,9
1501933160705272,3,1,-2,-2,-4,-5,-36,-39
1501933160705272,-1,-1,-8,-6,-4,-2,16,6
1501933160717270,-20,-3,-4,-2,-5,-11,-39,-28
1501933160717270,3,3,4,5,4,8,69,5
1501933160726274,4,0,3,1,1,1,1,-9
1501933160726274,-7,-4,-4,-2,-3,-5,-35,-7
1501933160741283,-14,0,-3,-3,-1,-2,-12,22
1501933160741283,5,0,-4,-4,-4,-7,-20,-27
1501933160742276,-7,-2,1,4,3,3,17,18
1501933160742276,0,-3,-1,-2,-2,-3,-1,2
1501933160763307,2,-2,-1,0,0,-1,28,30
1501933160763307,15,3,-3,-3,-2,0,2,-54
1501933160765277,-17,-2,-3,-3,0,7,30,26
1501933160765277,27,7,-2,-3,-1,-2,5,-51
1501933160777274,6,-6,0,-3,-3,-6,-63,-27
1501933160777274,-11,-7,-2,-4,-4,-8,-23,0
1501933160793275,-1,-2,-2,1,-1,4,9,-7
1501933160793275,17,1,1,2,0,-5,-25,10
1501933160801278,-13,-1,0,1,2,1,8,11
1501933160801278,-6,0,-1,-7,-3,-2,13,3
1501933160802277,3,-1,3,1,0,-6,-23,2
1501933160802277,-12,0,-1,-3,0,6,10,45
1501933160823278,14,1,-1,-1,0,8,60,-35
1501933160823278,-17,-2,-9,-3,-1,-1,6,14
1501933160825279,17,0,-1,-1,-1,0,12,2
1501933160825279,-7,-5,0,1,-1,-3,-13,-2
1501933160837287,-9,2,4,-1,0,-4,-20,-1
1501933160837287,-13,-1,4,4,0,2,-1,37
1501933160846280,-6,-5,1,-2,-1,6,61,5
1501933160846280,18,-2,-4,-4,-4,-3,8,-5
1501933160861289,-18,-6,-2,-1,-1,-2,-1,15
1501933160861289,12,1,0,-2,-3,-7,-61,-35
1501933160862282,30,-1,-3,-1,-2,-3,-1,17
1501933160862282,-55,-3,0,0,-1,1,9,10
1501933160883281,4,-3,1,1,1,1,3,41
1501933160883281,6,0,-1,0,0,1,6,-9
1501933160885285,-15,-3,1,0,-1,-3,1,-15
1501933160885285,5,3,3,-1,-1,-1,11,-26
1501933160897290,3,3,-2,-1,2,5,17,-13
1501933160897290,-7,-4,-1,-1,1,1,0,-3
1501933160906292,-40,5,3,1,0,-4,-15,-17
1501933160906292,11,-1,8,2,1,0,-12,-10
1501933160921318,-5,-5,-15,-5,-5,-13,-54,-5
1501933160921318,1,-4,1,1,-1,2,11,-7
1501933160922285,3,-3,-3,-2,-1,0,-12,-10
1501933160922285,-6,2,1,3,-2,-1,-5,-17
1501933160943295,-5,1,15,8,1,-4,-17,-9
1501933160943295,9,-3,-8,-8,-1,-1,-3,-4
1501933160945286,-5,-3,-4,-2,-1,-4,-20,17
1501933160945286,-13,-2,-3,0,2,0,18,38
1501933160957286,-1,-2,-8,-7,-4,-1,18,18
1501933160957286,-4,-1,3,2,-3,-6,-8,0
1501933160966287,8,4,1,-1,1,3,43,10
1501933160966287,33,-2,-3,-4,0,-1,17,-2
1501933160981320,-5,-1,1,1,0,-2,-7,-23
1501933160981320,1,1,0,3,1,0,2,0
1501933160982290,4,-1,-1,1,-3,-4,-24,6
1501933160982290,-31,-6,-2,-4,-5,-1,4,-9
1501933161003321,-10,4,-1,1,1,3,18,-9
1501933161003321,14,-2,-1,-2,-1,-3,-11,-12
1501933161005295,-3,1,1,-1,-3,-4,-17,5
1501933161005295,7,-2,-6,-5,-4,-6,-44,-18
1501933161026323,-8,-4,0,0,0,2,20,-17
1501933161026323,-3,0,-1,2,3,6,20,14
1501933161027292,5,-1,1,0,1,-1,4,-8
1501933161027292,-2,-3,-9,-5,-5,-4,-1,-5
1501933161041324,1,-1,-3,-3,-3,-4,-8,1
1501933161041324,-4,-1,-1,-2,-5,-8,-23,-8
1501933161042291,-4,-5,-5,-4,-4,-4,2,-24
1501933161042291,4,1,-3,1,-1,0,-5,12
1501933161063334,-4,-4,1,-3,0,-2,-1,8
1501933161063334,11,2,-4,-2,0,1,9,1
1501933161065293,0,0,-1,-2,-1,-1,-15,4
1501933161065293,36,0,-1,-1,0,-2,-15,12
1501933161086342,-28,10,0,-1,-2,-2,-14,-18
1501933161086342,2,-5,-1,-1,-2,0,19,2
1501933161087294,-11,-3,-2,0,1,-1,4,6
1501933161087294,42,2,0,3,4,9,26,0
1501933161101343,17,-1,-1,-1,0,1,8,2
1501933161101343,-8,-1,2,2,2,0,-1,-15
1501933161102296,-6,0,-4,-2,-2,-3,-29,-13
1501933161102296,-29,-3,-1,-2,-4,-2,-6,14
1501933161123363,7,-1,-2,-1,-1,0,0,2
1501933161123363,-2,1,-1,-1,-3,-3,-21,-22
1501933161125297,-1,-7,-6,-4,-1,-2,-1,-3
1501933161125297,-19,1,1,0,0,-1,-40,14
1501933161146339,7,-1,1,0,-1,0,1,29
1501933161146339,-8,-3,-1,-3,-2,-1,-3,6
1501933161147303,2,0,0,-1,-3,-11,-54,-2
1501933161147303,-14,-2,1,1,2,1,5,-12
1501933161160340,-3,-2,-6,-8,-3,1,4,-3
1501933161160340,12,-2,-2,-4,-2,-2,-3,-6
1501933161167298,-7,1,-1,3,2,3,26,24
1501933161167298,-1,0,0,-3,-1,1,-4,-8
1501933161183341,8,-3,-1,2,-3,-2,-16,20
1501933161183341,-1,0,2,1,-4,-7,-13,6
1501933161185300,3,-4,-5,-5,-5,-3,-11,-3
1501933161185300,-9,-1,-1,0,-1,0,12,-12
1501933161206341,5,1,0,-2,-1,-2,-10,-18
1501933161206341,13,0,-3,-2,-1,-2,-12,-1
1501933161207306,-24,-2,-4,-4,-2,1,-6,-2
1501933161207306,16,5,2,0,-1,-1,21,19
1501933161220351,-2,-6,-2,-1,-2,-7,-41,-15
1501933161220351,-12,2,-6,-2,1,7,75,15
1501933161227341,-5,-3,1,0,-1,2,7,0
1501933161227341,-14,-3,-2,0,1,-4,-6,-9
1501933161243354,10,0,0,-1,0,4,32,-14
1501933161243354,3,-3,1,4,-1,-8,-29,4
1501933161245302,10,1,1,11,1,-2,-3,3
1501933161245302,-10,-1,1,12,1,6,17,-2
1501933161266349,-4,-4,0,-36,-11,-7,-12,-19
1501933161266349,-20,-1,3,-4,1,-1,-20,6
1501933161267314,10,2,-4,-4,-8,-2,38,22
1501933161267314,1,1,1,3,0,-3,-16,-17
1501933161280346,-7,-5,-10,11,5,-4,-45,-15
1501933161280346,-1,-2,-2,8,-1,-1,3,4
1501933161287344,35,4,1,-16,-1,4,-15,-7
1501933161287344,-6,-3,-5,-10,-1,-3,10,15
1501933161303347,-4,0,5,13,6,9,9,1
1501933161303347,-16,2,2,0,0,-2,-9,-16
1501933161305306,6,-2,2,16,4,-3,-24,59
1501933161305306,-22,-7,-5,-1,-1,0,10,-25
1501933161326324,21,6,0,-5,-2,-1,4,6
1501933161326324,3,-4,-4,9,-2,-2,1,-35
1501933161327309,-3,0,0,-7,-3,-3,8,-16
1501933161327309,-10,-5,-5,-11,-5,-4,7,-1
1501933161340379,0,1,-2,7,0,5,46,21
1501933161340379,-4,-1,-3,-8,-1,1,-8,18
1501933161347354,-10,-1,3,-4,0,-1,-13,-27
1501933161347354,3,1,4,-3,-2,-1,27,-19
1501933161363352,-1,1,0,6,1,-4,-10,-12
1501933161363352,2,-3,-2,19,2,2,-5,5
1501933161365309,-23,-2,-2,-28,-1,6,-4,-21
1501933161365309,20,3,1,8,0,-3,-29,19
1501933161386351,3,-3,1,7,1,0,3,19
1501933161386351,-12,-4,-1,-18,-3,2,27,2
1501933161387311,5,-3,1,26,4,-2,2,-10
1501933161387311,5,-2,-2,-17,-3,1,10,8
1501933161400377,-10,-2,0,-8,-3,-4,-34,-6
1501933161400377,3,0,3,10,1,0,-7,3
1501933161407328,-2,-7,-3,4,2,0,14,-38
1501933161407328,4,0,-2,-7,-9,-3,9,12
1501933161423387,-2,0,3,5,1,-1,-2,-2
1501933161423387,1,-3,-2,-10,-2,-4,6,-1
1501933161425313,-17,-4,0,11,1,-1,13,26
1501933161425313,26,-1,3,6,2,1,0,-5
1501933161446378,-1,1,-8,-11,-3,-4,-3,-1
1501933161446378,-5,1,0,1,-1,-1,12,4
1501933161447315,5,-1,-4,-9,-1,-1,-6,10
1501933161447315,-13,1,0,2,1,-4,-12,9
1501933161460373,-7,-7,-1,-2,-4,-1,24,-2
1501933161460373,8,-1,0,-3,0,-5,-12,2
1501933161467383,6,7,3,2,2,7,19,-4
1501933161467383,-25,-4,-2,-1,-1,-4,5,-6
1501933161483355,10,0,-6,3,-1,-6,-41,-16
1501933161483355,-1,3,1,-3,0,11,56,12
1501933161485318,13,0,3,9,1,4,15,1
1501933161485318,-7,-3,-10,-2,0,-3,-30,3
1501933161506382,0,0,0,-13,-7,1,1,7
1501933161506382,-17,-2,-3,-2,2,0,-7,20
1501933161507319,-5,-3,1,-10,-4,-4,-23,-6
1501933161507319,3,2,-2,11,1,1,4,-7
1501933161519356,-12,-1,2,4,0,-3,-6,1
1501933161519356,-4,-5,-2,-9,-4,-5,-57,-23
1501933161528347,-60,-2,-7,5,-2,-1,12,-2
1501933161528347,29,1,0,-7,-3,-2,-18,5
1501933161543361,4,-2,-1,-2,2,4,18,6
1501933161543361,3,-2,-5,-5,-5,-10,-56,-22
1501933161545320,6,0,-3,-4,-3,1,12,5
1501933161545320,-11,-3,-3,-2,-2,-3,-14,-15
1501933161566400,-12,2,0,-4,-2,2,23,7
1501933161566400,22,3,3,7,-1,1,-29,0
1501933161567322,12,-4,-5,-4,-1,-5,20,-9
1501933161567322,-15,1,0,-5,0,1,9,-9
1501933161579345,16,0,-3,5,-1,-1,-1,-1
1501933161579345,-22,-5,-1,16,-1,-4,7,-12
1501933161588337,-5,3,-9,-42,-6,-1,16,-19
1501933161588337,0,0,5,1,-1,-4,-19,-4
1501933161603334,-11,-4,-7,-2,-3,-5,6,6
1501933161603334,6,2,1,-5,0,-1,15,-8
1501933161605324,-7,-2,-3,9,3,7,-6,28
1501933161605324,16,-2,1,3,-1,1,6,4
1501933161626392,-6,0,-2,-4,-2,-3,-17,-20
1501933161626392,31,4,0,-2,0,-2,-4,-10
1501933161628325,10,-2,2,6,-1,-4,-23,11
1501933161628325,-31,-13,-3,-4,-1,-1,-6,-2
1501933161639366,6,8,2,4,0,2,-4,-9
1501933161639366,-6,-6,-2,-8,-3,-5,-24,8
1501933161648357,42,4,1,5,0,-4,-7,-4
1501933161648357,-5,0,1,14,1,-3,-15,-6
1501933161663339,8,-2,3,-16,5,0,10,12
1501933161663339,-22,-5,-5,-6,-2,0,14,8
1501933161665336,7,0,0,-3,-5,-2,-34,6
1501933161665336,-2,-2,-1,-4,-4,-4,-10,9
1501933161693373,3,-4,-1,10,2,2,25,16
1501933161693373,-7,3,5,0,1,5,24,4
1501933161695341,-9,-3,-7,1,-2,-1,-7,-9
1501933161695341,13,1,3,2,0,3,2,-6
1501933161699379,2,-1,1,1,-1,1,11,-36
1501933161699379,-6,-2,-4,-8,0,0,16,19
1501933161708347,1,-1,4,5,-1,-6,-28,-12
1501933161708347,-9,0,0,-5,-1,2,15,6
1501933161723369,-6,-2,0,1,0,3,-13,5
1501933161723369,46,-1,-2,0,-1,-2,-37,8
1501933161725331,-15,4,-1,-2,-1,2,32,3
1501933161725331,5,-1,-4,-6,-4,-8,-23,-59
1501933161746377,-20,-5,-2,0,-2,1,-1,9
1501933161746377,13,1,-2,3,0,-5,-26,11
1501933161747333,-7,-5,2,-1,-2,2,18,1
1501933161747333,-1,1,-1,-3,-3,-2,9,-2
1501933161759394,2,-1,0,4,1,-1,18,13
1501933161759394,-9,-2,0,-4,-1,-1,27,-13
1501933161768344,6,-3,-3,-1,-2,-3,3,-5
1501933161768344,-7,-1,-3,-2,1,-1,-3,36
1501933161783357,2,-2,0,-2,1,4,18,-12
1501933161783357,-2,2,0,16,4,4,23,-9
1501933161785335,2,0,1,-34,-9,-2,-4,-8
1501933161785335,13,-3,-3,0,1,0,2,7
1501933161806380,-12,3,-2,-3,-3,-8,-30,1
1501933161806380,-13,-2,0,1,-4,0,14,-23
1501933161807344,-1,-2,1,6,2,-1,-9,-1
1501933161807344,3,-3,-2,-3,0,-1,-14,8
1501933161819337,6,-1,-3,1,-3,0,-3,0
1501933161819337,-13,1,-3,-4,-1,5,0,13
1501933161828348,4,-2,-3,4,0,-1,-9,-10
1501933161828348,-5,4,1,-2,-1,3,16,-4
1501933161843379,10,-3,0,2,-2,-4,-9,-20
1501933161843379,5,1,-2,-8,-3,1,8,-11
1501933161845337,-10,-1,2,2,0,0,22,-12
1501933161845337,4,-1,-3,4,1,-1,5,10
1501933161866408,-40,-7,1,-1,0,4,25,10
1501933161866408,-37,3,-8,-9,-4,-4,5,-8
1501933161867339,9,-1,-3,4,1,-3,-10,-3
1501933161867339,-15,0,1,-3,-3,-2,-3,-1
1501933161879372,2,0,2,4,-4,-6,-12,-2
1501933161879372,13,-4,-6,-11,-2,-2,1,9
1501933161888351,-9,1,2,4,4,2,11,13
1501933161888351,6,5,0,0,0,2,10,0
1501933161904407,15,-4,-6,-4,0,0,-6,-10
1501933161904407,4,-1,2,1,0,0,1,3
1501933161905379,6,0,-2,1,-1,-6,-26,-2
1501933161905379,-7,-4,-2,-4,-2,1,17,-28
1501933161926385,2,1,0,-3,-3,-3,-6,-1
1501933161926385,-8,-1,0,1,0,2,2,6
1501933161927343,19,-2,-5,-4,-3,-3,-2,9
1501933161927343,5,0,1,-1,-2,-3,-17,13
1501933161948411,-1,-1,1,4,0,-2,10,3
1501933161948411,-7,-2,1,-3,-3,-8,-39,-19
1501933161950344,2,-9,-1,2,0,5,21,1
1501933161950344,30,10,2,0,0,7,23,16
1501933161963387,2,3,-2,-1,-1,-1,-8,-7
1501933161963387,-10,4,2,2,0,4,22,-18
1501933161965345,5,-4,1,2,-1,-3,-12,-7
1501933161965345,-2,-4,-7,-8,-5,-5,-36,6
1501933161986387,-4,-1,-4,-6,-2,-1,-24,-5
1501933161986387,0,-1,1,2,1,1,12,22
1501933161987349,-17,3,2,5,2,2,3,1
1501933161987349,-1,1,2,2,0,-4,-10,2
1501933162008418,-5,-2,0,0,1,3,10,-1
1501933162008418,9,-4,-2,1,-1,-2,-11,3
1501933162010379,3,-1,-1,-1,-1,2,17,-7
1501933162010379,29,1,-4,-1,-1,-6,-22,4
1501933162023415,-12,-5,-5,-6,-3,-3,-30,-9
1501933162023415,-3,5,5,3,2,7,26,11
1501933162025375,-10,0,-2,-4,-3,-3,-10,-27
1501933162025375,-15,0,-1,-1,1,0,15,-11
1501933162046423,-5,1,0,-2,-3,-2,10,19
1501933162046423,9,-4,-5,-2,-1,1,15,-6
1501933162047350,13,-4,1,0,-3,0,-11,11
1501933162047350,-20,0,0,-1,-3,-5,-26,-4
1501933162068393,-3,-4,-1,-1,0,0,18,4
1501933162068393,-3,-2,0,-3,-4,-10,-25,1
1501933162070362,-12,1,-3,0,-2,-4,4,6
1501933162070362,23,-6,-2,-1,1,2,18,-5
1501933162083391,5,-2,-4,-1,1,6,16,4
1501933162083391,0,-3,-1,-3,-2,-2,-4,3
1501933162085362,7,-2,-2,-3,-4,-7,-55,-9
1501933162085362,-38,2,2,0,0,6,58,2
1501933162106426,-22,-2,4,2,-2,-3,-12,-1
1501933162106426,-5,-1,3,2,3,2,26,6
1501933162107354,7,-1,0,-4,-2,-3,-20,-2
1501933162107354,-19,-2,-6,-2,-2,-4,-38,4
1501933162128427,2,-5,-3,-3,-3,-3,14,-6
1501933162128427,1,0,-2,0,-2,-1,-2,4
1501933162130354,-9,2,1,2,0,0,6,-15
1501933162130354,13,-6,1,1,0,0,4,-9
1501933162142355,18,2,-5,-4,0,-1,-8,6
1501933162142355,-3,-2,-3,-2,-2,-4,-31,-7
1501933162151389,-2,2,-1,1,-3,-5,14,14
1501933162151389,-15,-6,-2,-3,-2,-3,-14,-16
1501933162166424,10,5,0,-2,-2,0,5,0
1501933162166424,37,2,3,0,-2,1,3,6
1501933162167356,-8,-2,-2,-4,-1,-2,-1,-4
1501933162167356,-8,-3,2,3,0,-1,-5,-9
1501933162188397,-39,1,-2,3,0,0,8,-1
1501933162188397,34,5,1,1,-1,0,-8,-4
1501933162190358,-1,-1,-6,-4,-4,0,-1,20
1501933162190358,1,-3,-2,-2,-4,-7,-24,-4
1501933162203370,14,-2,-1,0,-1,0,19,6
1501933162203370,-31,-6,4,5,2,1,3,-7
1501933162209416,-8,2,-1,-1,2,2,-12,10
1501933162209416,20,4,2,-2,-2,-1,-10,22
1501933162226434,10,2,-2,0,0,-4,-16,1
1501933162226434,14,0,-6,-6,-2,-5,-2,-17
1501933162227362,-7,-1,2,3,-3,-3,-6,13
1501933162227362,-5,1,-2,1,2,6,44,-15
1501933162248405,-1,-3,10,2,-1,-2,-16,-7
1501933162248405,-3,2,-7,-3,0,2,5,-8
1501933162250361,4,-1,-1,1,0,-2,8,11
1501933162250361,5,0,-6,-7,-6,-2,15,7
1501933162263395,5,-1,2,1,0,-1,1,9
1501933162263395,-20,-6,-1,0,-1,0,-6,0
1501933162269364,3,-4,0,-2,0,2,19,1
1501933162269364,-31,1,1,1,-2,1,3,2
1501933162286400,16,-3,-5,-4,-2,0,-9,-4
1501933162286400,2,1,3,3,0,1,4,18
1501933162287363,13,0,-2,1,2,0,15,6
1501933162287363,11,-1,-4,-5,-2,-1,4,1
1501933162308422,-5,2,0,0,-1,0,-8,-8
1501933162308422,-12,-7,-4,-5,-3,-5,1,6
1501933162310365,2,0,-5,-3,-2,-1,-6,-9
1501933162310365,-5,-4,-1,1,1,3,-12,-6
1501933162323391,-10,-1,-2,0,-1,0,26,-14
1501933162323391,-7,-2,-5,-4,-5,-4,-2,-2
1501933162329434,2,-5,-1,-2,-1,-3,-5,-9
1501933162329434,-1,-6,-2,0,-1,-7,-37,-9
1501933162346442,-2,0,-6,-5,-3,0,-3,-9
1501933162346442,-5,-1,-3,-1,-1,1,-14,7
1501933162347367,-19,1,0,0,1,5,26,4
1501933162347367,6,0,-2,-3,-1,2,33,7
1501933162368417,10,-5,2,-2,-3,-5,-34,-4
1501933162368417,-27,0,-1,-2,0,2,25,-9
1501933162370378,-2,0,1,1,-1,-1,-30,0
1501933162370378,0,0,-1,1,3,1,20,19
1501933162383378,23,7,-2,2,0,-1,-10,-1
1501933162383378,-10,-3,0,-2,0,5,39,-24
1501933162389440,9,-2,-3,0,-1,0,9,3
1501933162389440,-7,-1,4,-2,-1,0,16,-1
1501933162406448,-5,-3,-9,-5,-2,0,3,5
1501933162406448,9,-1,2,-1,0,-6,-50,-9
1501933162407379,-8,-1,1,1,0,0,5,5
1501933162407379,4,0,-1,-1,-2,0,2,-17
1501933162428431,17,-2,0,-2,-1,-6,-34,-16
1501933162428431,-16,2,-3,-1,-2,-1,-1,5
1501933162430371,-11,-3,0,-2,0,3,23,-19
1501933162430371,-4,-4,-2,0,-1,-1,-10,-2
1501933162442412,0,1,2,-2,-1,-2,14,5
1501933162442412,1,0,-2,0,1,2,-3,-1
1501933162451391,0,-4,0,-3,-5,-3,2,12
1501933162451391,14,-2,-1,2,-1,1,-8,-2
1501933162466445,-6,-2,3,1,0,-2,3,9
1501933162466445,7,-3,1,-3,-5,-11,-43,-15
1501933162467374,-20,-4,1,5,3,8,33,26
1501933162467374,12,4,-1,0,-2,-3,0,-8
1501933162489420,-6,-3,-1,-1,0,2,2,-13
1501933162489420,7,2,0,-2,-2,-4,8,-2
1501933162490375,-1,-3,-10,-8,-1,-6,-31,-20
1501933162490375,-6,-3,-4,-6,-3,-2,5,6
1501933162502417,-3,1,2,2,2,1,-15,15
1501933162502417,1,0,-1,1,2,3,18,10
1501933162511395,7,2,-2,-3,-3,-3,-16,-29
1501933162511395,2,-1,0,3,1,1,-25,-5
1501933162526446,-13,0,-3,-3,-1,0,32,23
1501933162526446,11,-6,0,0,0,1,17,14
1501933162527376,18,3,0,0,-3,-5,-8,-3
1501933162527376,-1,0,1,0,0,-5,-17,20
1501933162548446,-14,-3,-4,-2,-3,-2,-12,5
1501933162548446,3,0,-1,-1,0,0,-5,-12
1501933162550411,-36,-3,1,1,1,4,20,-3
1501933162550411,5,-6,-4,-5,-3,-3,-19,-2
1501933162562400,-5,0,-1,-2,0,-1,0,-12
1501933162562400,13,-1,1,-3,-5,-4,-2,4
1501933162571380,11,1,-5,-4,-3,0,-7,-5
1501933162571380,-13,-2,0,-1,1,-2,-4,-6
1501933162586381,-5,-3,-1,-1,-1,0,10,3
1501933162586381,18,0,0,0,0,-1,-13,0
1501933162587382,-16,-7,1,-1,2,8,49,-4
1501933162587382,7,5,0,1,0,4,24,9
1501933162608442,18,-2,-2,1,1,-3,-4,-13
1501933162608442,-3,3,-1,-5,-1,-3,0,-7
1501933162610415,14,3,2,0,-4,-4,-26,4
1501933162610415,-11,-5,-5,-3,0,0,16,3
1501933162622422,1,-2,-1,-3,-2,-2,-28,15
1501933162622422,-19,-1,-1,3,-2,-4,-3,3
1501933162631397,6,-3,2,0,1,0,-19,-9
1501933162631397,7,-1,-4,-3,-4,-7,-36,24
1501933162646433,-15,3,1,1,0,3,-15,-1
1501933162646433,-31,3,2,2,2,1,6,-8
1501933162647385,7,0,-1,1,0,2,29,0
1501933162647385,-9,-2,3,2,0,-2,4,0
1501933162668443,-5,-3,-8,-3,-2,0,-1,0
1501933162668443,5,-2,-4,-2,-2,2,-2,13
1501933162670398,4,1,0,-2,-1,-4,-27,-7
1501933162670398,-8,-1,1,0,1,0,22,-15
1501933162682424,1,-4,3,2,-2,-3,-1,-8
1501933162682424,-3,-2,-2,-5,-4,-4,-18,-4
1501933162691400,10,-2,-3,-3,-3,-6,37,13
1501933162691400,-1,-1,1,0,3,5,14,6
1501933162706391,-8,2,-5,-3,-2,0,13,-9
1501933162706391,-10,-3,-4,-2,-1,2,-15,4
1501933162707411,8,-2,-1,-2,-1,-6,-28,2
1501933162707411,0,1,2,-1,-1,4,-4,23
1501933162728431,-3,-1,2,1,0,4,20,-8
1501933162728431,-25,-3,-4,-2,-3,-3,-1,-2
1501933162730421,4,2,2,-1,-2,-2,-15,9
1501933162730421,8,1,-1,0,-2,4,24,-5
1501933162742452,3,-1,-1,-1,1,1,0,9
1501933162742452,-4,-1,-2,-1,1,1,7,4
1501933162751404,-9,-2,-1,-3,-2,-3,-15,-9
1501933162751404,1,-1,-3,-1,-3,-2,13,-12
1501933162766442,1,-8,0,-2,-1,-6,-12,-7
1501933162766442,6,1,3,2,0,-5,-21,1
1501933162767393,-16,-12,-6,1,2,5,34,-3
1501933162767393,17,8,-4,-2,-2,-9,-54,-10
1501933162788458,4,-2,-1,-1,-2,-2,10,-4
1501933162788458,2,-4,1,0,0,4,6,6
1501933162790392,-2,1,-3,-2,0,-2,-10,-14
1501933162790392,-13,-4,0,-4,-3,-4,-19,-15
1501933162802428,3,2,3,3,1,3,9,9
1501933162802428,23,-1,-3,0,1,-2,-11,-19
1501933162811407,7,3,3,0,-3,1,6,8
1501933162811407,-10,-3,-1,-3,-1,-1,11,-12
1501933162826405,-13,2,1,-2,-2,-2,7,7
1501933162826405,51,2,0,1,2,0,-6,-19
1501933162827425,8,5,-1,0,-1,2,5,-9
1501933162827425,-7,-3,-1,-1,0,0,0,-6
1501933162848429,6,-3,0,-3,-1,-1,-17,7
1501933162848429,-12,-2,-3,-2,-1,-1,4,8
1501933162850397,-10,-1,-2,1,-2,-5,-30,-5
1501933162850397,-2,-1,-3,-1,0,3,24,-8
1501933162862467,-3,1,4,2,2,4,9,1
1501933162862467,-14,-3,-6,-6,-4,0,10,7
1501933162871397,1,0,0,-2,0,-1,-3,-6
1501933162871397,14,-1,2,-1,-1,2,15,16
1501933162886397,-21,-3,-5,-4,-2,-2,3,-10
1501933162886397,-9,-1,1,0,-1,2,13,13
1501933162887404,0,0,2,0,-2,0,-8,-3
1501933162887404,-7,-5,-3,1,-2,-5,-22,13
1501933162908465,5,-2,-1,-1,-2,-8,-25,-18
1501933162908465,-36,-5,0,1,0,2,6,-15
1501933162910431,6,0,-1,-1,0,6,18,1
1501933162910431,8,3,0,2,-2,-4,-10,-9
1501933162931445,1,-1,-3,0,-2,0,12,0
1501933162931445,-6,-3,0,1,-2,-3,4,3
1501933162932402,-4,0,-8,-5,-3,-4,-9,0
1501933162932402,-30,-1,1,-1,1,1,9,-12
1501933162946412,64,2,-2,-3,0,-2,-17,10
1501933162946412,7,2,0,0,0,2,22,-20
1501933162947402,-15,-4,1,1,1,0,-9,-10
1501933162947402,7,-2,-4,-1,-3,-1,26,1
1501933162968442,-15,-2,-4,-2,-3,-7,-14,-11
1501933162968442,1,-2,0,-1,-2,1,4,11
1501933162970405,-3,-1,-5,-4,-3,-6,-12,-1
1501933162970405,-38,-4,0,-2,-3,-5,-39,-5
1501933162991443,-10,-3,0,-1,-1,3,14,9
1501933162991443,12,3,0,-2,-2,1,-4,1
1501933162992404,-12,-1,2,1,0,-4,-12,-1
1501933162992404,14,-1,1,-3,-2,-2,-20,1
1501933163005470,13,-4,-2,-2,-1,0,6,39
1501933163005470,-1,0,-1,-1,2,9,43,-11
1501933163013442,-1,4,0,0,-1,2,40,3
1501933163013442,7,-3,2,0,1,2,30,3
1501933163028464,-3,5,-2,-2,-2,1,11,-4
1501933163028464,6,-3,-3,-3,-3,-6,-21,19
1501933163030406,18,-4,1,0,-2,-2,-11,7
1501933163030406,3,0,1,0,0,0,-2,-7
1501933163051442,-15,-2,-2,1,2,1,9,-12
1501933163051442,-2,-1,-1,-1,-2,-6,-12,4
1501933163052409,-10,-2,-1,0,-1,-1,-12,-12
1501933163052409,2,-1,-2,0,0,-2,-32,2
1501933163065455,-2,-3,-5,-6,-2,-1,-15,-17
1501933163065455,-1,1,-2,-2,0,-4,-4,-2
1501933163072451,0,0,-1,1,0,-1,-3,9
1501933163072451,-2,-1,-4,-1,-3,-1,-9,-4
1501933163088452,-9,-1,0,-2,-2,-2,0,-8
1501933163088452,0,0,-2,0,0,-1,-11,-4
1501933163090424,-2,-1,-1,-3,-1,-2,0,4
1501933163090424,-1,-2,-6,-1,0,0,-14,2
1501933163111429,-7,1,-1,2,1,0,18,-20
1501933163111429,-5,-3,1,0,0,-3,-6,6
1501933163112416,1,-3,-2,-2,-2,-2,-6,-1
1501933163112416,-1,0,0,-1,-3,0,7,-2
1501933163125423,-4,-2,-1,0,-1,-3,-12,2
1501933163125423,-1,-1,0,0,0,-2,-6,0
1501933163132412,2,0,0,-2,0,0,0,0
1501933163132412,0,0,0,-1,0,0,0,-5
1501933163148444,-5,1,1,1,-1,1,1,4
1501933163148444,0,-1,-3,-3,0,-1,-1,-2
1501933163150445,1,-4,-4,-1,-1,0,-3,0
1501933163150445,9,-2,-3,-4,-1,-2,4,0
1501933163171446,2,1,2,3,2,-2,-7,-1
1501933163171446,0,-2,-2,-3,-3,-1,1,-2
1501933163172415,-1,3,3,1,3,0,-3,-3
1501933163172415,-24,-11,-5,-4,-3,-2,2,0
1501933163185460,-2,3,0,-1,-2,-1,-1,-3
1501933163185460,1,-1,0,0,0,-2,-3,-2
1501933163192459,1,-1,1,-1,0,0,0,4
1501933163192459,3,2,4,3,1,2,2,-4
1501933163210416,-2,-2,-3,-4,-2,0,-6,-1
1501933163210416,-7,0,-1,-2,-2,-1,0,-1
1501933163211416,-3,-2,-4,0,-2,-2,-3,-2
1501933163211416,2,-1,1,-3,-1,-2,2,-3
1501933163231419,-3,-3,-1,-1,0,1,0,2
1501933163231419,5,-1,0,-2,-2,-2,-4,-1
1501933163232420,-1,0,-1,0,-1,2,-2,1
1501933163232420,1,3,0,-2,0,-1,1,-2
1501933163245459,3,0,-2,-2,-3,-4,-3,0
1501933163245459,0,-1,2,2,0,1,5,8
1501933163252494,-19,0,-3,-4,-2,-3,-6,-10
1501933163252494,-4,1,-1,1,-1,-1,-3,-3
1501933163268486,-1,-2,0,-2,-2,0,-2,2
1501933163268486,-2,-1,-4,-2,-3,-2,-9,0
1501933163270452,0,-1,-2,0,-1,-1,2,3
1501933163270452,4,2,-3,0,2,-1,-2,1
1501933163291471,-7,-3,-2,-1,-4,-2,-2,-4
1501933163291471,1,-1,-4,1,-1,0,-4,-4
1501933163292423,2,-2,1,1,0,-1,5,10
1501933163292423,4,0,-3,-2,-3,-1,-1,-8
1501933163305462,6,0,-1,0,0,-2,-8,-1
1501933163305462,-1,-2,-3,-2,-1,-3,6,-2
1501933163312464,3,1,0,0,0,-1,-4,-3
1501933163312464,1,-4,-3,-2,-1,-1,-7,-2
1501933163328469,-16,-1,0,2,0,0,4,-2
1501933163328469,-9,0,-2,-4,-2,-1,-3,-4
1501933163330424,-2,-2,-6,-4,-2,-3,1,1
1501933163330424,2,-2,1,2,0,-1,-10,-16
1501933163351476,-2,-2,2,1,0,1,-1,-4
1501933163351476,0,-3,-9,-2,-2,0,1,-5
1501933163352437,1,-2,-4,-3,-2,-2,-10,-4
1501933163352437,0,1,-2,-1,-2,0,6,6
1501933163365458,5,-1,0,0,-1,-2,0,-1
1501933163365458,1,1,2,1,0,0,1,0
1501933163372499,3,-1,0,-1,0,-1,-1,3
1501933163372499,0,1,-2,-4,0,-1,2,-1
1501933163388487,0,-1,-1,-1,1,1,5,1
1501933163388487,-3,-2,-2,1,-3,-4,-6,0
1501933163390459,-2,-2,5,1,-2,-3,0,-3
1501933163390459,-3,0,1,0,0,-4,2,4
1501933163411446,-1,-2,-2,0,-2,6,-1,-1
1501933163411446,2,1,-1,-1,4,2,1,-1
1501933163412428,3,-2,-2,-1,-3,0,0,-1
1501933163412428,-4,1,-1,-2,-2,-2,3,0
1501933163424575,2,-3,4,-4,-1,-6,-3,2
1501933163424575,0,-3,-11,-16,-3,1,-1,-4
1501933163433551,0,2,1,12,6,3,3,0
1501933163433551,-3,0,6,9,-5,-2,-4,3
1501933163448582,-3,-1,-4,5,1,2,-1,1
1501933163448582,-2,-1,5,1,-3,-5,-2,-1
1501933163450513,-2,-2,-2,-7,-1,1,0,-1
1501933163450513,0,-2,-1,6,1,3,4,0
1501933163471536,2,0,0,0,-4,-2,0,-1
1501933163471536,0,-1,-1,-30,4,2,0,-1
1501933163472548,0,0,-1,40,-3,-5,-1,0
1501933163472548,-1,-3,2,-22,-1,-3,-3,-3
1501933163484584,2,-1,-2,-3,-3,-4,1,-1
1501933163484584,-1,-1,-2,-2,2,-2,-5,5
1501933163493517,-1,-2,-13,-43,-3,3,9,-4
1501933163493517,-1,-4,-21,-83,-8,3,3,0
1501933163508584,-6,-3,26,87,-1,-12,-10,-6
1501933163508584,1,-1,-3,-21,0,-1,1,0
1501933163510517,1,0,1,-30,4,3,-2,1
1501933163510517,-4,-1,28,88,-1,-14,-7,-3
1501933163531536,1,-2,-20,-35,-10,0,5,-1
1501933163531536,1,-1,2,6,-5,4,5,-2
1501933163532519,0,-1,-6,-27,1,4,-7,1
1501933163532519,-1,-2,-15,-47,-2,1,2,4
1501933163544584,-2,-2,-16,-9,1,1,-23,1
1501933163544584,-1,1,15,52,-5,-9,15,-1
1501933163553526,-3,-3,-8,4,2,-5,4,4
1501933163553526,2,2,4,-28,-11,3,-5,10
1501933163568568,0,3,7,43,4,-6,4,-3
1501933163568568,1,-3,-8,-42,-1,3,-12,-4
1501933163570532,0,-1,-6,-13,-4,-4,4,-7
1501933163570532,-6,-7,-22,65,3,5,2,-5
