timestamp,emg1,emg2,emg3,emg4,emg5,emg6,emg7,emg8
1501927184811914,9,-9,0,0,1,-10,-31,-103
1501927184811914,-29,5,3,5,-1,3,32,6
1501927184812920,25,5,1,3,5,-1,-2,-18
1501927184812920,-103,-11,-9,-3,-7,-7,-43,-19
1501927184812920,38,-1,-11,-5,-7,-14,-92,55
1501927184812920,-18,6,17,3,5,3,-13,-37
1501927184816957,-11,-7,2,-6,-5,-4,-25,46
1501927184816957,24,5,-12,3,1,1,16,-33
1501927184822986,-16,-1,-7,4,1,0,-37,-9
1501927184822986,38,-8,7,-1,-4,1,-5,-2
1501927184832958,5,-7,-37,0,-2,-6,-17,-17
1501927184832958,23,-4,3,-8,-5,-3,-4,7
1501927184845980,2,-3,-3,1,-1,8,48,-9
1501927184845980,3,-3,-9,-1,0,-16,-52,6
1501927184853961,-35,-9,21,20,3,-3,-59,-19
1501927184853961,19,3,-2,-32,-7,4,40,61
1501927184868981,-32,10,2,1,4,1,-9,-38
1501927184868981,-75,-8,-4,-8,-7,-7,-11,17
1501927184876962,38,6,-7,-2,-5,-10,-14,-2
1501927184876962,-15,1,8,14,6,-2,-21,-21
1501927184890963,11,-9,0,1,0,7,45,65
1501927184890963,47,12,6,2,1,10,-2,-58
1501927184897989,-114,-10,2,-7,1,-6,-38,-70
1501927184897989,-20,-3,-5,1,-1,1,6,-14
1501927184939929,-17,6,5,1,2,-2,-10,56
1501927184939929,-8,0,-3,-1,-4,-7,-42,-22
1501927184940924,-85,-10,-1,-1,-3,-2,3,36
1501927184940924,-11,17,-3,2,3,-2,-6,-53
1501927184943942,-40,-3,0,-5,-3,-9,-22,12
1501927184943942,-23,2,7,20,4,7,-6,-11
1501927184943942,32,-15,-16,-19,-1,5,31,20
1501927184943942,-25,-5,-4,-12,-3,-3,-21,-15
1501927184950961,59,1,0,2,1,-4,-13,-13
1501927184950961,-13,-1,-9,-5,0,-7,-13,-22
1501927184957964,20,-1,8,11,-2,2,0,58
1501927184957964,-103,-5,-3,-5,-4,-5,-33,12
1501927184965942,18,11,14,4,7,19,104,-53
1501927184965942,81,-17,-6,-7,-8,-9,-55,69
1501927184980936,26,16,-4,4,-3,-2,-5,-47
1501927184980936,84,-8,4,1,-1,-1,-21,11
1501927184987974,-22,6,-6,0,-2,-6,-21,-15
1501927184987974,-12,-6,14,-2,-1,-2,6,-6
1501927185011932,-11,-5,-15,-6,-1,-3,-9,-9
1501927185011932,26,-13,2,4,3,2,-2,45
1501927185012927,2,-11,-2,-1,1,-8,-40,13
1501927185012927,-20,19,-6,-1,4,19,99,-9
1501927185025996,-97,4,2,-3,-4,-9,-32,-11
1501927185025996,-13,-2,-1,1,-1,-1,42,10
1501927185026928,36,5,-3,-3,-2,-3,-51,85
1501927185026928,-20,-15,-7,7,-2,5,38,0
1501927185048973,27,11,6,-26,1,1,-3,-70
1501927185048973,0,-3,-34,-5,-7,-4,1,-9
1501927185049931,-35,-1,-1,0,1,0,-14,-29
1501927185049931,51,3,-13,-1,1,-1,4,-66
1501927185071972,-25,1,7,9,-3,-5,-3,-2
1501927185071972,52,1,16,0,0,1,11,0
1501927185072931,71,-15,-12,-7,-5,-1,26,5
1501927185072931,-22,-24,-5,-6,-5,-5,-8,30
1501927185085942,105,7,4,7,1,6,11,-23
1501927185085942,-6,16,5,-3,1,0,-3,-18
1501927185086932,-110,10,8,6,1,2,16,-7
1501927185086932,79,-29,-2,0,-1,2,-4,19
1501927185108977,-51,12,0,-1,1,2,2,-4
1501927185108977,47,20,2,3,-4,-6,-6,33
1501927185109935,73,-7,-3,-11,4,8,19,22
1501927185109935,40,11,10,4,2,-2,-22,-4
1501927185131999,-4,-13,-3,18,-7,-6,-14,-9
1501927185131999,46,-10,0,23,1,-4,-9,44
1501927185132968,-21,-7,-11,6,-1,-4,-3,-12
1501927185132968,-30,16,-2,-54,-5,-1,3,3
1501927185145951,2,-11,-4,19,1,0,11,-3
1501927185145951,-22,-7,-3,-11,-6,-5,-15,-7
1501927185146964,-30,-10,5,9,-1,-2,-1,-17
1501927185146964,-26,1,0,0,2,2,-11,0
1501927185168984,-32,5,-3,-14,3,3,3,20
1501927185168984,-14,-4,-3,-4,0,2,9,-17
1501927185168984,-12,-12,-5,-10,-4,-2,-8,11
1501927185168984,-113,17,7,14,3,-2,-5,-18
1501927185191981,38,-6,-1,-2,1,1,1,-17
1501927185191981,-16,0,9,4,3,3,5,-2
1501927185192940,-26,-8,5,-1,0,-2,5,-20
1501927185192940,11,-9,-2,2,-5,-8,-9,13
1501927185206960,-40,-5,-11,-1,-2,-3,-10,-7
1501927185206960,48,1,8,0,3,7,21,-11
1501927185213985,-63,14,-2,-1,-1,-2,0,5
1501927185213985,28,6,3,6,-2,0,1,17
1501927185228961,-4,-9,-4,-2,-1,-3,7,44
1501927185228961,5,-5,-11,-6,-1,-1,-2,-16
1501927185228961,-19,5,0,-2,-4,0,12,-24
1501927185228961,-13,22,2,-7,2,-3,-12,-17
1501927185251974,56,-3,1,7,-2,3,9,-10
1501927185251974,-52,-2,-6,-5,-3,1,-3,-25
1501927185252943,20,-5,2,6,-1,1,5,34
1501927185252943,100,-20,-12,-2,-6,-6,-23,-51
1501927185266014,16,19,14,-4,5,0,-14,-28
1501927185266014,2,6,3,-3,0,0,5,3
1501927185266942,21,5,-2,1,-4,-2,-10,-20
1501927185266942,11,-4,0,20,1,3,17,35
1501927185288945,-10,-5,-5,-45,-5,-4,-13,12
1501927185288945,-23,-6,0,11,3,0,3,-15
1501927185288945,26,2,3,2,3,-1,-3,-2
1501927185288945,-2,-10,-2,0,-4,-4,-8,8
1501927185311983,8,-10,-6,4,-1,-5,-3,-6
1501927185311983,-48,0,-1,-1,1,-1,1,38
1501927185312945,-11,1,0,9,0,-3,-9,-24
1501927185312945,5,-3,0,-3,-1,0,4,0
1501927185325960,26,-6,8,8,0,1,0,-28
1501927185325960,67,21,1,-8,0,1,1,-1
1501927185334018,82,-2,-9,-9,-8,-6,-10,14
1501927185334018,8,-1,0,0,2,-2,-12,38
1501927185348949,-41,12,6,5,1,-1,13,-28
1501927185348949,-78,-1,0,-7,-2,-5,-20,-30
1501927185348949,18,3,-2,6,3,7,17,-25
1501927185348949,-34,8,4,-6,-5,-1,-3,18
1501927185371992,15,-25,-10,-3,-3,-4,-13,66
1501927185371992,-32,3,1,0,-1,4,36,-37
1501927185372948,-16,-3,-4,-7,1,-1,-12,30
1501927185372948,-36,-4,2,-8,-1,-4,5,-7
1501927185385973,-20,-1,8,29,3,2,1,5
1501927185385973,15,-10,-2,-18,-3,-6,-9,-15
1501927185393994,34,-7,-15,-9,-6,-6,-7,0
1501927185393994,2,7,-1,5,1,3,12,-13
1501927185423991,54,7,-6,-7,-4,-2,-1,10
1501927185423991,86,-10,7,12,6,4,2,68
1501927185424990,-4,15,-2,-5,-5,-4,-6,-35
1501927185424990,-8,0,3,-1,1,0,2,-10
1501927185432000,13,7,3,5,3,-2,-10,0
1501927185432000,-58,-23,-14,-11,-7,-4,-2,14
1501927185432954,-34,-11,4,-5,-2,-4,-24,-7
1501927185432954,-13,5,-1,6,-3,-2,4,-6
1501927185446022,-1,-10,-1,-9,-4,0,9,-15
1501927185446022,15,4,-4,4,0,-1,-20,11
1501927185453998,-12,-9,-2,-5,-5,-3,11,-11
1501927185453998,22,0,-8,-2,2,0,0,17
1501927185468960,19,-3,6,3,3,2,8,5
1501927185468960,-31,0,-3,0,-1,-3,-5,-1
1501927185469954,6,0,0,-4,-1,3,9,11
1501927185469954,-41,-5,-3,4,-1,1,-5,15
1501927185491999,8,6,2,-2,-3,-2,0,-11
1501927185491999,11,-5,-7,-6,-1,-2,-2,-22
1501927185492970,-11,5,4,3,1,2,3,-12
1501927185492970,-98,-10,-5,0,-4,-6,-2,-7
1501927185505970,-1,3,-1,-2,1,0,-7,-14
1501927185505970,17,-2,2,4,1,1,4,-12
1501927185513957,-12,8,10,-3,1,3,0,15
1501927185513957,23,-4,-7,2,1,-1,-4,7
1501927185528998,-43,-4,-2,-8,-4,-3,5,-31
1501927185528998,-3,-3,-5,-2,-6,-4,-11,6
1501927185528998,-8,-1,0,0,1,2,16,9
1501927185528998,34,0,2,-2,1,2,10,-16
1501927185551992,0,-1,0,7,3,2,0,-18
1501927185551992,-11,3,-2,-5,-2,1,1,0
1501927185552958,11,-11,-5,-1,-4,-5,-11,64
1501927185552958,76,9,3,3,-1,1,-3,-29
1501927185565977,1,3,-6,-3,0,-1,-4,7
1501927185565977,-7,-3,-5,-3,-1,0,5,-15
1501927185574004,-4,0,-2,3,2,-2,-3,0
1501927185574004,-10,-10,1,-5,1,0,4,4
1501927185589037,74,-14,-8,-3,-3,0,0,37
1501927185589037,-9,8,1,3,3,4,12,-46
1501927185589963,15,3,0,1,0,0,2,-23
1501927185589963,0,1,3,-4,-4,-4,-6,3
1501927185610971,-16,3,-9,-3,0,-3,-3,-6
1501927185610971,11,3,7,5,5,4,4,38
1501927185611963,-20,15,3,-3,0,0,-1,-22
1501927185611963,-11,-2,1,3,-2,-2,0,-11
1501927185625985,1,-23,1,1,-2,-4,-7,23
1501927185625985,-6,-44,-9,-7,-5,-4,-12,-4
1501927185634004,-4,25,1,2,1,-1,7,-52
1501927185634004,3,-6,0,-2,-1,2,1,18
1501927185649009,-17,14,-1,-5,-1,-3,-3,16
1501927185649009,52,23,6,5,-1,-2,-11,-3
1501927185649009,-16,-10,-1,-3,-5,0,-2,38
1501927185649009,-61,15,18,14,10,2,2,-31
1501927185671007,-11,-4,-7,0,-3,-1,3,-1
1501927185671007,-9,-5,0,-12,-3,-4,0,6
1501927185671965,-5,-4,0,3,0,-1,-5,9
1501927185671965,10,0,-13,-8,-4,-3,-1,4
1501927185684969,-8,-2,1,5,2,2,-1,19
1501927185684969,12,18,4,7,3,1,-1,2
1501927185694001,7,-8,1,-3,-1,-2,-1,-12
1501927185694001,-1,-8,-15,-5,-4,-1,4,9
1501927185709039,-3,0,-4,-4,-4,-5,-12,-36
1501927185709039,-15,-8,1,-3,-3,-2,5,-1
1501927185709039,19,-7,-11,-6,-2,4,5,-6
1501927185709039,-24,-1,4,-2,-2,-1,-3,2
1501927185730976,6,11,-3,-3,-2,2,5,12
1501927185730976,-18,-6,-2,2,2,-1,-11,-38
1501927185731971,-26,-6,-3,-4,-5,-1,-1,9
1501927185731971,-6,5,0,-4,-2,-2,-2,-31
1501927185754004,-22,-3,-4,1,0,1,2,-8
1501927185754004,-31,-5,-12,-6,-8,-3,2,53
1501927185754980,26,3,11,10,2,-3,-1,-34
1501927185754980,28,-3,-10,-13,-3,-3,-3,47
1501927185768992,-19,-7,-4,-4,-3,-2,-1,-10
1501927185768992,-2,-2,-1,5,1,0,5,-3
1501927185768992,4,-3,-4,1,1,-1,-6,-3
1501927185768992,18,1,1,3,2,1,6,10
1501927185791019,-33,0,-3,-6,-6,-1,1,-7
1501927185791019,77,-10,-5,-3,-3,0,1,39
1501927185791972,15,2,2,-1,0,-2,0,9
1501927185791972,3,-2,1,2,3,3,2,-10
1501927185813983,7,0,0,-1,-2,-3,-4,3
1501927185813983,-16,5,2,0,2,2,6,-9
1501927185814973,2,-4,-2,-5,-4,-3,-2,2
1501927185814973,-13,-2,-3,-3,-1,-2,-5,7
1501927185829009,23,3,4,3,0,-1,3,-4
1501927185829009,-11,4,4,2,1,1,-2,-15
1501927185829975,0,-8,-7,-6,-1,-3,-6,13
1501927185829975,-7,0,1,0,1,3,5,-29
1501927185851017,0,5,6,2,0,-2,-3,4
1501927185851017,-4,5,0,-4,-1,-3,3,7
1501927185851976,25,-12,-2,-1,0,-4,-9,-24
1501927185851976,-1,-3,-7,0,-3,-3,-2,42
1501927185874042,6,-4,-3,0,-1,1,1,0
1501927185874042,-11,-2,2,-1,-2,-3,1,-13
1501927185874984,-38,-8,-1,1,-1,-1,2,14
1501927185874984,47,6,-3,1,-3,-3,-5,-28
1501927185889030,-3,-1,4,-1,0,-3,-8,-9
1501927185889030,-33,4,8,4,1,-2,-2,1
1501927185889030,-18,-1,-11,-5,-3,1,4,5
1501927185889030,-13,-1,0,-7,-3,-5,-6,-4
1501927185911000,37,-8,-6,-5,-4,-4,-2,5
1501927185911000,23,14,3,-5,-2,2,3,-14
1501927185919981,-21,-4,-3,0,-1,0,-2,-4
1501927185919981,-9,-7,-1,-3,-1,-1,0,-6
1501927185933983,-18,4,-2,-3,0,3,2,5
1501927185933983,-6,-5,3,4,1,-2,-5,-6
1501927185935982,6,2,5,4,3,4,6,-24
1501927185935982,12,1,-7,-5,-4,-3,-1,9
1501927185957030,-6,0,3,0,2,-1,-4,3
1501927185957030,-6,-1,6,5,4,2,6,6
1501927185957983,-10,1,-1,-5,-6,-4,-3,3
1501927185957983,-5,-2,3,-1,-1,-1,-3,-8
1501927185969995,-18,-2,2,1,0,2,2,57
1501927185969995,-7,3,-3,-4,-4,-6,-7,-57
1501927185979056,-8,1,0,-2,1,-3,-2,-20
1501927185979056,-41,-1,1,0,1,-1,0,-10
1501927186002051,39,7,8,1,-1,-2,3,2
1501927186002051,-1,-3,-8,-1,0,2,-2,35
1501927186002985,22,-4,1,-4,-2,-2,-1,20
1501927186002985,-1,6,5,1,1,3,1,-15
1501927186024028,-22,-3,3,3,1,0,-2,27
1501927186024028,-41,-6,-14,-7,-7,-6,-10,-8
1501927186026022,47,-4,5,3,3,2,5,-25
1501927186026022,22,-4,-6,-4,-3,-6,-8,24
1501927186030032,-20,8,5,2,1,2,14,-25
1501927186030032,1,-4,3,3,1,1,0,1
1501927186046998,-16,-10,-11,-9,-4,-4,-1,27
1501927186046998,-14,-1,1,0,-3,-2,0,-2
1501927186054028,2,-5,-6,-5,-5,-5,-8,-29
1501927186054028,12,2,1,1,0,1,3,1
1501927186056000,-24,1,1,2,-1,0,0,1
1501927186056000,-7,-1,1,3,2,4,5,13
1501927186077034,37,-2,-9,-6,-5,-5,-6,-4
1501927186077034,8,-4,-7,-7,-3,-1,0,-2
1501927186077994,19,0,0,2,-1,-1,-2,19
1501927186077994,-4,3,-1,-3,-2,-2,1,20
1501927186090053,-6,4,4,7,5,0,-1,-15
1501927186090053,-42,7,8,-1,2,4,4,-2
1501927186107028,4,0,-5,-1,0,0,-4,-3
1501927186107028,-3,1,-2,-4,2,0,1,-13
1501927186114033,-25,-7,-2,-3,-3,-3,-2,2
1501927186114033,41,7,-3,2,1,-3,-2,13
1501927186115992,-6,5,8,7,2,-3,-4,-15
1501927186115992,-37,-5,-4,-3,-2,0,-2,10
1501927186137032,-2,8,3,6,4,2,-4,9
1501927186137032,-31,0,-7,-9,-7,-3,-2,-44
1501927186138007,-23,0,-5,-6,-1,0,5,12
1501927186138007,6,5,0,4,1,-1,1,10
1501927186150026,-25,-1,5,0,-4,-3,-6,-8
1501927186150026,-28,-9,-5,-1,-2,-2,-5,2
1501927186158997,36,5,1,1,0,2,1,11
1501927186158997,20,9,2,3,-1,-1,-4,-32
1501927186174008,-23,-16,-9,-3,0,0,1,-8
1501927186174008,4,-2,4,3,1,-2,-1,1
1501927186176019,3,-4,-4,-2,-1,-1,2,14
1501927186176019,7,-3,10,1,-2,-2,-5,0
1501927186198038,-17,-8,-4,-4,-1,0,-1,-8
1501927186198038,33,-2,-3,1,1,0,4,14
1501927186210997,0,6,6,1,0,-1,-3,0
1501927186210997,5,-7,-7,-5,-6,-2,2,7
1501927186211997,48,5,-1,-3,-2,0,3,3
1501927186211997,-3,2,3,1,2,-2,-2,-9
1501927186219068,-6,-8,-1,-6,-3,0,-3,0
1501927186219068,63,-4,-4,-4,0,-2,-3,-10
1501927186234044,-2,7,-1,-2,-3,-2,-7,-7
1501927186234044,1,-7,-4,-4,-2,2,0,-29
1501927186240062,19,-1,0,-2,-4,-4,-4,-2
1501927186240062,-38,-3,0,0,2,0,2,1
1501927186257043,-13,-2,-3,3,3,3,5,-14
1501927186257043,2,2,4,0,-2,0,-2,-5
1501927186258001,-13,13,-2,0,-2,0,0,5
1501927186258001,-5,-7,-2,-4,-3,-4,-6,-6
1501927186279044,15,9,3,2,2,-1,3,14
1501927186279044,-54,-3,2,4,1,0,2,1
1501927186281006,-5,-8,-10,-4,-3,0,1,-16
1501927186281006,-17,-18,-3,-4,-7,-3,-2,-3
1501927186302049,20,6,2,2,0,1,-5,-14
1501927186302049,23,-5,-4,-3,-1,-3,-2,10
1501927186303002,-10,-1,-3,-2,-2,-2,-4,-10
1501927186303002,-10,0,3,-4,-3,1,1,5
1501927186317044,-38,-9,-16,-8,-7,-5,-1,12
1501927186317044,25,4,3,1,1,-2,-5,-6
1501927186323043,-15,-6,-3,-4,-5,-5,-3,3
1501927186323043,-1,0,5,4,4,1,0,-3
1501927186339046,7,-18,-7,-4,-2,-1,-2,8
1501927186339046,26,-7,-7,-4,-4,-1,1,31
1501927186341007,11,10,-2,4,2,-4,-13,-19
1501927186341007,-5,-2,-3,-7,-4,1,5,-6
1501927186354049,8,-5,-4,-8,-7,-2,1,11
1501927186354049,-21,0,0,1,0,-2,-1,-24
1501927186356005,7,-3,3,1,1,0,1,1
1501927186356005,9,1,-2,1,-3,-3,-4,1
1501927186377076,-27,-4,5,3,5,-1,-1,-15
1501927186377076,67,1,0,-3,-3,-1,-2,29
1501927186378008,-26,-2,-2,-3,0,2,7,10
1501927186378008,-15,6,0,5,2,1,-2,-33
1501927186399057,32,4,5,0,-3,0,5,11
1501927186399057,-50,-2,0,3,1,-2,-5,-14
1501927186401009,-3,-1,-1,-1,-2,-1,-2,-12
1501927186401009,1,2,-4,1,0,1,4,20
1501927186414021,35,2,3,1,1,1,-7,-17
1501927186414021,14,0,-5,-4,-1,2,5,6
1501927186420010,0,-10,0,-1,-3,-2,-1,15
1501927186420010,-21,2,-2,-2,0,0,-2,-19
1501927186437051,-12,2,2,-6,-3,-2,0,-1
1501927186437051,2,0,-2,-1,1,-1,0,4
1501927186438027,-2,-1,4,2,-1,-1,6,11
1501927186438027,25,4,-11,-2,-2,-2,-1,-9
1501927186459077,-12,-1,1,1,0,-3,-2,-26
1501927186459077,38,-3,-2,-2,-4,0,1,16
1501927186461011,-17,0,0,0,-1,-2,-3,-22
1501927186461011,-10,-1,5,4,2,1,-1,0
1501927186474056,16,0,4,-1,0,0,0,0
1501927186474056,-6,-1,-8,-6,1,-1,-1,0
1501927186480080,6,-5,3,-2,0,2,-1,2
1501927186480080,1,2,2,-4,-4,-5,-10,-1
1501927186497055,-13,1,-1,5,2,-1,-4,-5
1501927186497055,-12,-2,-6,-8,-2,0,4,17
1501927186498015,3,1,5,-1,-5,-4,-7,-22
1501927186498015,-20,0,5,3,4,1,0,-10
1501927186535058,6,-2,-11,-2,-4,-4,-4,10
1501927186535058,-11,0,3,2,1,-2,-3,-24
1501927186537016,-24,10,-5,-1,0,-1,3,10
1501927186537016,-3,-4,2,2,0,4,9,7
1501927186537016,-20,-2,-2,-4,-3,-1,0,-3
1501927186537016,10,-7,-2,-1,-3,-5,-3,-1
1501927186542016,-3,-3,-6,-2,0,-1,0,-3
1501927186542016,31,-4,-5,0,-1,-4,-3,10
1501927186557057,-13,0,-1,-1,-1,0,0,7
1501927186557057,-10,-1,-5,-2,-1,-3,-3,-7
1501927186559050,3,-3,-5,-2,0,-1,-4,-8
1501927186559050,4,1,-7,-8,-7,-2,0,-5
1501927186579064,-15,-2,-6,-5,-1,0,-1,3
1501927186579064,-5,0,9,3,2,-3,-7,-8
1501927186581020,-1,-6,1,-1,-1,2,4,-1
1501927186581020,0,0,0,1,-1,-1,2,1
1501927186602021,3,-1,-2,-3,-3,-3,-1,3
1501927186602021,-24,5,1,3,-2,3,-1,2
1501927186603020,1,0,-1,0,-2,-2,1,13
1501927186603020,-10,-2,2,1,1,-1,-10,-16
1501927186624054,-11,-2,-6,-4,-3,-2,-2,3
1501927186624054,-1,0,4,2,-2,-1,0,-12
1501927186626022,20,0,-2,-2,-1,-1,-3,8
1501927186626022,0,0,-4,0,0,1,2,14
1501927186639035,5,-1,-8,-3,-2,-2,-9,-20
1501927186639035,3,-4,-8,-4,-3,-3,1,0
1501927186641022,-6,-4,-2,-4,-3,-3,0,-7
1501927186641022,10,-1,2,2,2,0,1,-4
1501927186654069,12,7,4,3,-2,-5,-1,18
1501927186654069,-9,-5,-5,-1,-4,-2,-1,6
1501927186660082,-7,1,2,-3,1,4,3,2
1501927186660082,8,3,2,3,1,-1,1,9
1501927186677064,-8,-8,-2,0,-3,-3,-5,-16
1501927186677064,-4,1,2,-2,-2,-1,-1,-1
1501927186678024,-15,-1,0,4,2,-4,-2,-12
1501927186678024,38,1,4,3,3,1,2,16
1501927186699069,-10,-4,0,-1,-1,1,4,10
1501927186699069,-2,0,1,-2,-1,-4,-4,1
1501927186701028,-2,3,1,0,1,0,-1,2
1501927186701028,-22,-3,-4,-8,-8,-8,-9,-9
1501927186714042,-12,-6,0,5,5,3,7,4
1501927186714042,23,10,3,2,1,3,7,17
1501927186720027,1,2,-1,2,1,1,-6,-24
1501927186720027,-7,-1,0,-3,-4,-5,-15,-3
1501927186737066,-3,-1,0,-4,0,1,7,2
1501927186737066,13,-8,-4,-1,0,1,-1,10
1501927186738030,-15,-1,-1,-2,-2,-1,1,9
1501927186738030,-14,-2,-3,-1,0,-1,-1,-2
1501927186759096,14,2,4,5,-1,1,1,-4
1501927186759096,-1,0,-3,-5,-2,-2,0,2
1501927186761030,1,-6,-2,2,1,-1,0,15
1501927186761030,19,-9,-3,-4,-3,-3,-4,-13
1501927186773068,-22,2,-2,-3,-3,-3,-5,-4
1501927186773068,48,-1,5,5,0,-2,-1,-14
1501927186782031,5,-8,-4,-3,0,1,4,22
1501927186782031,-15,-1,-4,-2,-2,-2,2,-22
1501927186796042,34,-1,1,-1,1,1,-1,-8
1501927186796042,-46,-7,-8,-7,-4,-3,-6,-29
1501927186804068,33,5,-1,-2,-2,-2,0,2
1501927186804068,-1,-6,-1,-1,0,3,7,33
1501927186819076,-9,-4,-3,-5,-2,0,7,-2
1501927186819076,12,3,-3,-3,-4,-4,-7,9
1501927186821033,-4,9,-1,-1,0,2,0,-11
1501927186821033,-45,-7,6,2,-2,1,7,-16
1501927186842097,10,-3,-11,-4,-2,-5,-8,-5
1501927186842097,-47,-6,-1,3,1,5,16,113
1501927186843035,29,2,3,-1,-2,-5,-12,-85
1501927186843035,-19,5,2,2,3,1,-9,-34
1501927186857057,-38,-10,-4,-1,-1,1,4,41
1501927186857057,19,14,12,8,6,1,-5,-90
1501927186859034,-49,-5,-7,-5,-5,-1,1,-9
1501927186859034,-29,-21,-14,-8,-5,0,15,54
1501927186879073,-41,7,9,3,6,1,-2,-61
1501927186879073,-37,-5,-3,-2,-1,1,-2,13
1501927186881038,70,2,1,2,-4,0,8,60
1501927186881038,2,5,-2,-2,1,-4,-9,8
1501927186902098,15,-3,-4,-6,-7,-3,2,13
1501927186902098,-14,-4,-2,-4,-1,0,-6,-9
1501927186903038,-8,-7,-2,-6,-2,-3,-1,6
1501927186903038,-7,-1,2,1,-1,-2,0,-1
1501927186917082,57,8,-1,3,0,-2,-6,-51
1501927186917082,-16,5,7,5,2,1,-4,3
1501927186918038,-30,-2,5,5,2,-1,18,-32
1501927186918038,46,-4,-10,-1,-4,-1,3,87
1501927186939047,-36,5,10,3,2,0,-3,-61
1501927186939047,1,-10,-14,-10,-6,-4,1,-54
1501927186941040,-41,0,4,1,2,5,5,26
1501927186941040,5,0,-6,-3,1,-1,-7,40
1501927186953085,-5,3,5,5,1,-1,11,7
1501927186953085,11,-7,-7,-5,-6,-2,-4,8
1501927186962041,-19,-4,-1,1,3,5,2,-16
1501927186962041,-1,4,2,0,0,1,-5,-10
1501927186977081,17,-2,-5,-4,-5,0,-2,60
1501927186977081,3,5,2,2,1,-4,1,86
1501927186978043,6,-4,-8,-8,-6,-5,-5,-62
1501927186978043,-7,0,1,-1,-3,-2,-1,-52
1501927186999069,13,0,1,0,0,2,-7,7
1501927186999069,-5,-3,-1,2,-1,2,8,6
1501927187001044,27,-4,-3,-2,-5,-5,-8,63
1501927187001044,18,2,-8,-1,-2,-2,-1,-26
1501927187013107,-23,4,1,-2,0,-2,-1,-10
1501927187013107,-27,-10,0,-1,-2,0,3,1
1501927187022044,-16,2,-6,-1,2,0,-9,-2
1501927187022044,13,3,4,-1,0,2,0,7
1501927187037085,17,-12,-9,-1,-3,-1,5,46
1501927187037085,45,2,8,6,3,1,-1,-83
1501927187038044,1,13,-2,-1,0,-1,-6,6
1501927187038044,-58,-13,-3,-2,-1,-7,-18,-76
1501927187059084,15,-8,-5,-5,-1,3,20,34
1501927187059084,-1,0,0,0,1,-2,-11,-21
1501927187061049,42,-3,-3,-1,-1,3,14,-16
1501927187061049,-3,5,4,3,2,2,-10,2
1501927187073094,-36,1,2,1,3,0,2,-31
1501927187073094,-11,-1,-2,-2,-3,-3,-5,-21
1501927187082048,9,-6,-5,-3,-3,-4,-9,0
1501927187082048,4,2,0,-3,-1,1,1,18
1501927187104121,21,6,2,-2,-1,-3,-5,-65
1501927187104121,20,-1,-6,-1,-2,0,-1,-32
1501927187112049,-34,-4,1,4,2,0,-2,14
1501927187112049,17,6,4,3,2,1,11,-5
1501927187119060,-25,0,4,2,-1,-5,-9,-3
1501927187119060,-1,-3,-4,-3,2,0,5,9
1501927187121058,-11,-1,1,2,-2,0,-13,-48
1501927187121058,1,4,-4,0,1,0,0,-8
1501927187133099,45,1,-2,0,-5,-6,1,4
1501927187133099,13,1,-1,-1,1,0,1,25
1501927187142051,-10,-8,0,1,-2,-5,-6,-13
1501927187142051,-2,-2,0,1,1,-1,6,30
1501927187157085,-2,0,1,-4,-3,-5,-17,-4
1501927187157085,-25,-7,-6,-1,-1,-1,7,4
1501927187158051,41,2,-3,-2,-1,-3,-7,-15
1501927187158051,1,0,-1,-1,0,-2,-6,-14
1501927187179060,-20,-4,-3,-3,-2,-1,-12,6
1501927187179060,0,0,0,-1,-2,-2,9,72
1501927187181057,-35,-6,0,3,2,4,3,3
1501927187181057,-23,-1,-6,-3,-4,-1,8,19
1501927187202062,44,-4,-2,0,3,3,-9,44
1501927187202062,-27,0,-1,-4,-3,-5,-4,26
1501927187203054,-12,4,0,-1,-1,-3,-2,0
1501927187203054,15,-4,0,2,1,1,9,-24
1501927187217067,-31,-4,-10,-6,-4,-2,-3,-5
1501927187217067,5,-3,-3,0,2,2,-2,0
1501927187218055,-28,-2,-3,-4,-3,-3,2,6
1501927187218055,26,1,-4,1,3,-1,1,-20
1501927187239091,7,3,3,3,-1,0,4,13
1501927187239091,10,0,-1,-2,-3,-1,-7,-35
1501927187241057,-11,-2,-5,-4,-3,-2,0,8
1501927187241057,-4,-3,4,1,1,0,-3,0
1501927187262058,-20,-9,-16,-6,-3,-2,2,-2
1501927187262058,-4,3,7,2,2,1,1,-60
1501927187263058,29,-3,1,-1,0,-2,-2,18
1501927187263058,0,-1,-3,-2,-4,-1,0,5
1501927187277067,-11,-9,-1,-2,-2,-4,-3,-2
1501927187277067,4,5,-2,-1,-5,-6,-11,-54
1501927187278059,10,-2,-2,-1,2,0,-2,2
1501927187278059,20,-1,-4,-2,-4,-3,-1,2
1501927187299101,-25,3,4,1,3,2,2,-5
1501927187299101,-2,-3,2,-2,0,-1,-9,19
1501927187301061,-6,-2,0,-1,-1,1,23,54
1501927187301061,-12,-2,4,0,-3,-4,-13,-59
1501927187322072,30,4,-1,-2,-2,2,-2,-21
1501927187322072,3,-3,-1,-1,0,0,-2,12
1501927187323062,-5,-1,-2,0,-3,-2,-6,-1
1501927187323062,21,-7,5,-4,-3,-3,2,61
1501927187344126,-13,1,2,3,0,-2,1,60
1501927187344126,-15,0,-4,-7,-3,1,5,-5
1501927187346063,10,3,0,-1,2,1,-4,-26
1501927187346063,-33,-6,-6,-2,0,0,3,-2
1501927187359107,27,2,1,1,0,-2,-2,8
1501927187359107,-13,1,1,0,0,0,-1,-15
1501927187361064,-7,-2,-4,-2,-3,1,-2,26
1501927187361064,4,1,1,1,-1,-2,1,56
1501927187382129,-18,6,1,-2,-1,0,9,-95
1501927187382129,49,4,-3,0,0,0,4,84
1501927187383066,2,-4,4,-1,-1,0,10,-35
1501927187383066,13,6,-3,-3,0,2,-1,-33
1501927187396127,-19,-9,-2,-4,-4,0,4,104
1501927187396127,5,0,3,1,-1,-4,-4,-75
1501927187410131,13,-3,0,2,-1,0,-8,-84
1501927187410131,30,7,5,0,-4,-3,-15,-30
1501927187419127,-2,-8,-4,-4,0,1,-7,-31
1501927187419127,8,-10,-8,-3,-5,-3,3,93
1501927187421068,33,7,4,1,0,-3,-3,24
1501927187421068,-29,-3,-8,-3,-4,-5,-5,-56
1501927187442114,-4,7,0,-4,-1,1,-3,-63
1501927187442114,-34,-2,0,-1,-4,-4,4,15
1501927187443070,-4,0,-7,-4,-1,-2,-12,-45
1501927187443070,24,-3,-8,-4,2,-4,-5,-28
1501927187456107,23,0,2,3,0,0,0,-6
1501927187456107,-7,-2,2,-1,1,0,-10,-24
1501927187463139,20,-5,1,-7,-4,-2,1,88
1501927187463139,-34,-8,-2,-2,-2,-1,4,64
1501927187479114,14,11,1,-1,1,-3,-10,5
1501927187479114,-4,-3,-7,-4,-2,-1,-1,42
1501927187481071,-11,4,5,-1,0,0,-1,-16
1501927187481071,-19,-3,2,1,0,-2,-3,9
1501927187502131,-22,-5,-7,-6,-6,-2,6,23
1501927187502131,12,3,5,1,3,2,0,16
1501927187504072,-28,0,2,3,4,3,2,-20
1501927187504072,25,12,-1,-3,-3,-2,6,-7
1501927187516133,-43,-2,0,1,0,-5,-9,-12
1501927187516133,-4,8,3,1,2,0,-6,-87
1501927187523119,-5,-5,-4,-1,0,3,7,19
1501927187523119,14,-8,0,-3,-2,-2,-7,-68
1501927187539074,13,3,2,3,0,-3,0,19
1501927187539074,-3,-3,-5,-1,-2,1,10,4
1501927187541086,-10,0,-2,-2,-3,-5,-15,12
1501927187541086,-35,-6,3,-1,-2,-4,-4,22
1501927187562116,4,-3,-6,-4,-4,-1,7,46
1501927187562116,-2,-21,-9,-7,-4,-5,-9,59
1501927187563076,-6,6,2,0,0,-2,6,-42
1501927187563076,-14,1,-1,1,3,1,-9,6
1501927187576149,8,-7,-10,-1,3,1,-3,6
1501927187576149,-24,5,6,0,-3,-1,3,-53
1501927187590138,0,-3,-3,-4,-2,-1,3,44
1501927187590138,8,-1,-1,-2,0,-1,6,53
1501927187599080,-7,-3,-2,2,0,-1,-3,25
1501927187599080,-40,5,2,7,5,6,4,28
1501927187601090,5,-1,-7,-6,-6,-2,-4,-20
1501927187601090,4,5,7,3,-1,-3,-5,-3
1501927187622153,-9,-2,1,-1,0,1,8,-20
1501927187622153,10,4,0,-3,1,-2,0,19
1501927187623081,20,3,3,3,4,1,2,-15
1501927187623081,4,-3,-2,1,-1,0,0,14
1501927187644125,-7,-4,2,1,-2,-1,0,-9
1501927187644125,-9,-9,-1,-2,-4,-1,-3,-25
1501927187646080,-4,2,-3,-1,-1,-3,-12,-59
1501927187646080,-4,5,-1,-3,-1,3,2,-16
1501927187667124,9,-9,-1,-4,-1,-5,-9,8
1501927187667124,17,-1,-3,1,-2,0,-8,-66
1501927187668081,9,-1,-3,-2,-3,-5,8,25
1501927187668081,-57,-9,-9,-6,-4,-3,5,7
1501927187689121,22,12,6,3,3,3,3,-28
1501927187689121,-13,1,-1,-2,0,-4,-2,-14
1501927187691084,-6,-3,4,3,-1,1,-4,53
1501927187691084,-13,1,0,2,1,3,8,-6
1501927187695146,-9,-4,1,0,-1,0,-1,4
1501927187695146,9,0,2,0,1,-2,-6,16
1501927187710084,-15,-15,-12,-7,-6,-1,7,-2
1501927187710084,56,5,1,-1,1,2,5,27
1501927187719127,-6,-8,1,-4,-6,-1,-6,-10
1501927187719127,-5,6,3,-1,1,0,0,-25
1501927187721084,45,-1,2,3,0,-2,-3,36
1501927187721084,-7,-3,-2,0,-2,-1,-4,-1
1501927187742131,-12,0,1,-3,-3,-3,-1,-20
1501927187742131,28,3,1,1,1,0,0,8
1501927187743095,-15,-3,-2,1,0,-1,-1,22
1501927187743095,9,9,2,0,0,0,-1,-57
1501927187755100,10,1,2,3,0,-3,6,14
1501927187755100,-11,-5,-3,-1,-2,2,5,17
1501927187764097,-3,0,-3,-2,1,-4,-5,-48
1501927187764097,-32,-7,-12,-3,-1,0,1,2
1501927187779129,34,3,3,2,1,2,-4,7
1501927187779129,-13,7,-1,-1,-1,0,14,-45
1501927187781088,16,-2,1,-2,-3,-2,-10,18
1501927187781088,-2,6,11,5,3,1,1,7
1501927187802155,-12,-4,-10,-5,0,-1,-5,-13
1501927187802155,-11,-7,-9,-4,-6,-2,-3,27
1501927187803089,30,5,3,3,0,2,2,9
1501927187803089,11,-6,-10,-3,-4,-3,-4,-4
1501927187815133,-14,0,3,-1,-1,0,-2,-23
1501927187815133,14,1,1,1,0,0,3,-9
1501927187824106,-23,-1,-4,-4,-2,-6,-17,-30
1501927187824106,-22,-8,-3,-2,-1,0,6,3
1501927187839160,-9,2,2,-2,0,-1,4,-8
1501927187839160,6,-6,-3,-4,-1,-1,1,49
1501927187841105,-18,1,-1,0,-1,-1,-1,-8
1501927187841105,12,-9,-4,-5,-5,-4,-2,29
1501927187862145,-23,0,2,4,3,1,-1,-23
1501927187862145,31,4,-1,-6,-3,0,-4,-56
1501927187863102,-20,-2,-4,-4,-1,-1,1,31
1501927187863102,6,2,5,1,1,-1,-1,0
1501927187875160,-12,-6,-5,4,3,0,5,38
1501927187875160,7,-2,1,4,-1,-1,-6,65
1501927187884110,-4,1,-4,-5,-2,1,13,-9
1501927187884110,-6,0,-3,-1,-4,-5,-6,-29
1501927187899095,-42,-1,1,-4,0,0,2,8
1501927187899095,31,-3,-4,-4,-3,-5,-12,-1
1501927187901109,-9,2,2,1,0,1,1,0
1501927187901109,-2,5,4,5,3,2,-1,8
1501927187922173,-2,-7,-5,1,-4,-4,-2,-2
1501927187922173,-9,-3,0,2,0,-3,-1,5
1501927187923098,-12,-5,-3,-5,-3,-4,-4,-60
1501927187923098,-6,-6,-4,-2,-2,-3,-2,-3
1501927187935097,31,1,-1,-1,-3,-6,-12,-29
1501927187935097,-22,-1,3,1,0,1,5,-31
1501927187944112,-3,-4,3,4,4,-1,-3,14
1501927187944112,-1,0,2,-1,0,2,0,1
1501927187959137,8,1,1,0,-2,0,0,-2
1501927187959137,-26,-3,4,2,0,-2,-6,-12
1501927187961098,-25,8,3,4,1,5,12,11
1501927187961098,-44,-7,-3,-4,-3,-3,7,-13
1501927187981141,58,7,-4,-4,-2,-2,-1,28
1501927187981141,4,-5,-6,-3,-1,0,2,-7
1501927187989118,1,1,5,5,1,0,-3,5
1501927187989118,3,0,1,0,1,0,-1,-4
1501927187995145,-7,3,6,-2,-4,-4,-2,1
1501927187995145,9,4,-7,-2,-1,-2,0,1
1501927188004111,0,-3,0,-4,-3,1,-2,9
1501927188004111,7,-2,-9,-6,-1,-1,-4,9
1501927188018169,-5,2,1,-4,0,0,-2,-7
1501927188018169,15,6,3,0,-1,-2,-1,-1
1501927188027112,-20,-3,2,4,0,-1,0,12
1501927188027112,20,-2,-3,-1,-3,-2,-7,-7
1501927188042143,-5,-2,-4,-1,-2,2,3,-1
1501927188042143,-17,-1,-2,0,0,2,0,-5
1501927188043103,25,-5,-4,1,0,-3,-6,15
1501927188043103,-18,4,-3,0,3,1,2,8
1501927188055169,33,-2,-1,0,0,-4,2,3
1501927188055169,-4,0,-1,-1,-3,-2,-2,11
1501927188064119,3,-5,-2,0,-1,-3,-3,-6
1501927188064119,21,-1,0,1,-1,1,-2,1
1501927188081144,-24,-5,-4,0,-2,-2,-4,-9
1501927188081144,-8,0,2,2,0,-2,-2,-7
1501927188082104,-2,-2,1,-3,0,2,5,16
1501927188082104,-4,-2,-1,-3,-8,-5,-6,-38
1501927188102164,-14,-3,-4,-1,1,0,-4,-49
1501927188102164,-25,-5,-1,-3,-3,-1,1,48
1501927188103110,23,2,-2,-3,-2,-1,-8,-14
1501927188103110,-3,3,4,1,0,0,3,11
1501927188124146,-4,-2,-2,-1,-2,0,-2,8
1501927188124146,-27,-1,0,3,4,3,6,18
1501927188126110,-20,-4,-6,-10,-9,-2,-8,-12
1501927188126110,16,-4,-1,1,4,0,3,-33
1501927188139148,-15,8,4,0,-1,1,4,18
1501927188139148,21,-3,-4,-4,-5,-4,-4,-39
1501927188141111,-10,-2,-10,-4,0,-2,-2,26
1501927188141111,6,-3,-8,2,-5,-2,-2,11
1501927188162175,-6,-3,-4,-10,-2,-1,-11,-2
1501927188162175,6,-4,-5,-3,-5,-3,-3,-75
1501927188169121,-4,-2,2,4,0,-1,1,-4
1501927188169121,21,-4,-1,-1,-2,-1,0,-16
1501927188184172,-5,4,4,4,3,-1,-7,-7
1501927188184172,-21,0,0,3,1,2,0,11
1501927188186111,35,2,-2,-3,-3,-4,-4,-5
1501927188186111,20,-1,0,2,3,0,0,15
1501927188199179,-18,-2,1,1,-1,-1,3,74
1501927188199179,6,3,0,-6,-1,0,-1,-4
1501927188201114,-17,5,3,3,4,1,2,-82
1501927188201114,-21,-5,2,-1,1,-2,-1,25
1501927188222157,-17,-2,-5,-5,-3,1,4,-3
1501927188222157,1,-2,-4,-1,-3,-2,-5,-4
1501927188223114,-16,-4,-4,2,-1,0,4,12
1501927188223114,1,1,-3,-2,-1,1,-1,20
1501927188244184,10,-6,4,3,-1,1,-1,-20
1501927188244184,-1,-2,-4,-2,0,0,-1,18
1501927188246116,-44,2,-3,-1,-3,-3,4,2
1501927188246116,-26,-4,-2,-4,-2,-5,-10,-53
1501927188259160,26,0,-1,2,0,-1,0,33
1501927188259160,0,0,9,6,0,1,4,-28
1501927188261124,10,1,-9,-2,-2,-1,0,6
1501927188261124,-18,1,2,-16,-3,-1,0,26
1501927188282183,-12,-2,-8,-9,-8,-2,0,-8
1501927188282183,8,0,5,3,2,0,-3,26
1501927188283126,-13,-7,5,3,0,1,3,8
1501927188283126,7,-3,-3,1,-2,0,-1,9
1501927188304151,6,3,1,3,2,-2,-2,-32
1501927188304151,5,-1,-5,-4,0,-2,-1,4
1501927188306120,6,-1,1,0,-1,-2,0,8
1501927188306120,15,4,4,5,-1,-5,-4,16
1501927188319133,4,-9,-5,-3,-1,0,4,7
1501927188319133,-23,-3,-6,-6,-2,-1,0,14
1501927188325120,-13,-6,-2,-4,-4,-3,-3,0
1501927188325120,28,8,6,4,2,1,1,35
1501927188342196,-6,4,2,3,3,0,-2,-19
1501927188342196,-4,-2,-6,-5,-3,-1,1,0
1501927188343138,-8,-2,-2,-3,-1,1,-1,6
1501927188343138,-7,-1,-5,-2,-1,-3,-1,-4
1501927188364194,25,1,0,-2,-3,-3,2,2
1501927188364194,35,-4,6,0,-3,-4,-4,6
1501927188366130,-3,2,2,-2,2,2,2,8
1501927188366130,-12,1,-7,-3,-2,-1,0,-31
1501927188379139,-5,2,2,1,-2,-3,-4,-4
1501927188379139,-12,-4,0,-1,-3,0,-3,-15
1501927188385162,22,2,-2,-1,-1,-3,-1,3
1501927188385162,-4,-3,-2,2,1,-1,0,12
1501927188402192,-37,-4,-7,3,0,2,0,-20
1501927188402192,7,5,3,1,0,3,5,5
1501927188403135,-9,-5,2,1,2,-2,-2,14
1501927188403135,24,-1,-3,-4,-6,-3,-1,2
1501927188424170,-9,-5,-5,-4,-2,-2,-6,-9
1501927188424170,-26,-1,-2,-1,1,0,-4,-6
1501927188426125,7,0,5,1,2,1,-2,9
1501927188426125,-3,-1,-2,0,-2,-2,1,0
1501927188438169,20,-2,2,-1,-2,-3,1,14
1501927188438169,-7,3,0,1,1,0,2,47
1501927188447127,22,-3,-7,-6,-4,-3,0,-4
1501927188447127,-43,-2,2,0,1,0,-2,-19
1501927188462171,62,-1,-3,-1,0,4,2,3
1501927188462171,-32,-1,-1,2,1,1,-3,-1
1501927188463128,-9,2,0,-1,-2,0,-1,-5
1501927188463128,2,-1,3,4,-2,-2,3,10
1501927188484170,-14,-3,-6,-5,-1,-1,-3,-7
1501927188484170,25,1,-1,-1,-3,-2,-1,16
1501927188499173,9,-3,0,-1,1,0,-4,-35
1501927188499173,-10,-4,3,-1,3,0,-3,-11
1501927188500129,-41,-2,-3,-11,-3,-1,-2,4
1501927188500129,13,1,9,5,2,2,3,-7
1501927188505198,0,-1,-8,-2,-4,-5,-3,-6
1501927188505198,8,0,2,1,0,5,5,19
1501927188522171,-12,0,1,2,0,-4,-5,-23
1501927188522171,-6,-3,-7,-2,-3,-3,-6,-15
1501927188523132,1,2,0,3,2,1,4,9
1501927188523132,-1,-3,1,-1,0,-1,-1,-1
1501927188544173,7,-1,-2,-1,0,-1,2,3
1501927188544173,3,0,-2,-4,-3,-2,0,-7
1501927188546141,-6,1,3,-1,1,0,-4,-19
1501927188546141,10,2,0,4,2,-1,-2,-10
1501927188558133,-6,-2,-5,-3,-5,-3,0,-8
1501927188558133,-2,-5,-10,-8,-3,-4,-7,-29
1501927188565174,3,-1,-2,-2,-1,-2,3,29
1501927188565174,5,1,-6,-3,-1,1,3,17
1501927188582203,4,-2,2,0,0,2,5,31
1501927188582203,-2,-1,-2,-2,-2,-2,-2,-49
1501927188583135,-2,2,4,3,-1,0,-4,-18
1501927188583135,-2,0,-5,-8,-7,-4,-3,-14
1501927188604175,7,2,-1,5,-1,-3,-2,2
1501927188604175,8,-2,-5,-15,-5,-1,-1,20
1501927188606135,16,1,-3,-3,-3,-3,-4,-8
1501927188606135,-16,-2,0,-4,-1,-1,-2,-5
1501927188618176,-2,1,-1,-3,0,-3,-3,14
1501927188618176,12,1,0,6,1,0,1,14
1501927188625137,-15,-2,3,1,-3,-1,-1,-2
1501927188625137,10,-1,-8,-4,0,2,2,20
1501927188642137,1,3,4,2,1,-2,2,-9
1501927188642137,-20,-2,-5,-1,0,1,-1,-10
1501927188643149,14,-6,-5,-3,-1,-3,-4,8
1501927188643149,5,-1,-1,-1,-2,-2,-3,-1
1501927188664192,-10,0,4,7,-1,1,2,-9
1501927188664192,-53,-3,4,1,2,2,6,10
1501927188666140,50,5,2,2,-2,1,-1,-15
1501927188666140,12,0,-8,0,-2,-1,-2,7
1501927188678206,-8,-5,-7,-6,2,0,-3,-16
1501927188678206,-3,-11,-7,-7,-6,-5,-8,-10
1501927188687153,-16,-1,2,3,2,4,4,6
1501927188687153,-1,0,4,5,-1,-3,-3,-7
1501927188702214,-7,-5,-1,-1,-3,-3,-5,-10
1501927188702214,17,1,-5,0,-1,0,1,10
1501927188703171,-15,-3,1,-3,-4,-3,-2,5
1501927188703171,1,-2,1,1,0,0,1,-6
1501927188724211,18,3,1,-2,0,2,2,17
1501927188724211,3,1,1,2,-2,-3,-2,-2
1501927188726151,-6,-2,-3,-4,0,1,-2,-20
1501927188726151,-5,-2,4,0,-1,1,1,-7
1501927188738213,-3,0,-1,-3,-3,-2,-2,11
1501927188738213,7,2,7,6,2,0,1,-2
1501927188747145,-1,-1,-4,-6,-5,-3,3,14
1501927188747145,-25,-13,-8,-5,-1,-4,-5,1
1501927188769184,-5,-2,-1,0,-1,-2,1,-3
1501927188769184,23,4,-6,0,1,-1,1,10
1501927188771146,-8,-4,-3,0,0,-2,-4,11
1501927188771146,5,1,3,0,-1,3,-1,-6
1501927188784188,-3,0,2,-1,-2,-3,-2,-7
1501927188784188,2,0,0,0,0,-2,1,-1
1501927188786147,-9,-1,-3,-3,-2,-3,0,-3
1501927188786147,5,3,3,3,1,0,0,6
1501927188798207,-5,2,-10,-3,-2,-2,1,4
1501927188798207,3,0,-1,-2,-3,-1,-4,-3
1501927188807148,-6,-1,1,2,4,1,1,-4
1501927188807148,-4,0,2,0,-2,-2,-2,-5
1501927188822158,-3,-2,3,1,-2,-2,0,2
1501927188822158,2,-4,-2,1,-1,-1,-1,17
1501927188823187,-6,1,-5,-4,0,3,0,-3
1501927188823187,12,4,-3,-2,-3,-3,-4,-2
1501927188845164,-35,-3,-4,-5,-4,-2,2,0
1501927188845164,10,-1,1,-4,-2,-2,0,0
1501927188846161,-44,-4,0,0,-3,-1,-3,-9
1501927188846161,50,0,3,2,-1,0,-2,-2
1501927188858224,4,0,8,7,3,2,0,6
1501927188858224,-21,-4,-4,-4,-4,2,8,-6
1501927188867152,-4,0,-2,2,3,0,-3,0
1501927188867152,-11,1,-1,0,-2,0,-1,-5
1501927188882157,10,-1,-1,0,2,2,-5,-11
1501927188882157,7,-1,2,-4,-2,-2,-1,8
1501927188883172,12,-4,-1,0,-2,-1,3,8
1501927188883172,-21,-2,-4,-2,0,-1,-1,-9
1501927188904191,3,-2,-4,-3,-1,-4,-2,1
1501927188904191,4,-4,8,12,6,1,-4,-20
1501927188906152,0,-1,-10,-10,-6,2,7,40
1501927188906152,-9,8,-2,-3,1,-1,-3,-53
1501927188918215,25,0,0,-1,-3,-2,-2,-5
1501927188918215,5,-5,-4,-1,-3,-3,-5,-17
1501927188927180,1,-3,0,2,-2,-3,-4,8
1501927188927180,-7,-5,-2,1,-1,0,0,11
1501927188942187,-3,-3,-3,-1,0,4,3,-2
1501927188942187,36,3,-3,-2,-3,-5,-3,2
1501927188943156,10,-2,-3,0,-3,-2,-6,-9
1501927188943156,-13,-2,1,-2,-2,0,0,1
1501927188964188,5,-2,0,2,-2,-1,-2,-12
1501927188964188,-12,1,-2,1,1,-1,-1,16
1501927188966157,3,0,2,-1,-1,-1,-1,-27
1501927188966157,29,-8,-3,-2,-2,-2,3,7
1501927188978199,-44,2,-2,-6,-3,0,2,9
1501927188978199,-6,-1,-5,-3,0,-2,-4,-15
1501927188987159,21,2,2,2,2,2,0,-4
1501927188987159,-16,-3,-6,-5,-2,0,-3,-14
1501927189002232,16,-1,1,-1,-2,0,-2,10
1501927189002232,-13,-3,-4,-1,-1,2,3,-1
1501927189003196,-7,8,1,-1,0,-1,0,-3
1501927189003196,8,-2,1,4,1,-3,-1,5
1501927189024200,20,-3,-2,0,1,1,3,21
1501927189024200,-12,5,3,-1,-2,-1,-5,-14
1501927189026161,0,-1,-4,-4,-2,-5,-6,3
1501927189026161,-17,-3,3,2,2,-1,0,10
1501927189047198,32,-8,-11,-6,-5,-5,-3,-5
1501927189047198,-8,1,3,-1,-1,1,2,6
1501927189048161,-6,0,-3,2,2,0,-1,-8
1501927189048161,2,-1,-4,-2,-1,0,4,3
1501927189062238,-12,2,-1,-2,0,-4,-2,-8
1501927189062238,-10,-4,-6,-3,-3,-2,1,1
1501927189077165,11,-5,0,1,-1,-6,-5,-5
1501927189077165,-7,-6,-5,-7,-5,-3,0,10
1501927189084177,-11,-3,-3,0,1,0,-4,-17
1501927189084177,0,2,1,1,-1,0,-1,2
1501927189086164,-9,-4,-4,-5,0,-1,1,4
1501927189086164,-3,2,2,2,1,0,1,1
1501927189107173,-1,0,4,0,-2,-2,0,14
1501927189107173,0,0,0,-2,0,0,-4,-4
1501927189108166,2,-1,0,2,1,2,1,2
1501927189108166,-4,1,1,-3,1,0,-2,-10
1501927189122233,-3,1,3,2,1,0,-1,1
1501927189122233,-6,-5,-11,-6,-6,-4,1,-7
1501927189123203,-7,-6,1,2,2,1,-3,-14
1501927189123203,3,3,-4,-4,-3,-1,-1,12
1501927189144231,-8,1,10,6,2,0,0,-14
1501927189144231,2,-3,-8,-8,-3,-3,-2,7
1501927189146166,-3,-2,2,2,0,-1,2,4
1501927189146166,-23,1,1,-1,0,1,-1,-23
1501927189167205,-9,-3,-2,0,-1,-3,-10,-10
1501927189167205,1,-2,0,1,-2,-1,0,2
1501927189168169,7,2,1,-2,-6,0,2,1
1501927189168169,8,0,-5,2,1,1,-8,17
1501927189182232,1,2,2,3,-1,1,16,-8
1501927189182232,-3,0,-1,-3,-3,-2,-7,24
1501927189183181,-3,-1,-5,1,-4,-4,-1,24
1501927189183181,-17,-6,4,1,-1,0,6,-34
1501927189204215,5,4,-6,-2,1,1,-8,10
1501927189204215,6,0,4,1,4,3,1,0
1501927189206180,-11,3,3,0,-1,1,-3,2
1501927189206180,15,-1,-1,-1,0,-3,10,14
1501927189227232,-16,-7,-7,-5,-5,-4,-7,-10
1501927189227232,7,1,3,5,1,0,4,-6
1501927189228182,1,2,2,5,4,2,-3,7
1501927189228182,-7,-4,-8,-8,-6,0,-1,-17
1501927189241210,19,-5,-4,-6,-3,-3,-2,4
1501927189241210,0,0,-1,3,1,1,-2,-2
1501927189248214,0,-3,-3,-2,-2,-2,-1,-7
1501927189248214,-20,-5,3,-1,-4,-2,-4,11
1501927189264219,-2,1,-5,-3,-5,-1,0,8
1501927189264219,-9,-2,4,1,2,0,-5,-17
1501927189266184,-4,0,-6,8,0,-1,9,-8
1501927189266184,14,-1,-7,-4,-2,-4,-5,7
1501927189287214,-7,0,-1,-4,0,0,2,-8
1501927189287214,1,-3,4,-7,-3,-3,-6,-1
1501927189288176,-3,-1,-3,-8,-3,0,13,10
1501927189288176,23,0,-2,1,0,-1,-9,-20
1501927189301214,44,3,7,3,1,-1,7,8
1501927189301214,-11,0,-1,1,1,-3,-3,-37
1501927189308252,15,0,4,-2,-2,-1,-5,4
1501927189308252,-5,1,2,3,-1,1,2,3
1501927189332207,-6,-1,-2,-3,0,0,-2,-7
1501927189332207,-33,-4,0,-2,-3,-3,3,3
1501927189333187,0,-4,-6,-2,1,-2,-13,-15
1501927189333187,-3,0,-1,-1,0,-1,-1,2
1501927189347192,-12,-1,0,0,-1,-1,-4,-9
1501927189347192,15,2,-2,-1,-1,-1,4,17
1501927189348180,-13,-1,-3,-4,0,0,-6,-17
1501927189348180,18,5,0,1,-2,-1,2,21
1501927189361221,-2,-10,-11,-5,-3,-1,-7,-21
1501927189361221,4,1,-4,-3,1,3,1,-16
1501927189375220,8,2,4,-8,-5,-3,0,-7
1501927189375220,-7,-4,0,-1,-2,-3,-1,3
1501927189384247,-5,2,6,3,1,-1,0,8
1501927189384247,34,-1,-4,-1,-2,-4,-5,16
1501927189386183,-18,-4,0,-1,-2,1,-2,-12
1501927189386183,5,1,1,2,1,-2,0,0
1501927189407192,-26,-4,-7,-5,-1,-1,2,8
1501927189407192,-8,-2,0,0,-1,-1,-5,-14
1501927189408192,14,1,4,2,1,-2,-6,16
1501927189408192,-2,0,-2,-4,-1,1,8,-5
1501927189421233,7,-3,-4,-1,-2,0,2,-2
1501927189421233,-4,-3,-3,2,-1,3,5,13
1501927189428223,1,1,-3,-4,-2,0,-5,-14
1501927189428223,-7,-1,1,-1,-1,0,3,-4
1501927189444258,-8,-1,1,0,1,0,-13,5
1501927189444258,-2,0,-2,-5,-4,1,26,-7
1501927189446184,-10,-3,-4,-2,0,-3,-1,18
1501927189446184,6,-1,3,0,2,2,-8,-9
1501927189467206,-6,0,-2,-3,-3,-1,7,-18
1501927189467206,-1,1,1,0,-2,-6,-22,-1
1501927189468187,2,-5,-5,1,2,0,9,-4
1501927189468187,-22,0,-2,-1,-2,3,7,-11
1501927189481250,27,0,-1,0,-3,-5,-18,2
1501927189481250,0,-2,0,2,0,-1,12,8
1501927189488230,0,-1,-2,-5,-1,2,-1,6
1501927189488230,-10,-3,-4,1,1,-3,-8,-13
1501927189504199,-7,3,1,0,1,1,3,-3
1501927189504199,0,1,-1,1,0,-1,10,13
1501927189506188,18,3,1,-3,-3,0,9,-10
1501927189506188,25,0,4,3,-2,-2,1,52
1501927189527205,-10,-2,-1,-3,-2,0,1,5
1501927189527205,4,-4,-1,-2,0,4,6,-3
1501927189528225,-1,7,3,-1,0,1,8,3
1501927189528225,-4,-1,0,-1,-2,-3,-7,-17
1501927189540234,-4,-1,-2,-1,-1,-3,1,14
1501927189540234,-2,2,2,0,-1,1,-3,8
1501927189555256,-18,-8,-3,0,-3,-2,-8,-9
1501927189555256,15,3,1,2,2,-1,0,7
1501927189564254,-21,-4,-8,-3,-2,0,-8,9
1501927189564254,20,-2,-7,-2,-4,-6,-5,-22
1501927189566192,-22,-1,1,-2,-3,-2,-6,-5
1501927189566192,2,1,4,0,1,-2,0,11
1501927189587203,0,1,1,-1,1,0,-1,-2
1501927189587203,-11,0,-2,2,1,0,-5,2
1501927189588201,4,-1,-3,-2,-2,-3,-1,-2
1501927189588201,-21,-4,-2,-1,1,-1,-2,-4
1501927189600241,-2,-3,-3,1,-1,1,11,-11
1501927189600241,-11,-3,-1,3,2,1,-8,-4
1501927189609234,1,-4,-1,-4,-3,-3,-6,-5
1501927189609234,-3,1,0,-1,2,1,-4,7
1501927189624241,-11,-3,-8,-4,-3,-2,-3,-24
1501927189624241,17,-1,-3,-2,-1,2,7,13
1501927189626195,4,-4,-9,0,1,-4,-3,10
1501927189626195,-2,-2,-4,-4,-3,-4,-12,-11
1501927189654236,-4,3,3,-1,0,2,18,5
1501927189654236,23,-2,1,0,-3,-3,-6,10
1501927189656197,-8,0,5,5,5,5,0,2
1501927189656197,4,1,2,-3,-3,-1,3,-4
1501927189660263,4,3,3,4,3,2,8,-8
1501927189660263,-14,-1,-1,-2,-1,-3,-8,-3
1501927189669230,0,-1,0,-3,-1,1,6,-2
1501927189669230,-13,-7,-7,-4,-3,-2,-1,-6
1501927189684240,5,2,7,4,3,0,-5,13
1501927189684240,-2,-2,-7,-7,-4,-2,-6,-10
1501927189686208,-24,-4,-3,-4,-3,-5,-6,11
1501927189686208,-9,5,0,2,1,1,2,9
1501927189707216,15,-2,0,0,-4,-1,-8,-11
1501927189707216,-4,0,3,5,1,-4,-4,8
1501927189708202,6,-3,-2,0,-1,-2,0,-13
1501927189708202,9,0,-2,-4,-2,0,12,-2
1501927189720236,-20,-2,-1,-1,1,0,-3,5
1501927189720236,-2,5,-3,-4,0,0,-1,0
1501927189729234,-2,0,2,4,-1,-2,-1,-9
1501927189729234,-8,-4,-4,-2,-1,1,-10,-38
1501927189744264,-16,1,0,-3,-3,-3,4,-12
1501927189744264,-8,-6,0,2,1,-1,0,-5
1501927189746203,1,4,0,-1,0,-1,-5,1
1501927189746203,2,-2,-2,-3,-4,-2,-1,1
1501927189767248,-6,-4,-1,-3,-4,-2,-11,-13
1501927189767248,8,0,-1,-3,0,2,1,13
1501927189768218,8,-1,0,-3,-1,-1,-4,-6
1501927189768218,-4,-5,-1,0,-1,-3,-4,-1
1501927189780266,6,-2,-2,4,1,0,-2,12
1501927189780266,11,0,-5,-5,-2,-2,-8,-22
1501927189789239,-20,1,1,-2,-2,0,5,3
1501927189789239,-3,-1,-4,-1,-3,-4,-4,-1
1501927189804219,28,2,3,3,1,0,-2,13
1501927189804219,-10,-5,0,-1,0,-3,-13,8
1501927189806205,8,-2,-4,-1,0,1,3,-7
1501927189806205,36,-6,1,2,0,0,-4,11
1501927189827217,23,3,-7,-4,-2,-4,6,10
1501927189827217,-13,3,4,2,-2,2,1,13
1501927189828215,20,-1,-2,0,-1,-2,-4,-18
1501927189828215,-27,-2,2,-3,-2,-2,2,11
1501927189840272,4,0,-3,-3,-1,1,-10,-5
1501927189840272,13,-8,-6,-6,-2,-3,1,0
1501927189849241,-37,1,-2,0,-3,-1,-6,-2
1501927189849241,4,2,-1,-2,1,2,-3,-19
1501927189864249,-13,-2,4,5,-1,-1,4,-6
1501927189864249,-29,0,-6,-5,-3,-1,2,-15
1501927189866210,24,0,-2,-1,1,1,1,-17
1501927189866210,-5,-1,0,-1,-1,-2,-6,-12
1501927189887226,-3,-2,-4,-4,-2,-2,9,1
1501927189887226,-8,1,3,3,0,0,0,-18
1501927189888213,10,-1,-1,-1,1,-1,-9,19
1501927189888213,5,-2,-2,-1,-2,1,4,15
1501927189909280,-6,-2,-4,-1,1,0,-2,-7
1501927189909280,-21,-4,2,-1,-1,0,6,1
1501927189911219,9,1,-2,-3,-1,-3,-6,2
1501927189911219,-13,-6,-12,-7,-3,-3,2,-8
1501927189932226,35,3,8,3,2,0,-5,5
1501927189932226,22,4,-1,2,0,0,-1,3
1501927189933214,5,0,5,2,-2,-1,5,8
1501927189933214,0,-1,-1,3,3,0,-2,2
1501927189947224,-15,-5,0,-3,-1,-2,-9,-31
1501927189947224,8,-4,-7,-6,-3,-1,3,10
1501927189948223,0,-4,-3,-1,0,-1,-5,-4
1501927189948223,10,0,0,-1,-1,-2,1,11
1501927189969253,-21,-6,-4,-5,-5,-4,-6,-14
1501927189969253,-5,3,-1,-2,-1,1,-4,-6
1501927189971215,-6,-3,-1,0,0,2,14,21
1501927189971215,-8,0,0,-2,-3,-1,-1,-4
1501927189984283,13,-5,-4,-1,-2,-2,-3,14
1501927189984283,-1,3,2,-1,-2,-4,0,-13
1501927189986215,20,-1,1,-2,-1,-2,-1,4
1501927189986215,0,-1,-2,1,0,1,1,5
1501927190007228,-6,1,-1,3,-1,-1,0,7
1501927190007228,-1,-1,1,4,1,-1,-1,0
1501927190008235,11,1,3,2,1,2,-1,6
1501927190008235,-8,3,3,-5,-3,0,1,-4
1501927190029257,-5,-3,-9,-6,-1,0,-9,1
1501927190029257,-3,-3,-1,-2,-2,-3,-1,8
1501927190031219,1,-2,-4,-3,-2,-1,-2,-16
1501927190031219,-23,2,3,4,2,-1,-1,-10
1501927190044286,32,1,-7,-6,-3,0,-2,-14
1501927190044286,-9,-6,-9,-9,-3,-4,-5,-3
1501927190046229,3,1,2,-1,0,1,0,-4
1501927190046229,7,-2,-2,-4,-3,2,0,10
1501927190067231,-28,-5,0,-2,0,1,0,4
1501927190067231,4,3,2,3,1,-3,-1,0
1501927190068249,-3,-3,-4,-3,-3,-2,-1,1
1501927190068249,6,-5,-7,-3,-3,0,4,-2
1501927190089290,-17,3,0,2,-1,0,2,5
1501927190089290,9,-3,1,2,2,3,4,1
1501927190091223,0,-2,-3,-3,-2,1,-3,9
1501927190091223,-28,4,3,1,-1,-2,-7,-30
1501927190105253,5,3,2,2,0,1,3,6
1501927190105253,-10,-3,-5,-3,-1,-3,-2,-3
1501927190110285,-13,-7,-9,-1,-3,-1,-2,-9
1501927190110285,7,0,1,1,2,2,0,8
1501927190127234,5,1,2,1,0,-3,-3,-1
1501927190127234,-11,-2,0,-2,-2,-6,-4,-6
1501927190128232,-7,0,3,2,1,0,2,2
1501927190128232,19,-5,0,1,-1,-1,-2,-2
1501927190165270,-9,-1,-2,-1,-3,0,4,2
1501927190165270,5,-2,-2,-5,-4,0,-2,3
1501927190167226,-5,-2,-3,-6,-5,-5,-7,-17
1501927190167226,2,-3,0,-1,-2,-4,-1,18
1501927190168227,-16,-2,0,-1,1,-1,-2,0
1501927190168227,30,5,0,1,1,0,0,4
1501927190172226,-41,-4,-4,-3,-1,-3,1,-8
1501927190172226,43,3,5,3,2,2,2,-10
1501927190187239,12,-4,-2,-2,-2,-3,0,-5
1501927190187239,-6,1,4,2,1,2,3,2
1501927190188228,15,1,-1,-1,-2,-3,-6,1
1501927190188228,-10,-3,-2,-3,-1,-3,-4,0
1501927190209228,-9,-5,3,6,1,3,6,8
1501927190209228,-4,-1,-1,-1,-2,0,-1,-4
1501927190211230,-3,-2,2,-1,0,-1,-4,0
1501927190211230,24,7,-2,-1,-3,0,18,1
1501927190223296,-23,-7,-7,-2,1,-2,-4,7
1501927190223296,5,-1,-1,2,0,2,1,-3
1501927190230294,1,0,0,0,-2,0,1,2
1501927190230294,-6,-3,-4,-7,-4,-4,-7,-4
1501927190247242,0,2,-1,2,2,2,1,-3
1501927190247242,-20,-2,-5,2,-1,0,4,-8
1501927190248240,3,-6,-9,-6,-6,-9,-7,4
1501927190248240,-33,4,4,2,2,2,-3,-26
1501927190269275,-2,1,-5,-6,-3,-4,2,0
1501927190269275,-7,-4,0,-2,-1,-3,-2,-3
1501927190271233,-1,0,2,4,3,6,8,3
1501927190271233,-6,-1,0,-3,-4,-2,-4,11
1501927190283297,-3,-2,2,0,0,-1,-4,-4
1501927190283297,-4,-3,-3,-1,-2,-2,-8,-15
1501927190290304,3,-1,-1,-5,-3,0,1,18
1501927190290304,0,-6,-4,1,-2,-3,-4,-3
1501927190307250,-2,2,1,-1,-2,-2,-2,-5
1501927190307250,19,0,2,2,2,3,3,16
1501927190308244,-7,1,3,-1,1,-2,-3,-4
1501927190308244,10,0,-1,1,2,4,-4,19
1501927190329275,-2,-2,-2,-3,-4,-4,-3,-6
1501927190329275,-8,0,4,2,1,-1,-2,0
1501927190331245,0,2,-2,1,-2,5,6,-2
1501927190331245,-45,3,1,0,-1,-3,0,-6
1501927190343278,10,-1,-4,-2,-2,1,-1,1
1501927190343278,-5,1,2,0,1,1,1,3
1501927190350302,6,1,5,0,1,-1,-1,-2
1501927190350302,1,-3,-2,-1,-3,-2,-4,-3
1501927190367248,-4,0,6,1,-2,-1,-3,1
1501927190367248,-7,2,1,7,-1,-3,-1,-9
1501927190368248,0,-3,-4,-5,-1,-3,-3,-4
1501927190368248,4,-4,-7,-6,0,-3,0,5
1501927190389283,4,0,1,1,1,-1,-3,-6
1501927190389283,3,-6,-5,-8,-7,-1,1,0
1501927190391275,1,-1,-6,-6,-2,-1,-1,-5
1501927190391275,8,-1,4,1,-2,-1,1,4
1501927190403282,1,1,2,-4,-1,-1,0,3
1501927190403282,-9,-5,-5,0,-4,-2,2,2
1501927190410286,1,1,1,-1,-1,0,-4,-7
1501927190410286,1,-2,-4,-1,0,0,-3,-26
1501927190433245,-3,0,-4,-2,-4,-2,-2,-3
1501927190433245,-4,-1,2,-1,0,-1,-1,7
1501927190442251,38,-1,3,3,1,-2,-3,-2
1501927190442251,-36,-5,-7,-10,-4,-4,-3,11
1501927190449284,-1,1,3,6,1,1,1,2
1501927190449284,1,-1,-4,-5,-1,-2,1,4
1501927190451242,-5,-2,-3,-2,0,0,-1,-4
1501927190451242,6,-5,3,4,-1,-2,-1,-13
1501927190464286,10,-3,-4,-3,0,0,1,7
1501927190464286,2,6,0,-1,2,3,3,-1
1501927190470244,-8,0,1,4,-2,-3,-1,-4
1501927190470244,5,-2,-2,-3,-4,-1,-1,0
1501927190487255,-8,-2,1,0,0,-1,1,10
1501927190487255,3,-1,-3,-1,0,-1,-3,-4
1501927190488244,-8,-1,1,1,2,0,3,1
1501927190488244,8,2,1,2,2,0,0,-2
1501927190509310,4,0,-2,-4,0,2,1,5
1501927190509310,11,-4,-2,2,-2,-4,-4,10
1501927190511279,-1,3,-4,-4,-3,-2,-2,-6
1501927190511279,14,-1,0,0,-1,1,0,7
1501927190523245,1,-1,-5,-4,-1,-4,-4,-7
1501927190523245,0,-2,-2,2,3,2,4,-3
1501927190532247,-5,-2,-1,0,-2,-2,-3,1
1501927190532247,-8,0,-1,0,-2,-1,0,-8
1501927190547262,7,-4,-3,-2,-2,-4,-7,-11
1501927190547262,-8,0,1,-3,-3,-2,-4,-7
1501927190548250,-3,-2,1,0,-1,2,3,0
1501927190548250,2,2,-1,-1,-1,0,1,5
1501927190569288,-16,-1,0,2,-2,-2,-1,-1
1501927190569288,-13,-2,-6,-3,-3,-1,-1,-4
1501927190571260,2,0,0,2,0,-1,0,0
1501927190571260,-2,-4,-5,-1,1,-3,1,8
1501927190583289,59,-3,-1,-3,-4,-5,1,-14
1501927190583289,-22,7,-4,-7,-3,-3,-14,-36
1501927190592252,-6,1,2,4,1,2,1,4
1501927190592252,7,0,1,-1,-1,0,0,2
1501927190607288,1,-1,3,4,-2,0,2,7
1501927190607288,4,-6,-2,2,1,-1,-1,1
1501927190608262,-6,-4,0,-5,0,1,-1,-5
1501927190608262,1,3,-4,-4,-1,0,2,0
1501927190629320,-23,-3,0,-1,2,0,-1,-5
1501927190629320,0,1,5,0,0,-2,-2,-1
1501927190631270,-10,-3,-4,-2,-4,-2,-3,1
1501927190631270,9,-5,-2,3,0,-1,0,2
1501927190643293,-57,-1,-3,-5,0,1,4,18
1501927190643293,44,-3,-3,1,1,-2,-1,-13
1501927190652254,3,3,2,1,2,-1,0,-2
1501927190652254,-2,-4,-2,-2,1,-2,-5,3
1501927190667286,-19,0,-3,0,0,0,0,-8
1501927190667286,-7,0,2,-2,-2,-1,-1,12
1501927190668263,-21,1,-1,-2,-1,-1,-2,-4
1501927190668263,2,-4,-4,-1,-1,-1,-1,-1
1501927190690275,1,-4,0,1,2,3,-1,4
1501927190690275,-8,0,-2,-6,-4,-1,2,-2
1501927190695295,-23,-6,-3,-2,-2,-2,-1,6
1501927190695295,30,3,4,1,-4,-3,-2,-1
1501927190703301,6,0,-1,-5,-2,-2,0,-3
1501927190703301,-2,-3,0,0,0,3,5,7
1501927190719268,10,1,-1,2,0,-1,-2,15
1501927190719268,-15,0,-5,-3,-2,1,-3,-41
1501927190727269,9,0,-2,-2,-1,-1,0,4
1501927190727269,-2,1,3,14,4,1,-1,-4
1501927190728268,6,-1,-3,6,-2,-3,0,8
1501927190728268,-8,-4,-6,-54,-9,-3,0,8
1501927190749319,7,1,-3,-8,-1,-1,-3,-6
1501927190749319,-2,-1,-2,-1,0,2,4,-1
1501927190751260,-33,0,1,2,2,-1,1,-11
1501927190751260,1,1,4,20,4,2,3,18
1501927190763306,2,-1,-6,-1,-4,-3,-5,-19
1501927190763306,-4,-1,1,-9,-2,-3,-1,8
1501927190772261,12,-4,-3,3,0,-1,-1,-8
1501927190772261,-1,-1,-1,7,-2,-1,2,4
1501927190786269,-9,-2,0,-1,-1,-3,-3,9
1501927190786269,1,5,0,6,-2,0,-4,6
1501927190788276,17,-4,-4,-7,-2,1,-2,-3
1501927190788276,-8,-2,-1,5,3,-1,-1,-5
1501927190809263,4,1,1,11,1,2,0,-22
1501927190809263,-10,-5,-6,-35,-8,-6,-7,-2
1501927190811266,15,-1,0,-10,-4,-4,-3,-4
1501927190811266,-3,1,-1,-1,-1,-1,-1,3
1501927190823336,1,0,-2,12,2,-2,1,-3
1501927190823336,-20,-6,1,2,2,1,2,3
1501927190832274,-26,-1,-8,-12,-6,-4,-5,13
1501927190832274,14,-7,-2,9,0,1,-1,-12
1501927190846304,12,-1,-6,-6,1,1,-1,8
1501927190846304,-13,-4,-3,2,-1,-2,-1,-12
1501927190848265,1,-4,-5,-3,-1,0,-1,-13
1501927190848265,-9,1,-1,4,-3,-3,-2,1
1501927190869340,-5,-2,2,-3,0,1,1,3
1501927190869340,15,4,1,1,-1,-3,0,-3
1501927190871269,6,0,1,5,2,2,1,-1
1501927190871269,2,2,2,2,-1,2,3,3
1501927190883307,-8,-2,-1,-6,-4,-3,-2,10
1501927190883307,3,-2,-2,2,0,-1,0,5
1501927190892270,6,0,-1,1,-1,-1,1,3
1501927190892270,-10,0,-3,0,0,-2,-5,-6
1501927190906275,-1,-3,-3,-3,1,0,0,14
1501927190906275,14,-1,1,4,-3,-1,0,6
1501927190908268,-14,3,6,3,1,0,1,-7
1501927190908268,-1,0,1,-4,-3,-2,-3,1
1501927190929310,4,-6,-10,-5,-5,-5,-4,-2
1501927190929310,-1,-2,-1,2,2,-3,-1,3
1501927190931271,19,-2,-1,-1,1,0,2,11
1501927190931271,-5,3,3,1,-1,-4,-4,-8
1501927190952291,-2,1,-2,-5,-2,-1,2,1
1501927190952291,0,0,3,1,0,3,-6,-17
1501927190953280,6,-3,-7,-3,0,-1,2,11
1501927190953280,-7,-1,-2,1,0,-4,-5,-25
1501927190967313,3,2,-1,-4,-5,-2,-2,-2
1501927190967313,-4,0,0,0,-1,1,2,4
1501927190969273,-1,-2,1,0,-1,0,-2,-6
1501927190969273,6,-2,-4,-2,-1,-1,1,13
1501927190989305,2,0,-1,0,-2,-4,-2,-6
1501927190989305,-14,-6,-3,-6,-3,-5,-3,-1
1501927190997276,-9,0,3,2,3,1,3,-9
1501927190997276,9,-3,-1,0,-1,0,0,8
1501927191012314,-1,3,4,2,2,3,3,-5
1501927191012314,24,-3,-6,1,0,-1,-2,21
1501927191014275,-11,-3,-7,-8,-5,-7,-5,-8
1501927191014275,3,3,0,3,3,3,4,5
1501927191034347,-28,-5,0,0,-3,-1,-4,-3
1501927191034347,7,0,-5,0,0,0,4,0
1501927191036277,4,0,-8,-7,-5,-2,-1,-6
1501927191036277,-5,0,1,1,1,1,-3,10
1501927191049278,3,0,0,2,-1,-3,-3,-23
1501927191049278,-9,2,4,0,0,-2,0,-6
1501927191051277,3,-2,1,2,-1,-1,-2,0
1501927191051277,-7,-2,-2,-3,-2,1,1,3
1501927191071319,3,-2,-3,0,1,0,-1,4
1501927191071319,-3,0,0,2,1,-2,-2,-3
1501927191073279,4,1,-2,1,-1,-1,1,-6
1501927191073279,-3,-5,-6,-5,0,-1,0,16
1501927191087279,2,-1,-3,1,1,-1,-1,2
1501927191087279,-10,0,-2,0,-1,-1,1,-9
1501927191088280,2,-5,-4,-3,0,-1,-6,5
1501927191088280,-1,0,1,-3,-2,-2,-3,0
1501927191109301,-7,-3,1,-1,0,2,2,3
1501927191109301,11,-4,0,-1,-5,-2,0,-1
1501927191111295,-42,3,-1,0,-4,-3,-2,-6
1501927191111295,-1,1,0,2,0,-2,-1,-8
1501927191132296,2,1,-2,-2,0,-1,1,-2
1501927191132296,3,1,-3,-3,-3,0,-3,0
1501927191133291,12,-1,4,1,0,0,2,1
1501927191133291,-2,-4,-2,1,-3,-2,1,18
1501927191146347,0,2,-4,-8,-4,-3,-4,5
1501927191146347,-13,-4,-3,-4,-2,-1,-2,1
1501927191153293,15,6,5,2,2,-1,-1,-1
1501927191153293,16,0,-3,-3,-3,0,5,-8
1501927191169321,-5,-4,3,4,5,3,-2,3
1501927191169321,-7,-3,-2,-3,-1,-1,-2,2
1501927191171289,-4,-4,1,-2,-2,-2,1,2
1501927191171289,30,2,2,1,-2,1,-6,-4
1501927191192308,-30,4,2,0,-1,-3,-1,-3
1501927191192308,-1,2,-2,-2,2,1,1,-12
1501927191193286,-9,-5,-3,0,-2,-3,-7,-7
1501927191193286,8,-2,2,-1,-3,-5,-11,-1
1501927191206357,16,0,3,-1,-2,0,12,-11
1501927191206357,-5,2,2,-2,0,-2,-2,0
1501927191213319,5,-1,-5,-5,-2,-2,4,0
1501927191213319,-18,0,3,4,5,1,-7,-4
1501927191229332,6,-4,-3,0,-2,-3,-7,-1
1501927191229332,2,-3,-5,-3,-3,-1,0,6
1501927191231321,3,-2,0,1,-1,1,-2,1
1501927191231321,-10,-1,1,-3,0,1,0,-8
1501927191252309,-1,2,-1,1,-1,-1,-3,5
1501927191252309,-3,-3,-1,0,2,2,6,-3
1501927191253290,1,-1,-2,3,1,-2,-4,-1
1501927191253290,-9,-1,-2,0,1,-2,2,-1
1501927191266357,17,-2,-3,-3,-4,-4,-2,15
1501927191266357,-3,1,-2,-2,-1,-5,-22,-4
1501927191273322,10,1,4,1,0,1,11,17
1501927191273322,3,1,-3,-2,-1,-3,1,-4
1501927191297333,12,-3,0,2,3,0,2,4
1501927191297333,-40,3,1,-1,-2,-1,-3,-14
1501927191299294,0,-2,-3,-4,-1,-1,1,-2
1501927191299294,-6,-3,-3,0,-3,-4,0,-6
1501927191319337,-3,-3,-6,-5,-4,-2,-3,-4
1501927191319337,6,0,0,2,2,-1,-4,3
1501927191321292,4,0,3,3,1,1,20,-5
1501927191321292,-19,-4,-1,-4,-4,-2,-3,11
1501927191326350,4,2,-1,-4,-2,-2,1,-4
1501927191326350,12,-1,-6,-5,-3,1,8,23
1501927191333334,-18,-2,0,-1,0,3,-6,-13
1501927191333334,6,2,1,-1,-1,-3,-4,2
1501927191349364,-7,-1,2,6,4,2,1,-4
1501927191349364,13,-2,5,1,-1,1,7,4
1501927191351293,2,-4,-5,-3,-4,-6,-22,2
1501927191351293,-2,-3,-4,-3,-1,0,0,-3
1501927191371340,4,0,0,1,0,0,-5,2
1501927191371340,0,-2,-5,-5,0,-3,1,-14
1501927191373296,3,-1,-2,0,-2,0,-7,-1
1501927191373296,1,0,-1,3,2,-2,-1,-11
1501927191386363,-2,2,2,-2,-3,-3,-11,-6
1501927191386363,1,0,3,3,-2,-1,10,3
1501927191393344,4,0,-4,-2,-1,-2,-4,-12
1501927191393344,-8,-4,-5,-4,0,1,-3,-3
1501927191409309,-4,0,0,-2,0,0,5,0
1501927191409309,-8,-3,-2,-2,-6,-6,-12,-16
1501927191411300,3,-2,0,3,1,5,11,-2
1501927191411300,-1,1,5,4,4,6,5,-13
1501927191432321,-1,0,0,-1,-3,4,19,5
1501927191432321,0,0,0,4,2,3,0,-1
1501927191433309,0,1,0,-1,-2,-6,-6,0
1501927191433309,0,-2,-5,-5,-3,-5,-6,1
1501927191445358,-1,0,-6,-8,-4,-4,-3,-3
1501927191445358,0,-1,-2,-2,-1,-2,-4,1
1501927191454300,-1,0,0,1,0,-1,-1,1
1501927191454300,-1,0,-2,0,0,2,3,0
1501927191469359,-4,-1,0,0,-2,-1,-4,-3
1501927191469359,-2,-1,0,2,3,0,2,1
1501927191471301,0,-3,-1,-2,6,1,-5,0
1501927191471301,0,0,-3,-4,-6,-4,0,1
