timestamp,emg1,emg2,emg3,emg4,emg5,emg6,emg7,emg8
1501933659710625,23,0,30,14,-2,17,78,85
1501933659710625,5,16,-7,-13,-5,-10,-31,-11
1501933659715634,0,-24,-24,-1,0,7,60,21
1501933659715634,-107,9,17,7,2,-5,-20,-32
1501933659717643,-21,-2,-3,-5,0,6,15,-22
1501933659717643,-64,-4,16,15,5,5,-26,32
1501933659718629,-16,9,8,24,4,-2,-7,-34
1501933659718629,45,-5,-22,-19,-5,-5,-46,73
1501933659721646,-16,-2,-12,10,0,-5,-20,-45
1501933659721646,-51,-22,-7,0,-8,-7,-11,-5
1501933659729643,-73,6,20,-24,2,-2,-60,45
1501933659729643,-102,-25,-1,1,1,4,54,-50
1501933659745626,44,5,20,-10,-5,-4,7,39
1501933659745626,50,-9,-29,0,0,-5,-34,-43
1501933659750648,-11,-5,2,3,-2,-12,-85,-65
1501933659750648,-53,-1,2,2,-2,7,93,54
1501933659759627,32,19,-27,-10,-2,6,24,-74
1501933659759627,-54,10,39,3,2,2,75,-6
1501933659782651,15,-7,-26,-2,-2,3,-18,15
1501933659782651,-10,3,-10,-3,2,3,-6,-25
1501933659783635,-30,-25,-30,-4,-3,-12,-30,-53
1501933659783635,-59,13,56,-6,-3,6,9,1
1501933659829631,6,-4,-9,-11,-8,-6,0,11
1501933659829631,4,-9,-8,2,1,-7,-28,4
1501933659830623,46,-9,16,2,0,4,36,33
1501933659830623,76,24,26,15,1,-4,-25,62
1501933659830623,5,-26,-40,-7,0,5,-8,-80
1501933659830623,0,-7,-22,-7,-8,-10,-11,11
1501933659833681,-21,-7,-11,-1,-1,-8,-39,-20
1501933659833681,5,1,-2,-3,-1,-1,-13,-27
1501933659841651,6,4,31,6,3,2,-9,6
1501933659841651,14,5,30,-1,0,-6,-24,-62
1501933659848652,-1,0,-23,-3,1,4,24,-23
1501933659848652,-23,-6,-13,-9,-6,0,21,40
1501933659855673,-21,8,-1,0,0,-4,3,21
1501933659855673,-19,-1,0,-7,-1,5,10,4
1501933659870674,70,-3,19,1,-2,2,18,50
1501933659870674,4,8,3,1,-1,-9,-67,-32
1501933659878635,-42,-5,-19,-3,-1,-1,-45,-14
1501933659878635,10,-8,-6,2,-2,3,2,7
1501933659902617,29,-4,16,-3,0,-1,-9,-1
1501933659902617,-45,-30,-9,-2,0,-5,-10,-27
1501933659902617,-11,8,27,7,0,7,-4,14
1501933659902617,24,13,-51,-5,-1,2,10,-3
1501933659916647,-27,3,2,2,1,10,11,-12
1501933659916647,-11,2,-11,1,0,-9,-30,-29
1501933659917617,89,12,7,1,5,1,20,26
1501933659917617,-36,19,5,0,-1,8,36,62
1501933659938648,-8,4,16,-2,-3,-11,-67,5
1501933659938648,17,-11,1,-8,-8,-3,33,-1
1501933659939617,30,-5,5,2,2,5,33,46
1501933659939617,-7,14,9,3,4,1,-21,-26
1501933659962616,-14,2,5,0,-1,0,8,-17
1501933659962616,-11,-14,30,-3,0,8,38,19
1501933659962616,-2,9,-14,-2,-3,-9,-38,-4
1501933659962616,-20,-14,18,-3,-3,-5,-14,2
1501933659976652,-59,-6,-12,2,3,1,-30,-3
1501933659976652,4,22,-13,17,4,3,30,-30
1501933659977623,2,-5,3,-40,-11,-8,7,-9
1501933659977623,89,0,3,2,0,-2,22,18
1501933659998618,-72,-10,-5,0,1,-3,-31,-32
1501933659998618,81,5,13,7,-1,7,37,24
1501933659999629,30,1,12,1,1,1,25,10
1501933659999629,-45,-1,7,-10,0,-2,0,-18
1501933660022625,-13,-3,-12,4,1,6,49,20
1501933660022625,28,-27,-18,-1,-2,4,22,44
1501933660022625,-30,11,-16,11,2,0,-20,4
1501933660022625,-12,-13,32,-1,1,7,54,-13
1501933660036677,-15,15,-23,-2,-2,-7,-23,-31
1501933660036677,-48,-4,-22,-13,-2,1,1,11
1501933660037622,9,-3,26,8,1,0,-10,-7
1501933660037622,-96,-30,-23,1,0,3,-48,34
1501933660058663,92,1,12,2,1,-6,-15,0
1501933660058663,-59,8,5,-10,-2,-6,-14,-17
1501933660059654,11,-4,-12,-2,-2,-4,-25,-5
1501933660059654,-8,16,24,4,-2,-9,5,-11
1501933660082625,3,2,31,-2,-4,-4,2,-37
1501933660082625,-24,3,-27,2,1,-3,-20,-16
1501933660082625,-30,-23,-18,-14,-11,-10,-11,-17
1501933660082625,38,-3,-18,-4,-7,-13,-56,-27
1501933660096665,10,0,1,-1,0,9,58,29
1501933660096665,-8,11,9,-3,-2,-1,51,-14
1501933660097628,-48,10,6,10,5,-2,-50,-1
1501933660097628,-68,-13,-23,-8,-7,-8,-34,-4
1501933660118627,22,-6,-11,-3,-1,2,7,16
1501933660118627,-52,11,5,0,2,4,-15,-14
1501933660119625,64,-5,-12,8,4,8,43,18
1501933660119625,20,1,3,0,0,-4,-18,-28
1501933660142628,-11,1,-9,-3,-3,-4,-10,22
1501933660142628,-2,-10,7,-3,0,-2,-34,-23
1501933660142628,-30,4,9,2,-4,1,29,-8
1501933660142628,22,7,-4,2,3,12,20,17
1501933660155661,10,-4,-16,-9,-4,-2,5,-20
1501933660155661,34,-9,-5,-5,-1,0,41,48
1501933660163685,-23,-3,-7,-2,-1,1,3,3
1501933660163685,15,5,-10,-4,2,4,27,4
1501933660178667,10,5,-4,2,-5,-6,-7,27
1501933660178667,11,-8,21,-8,3,0,10,25
1501933660179655,-6,1,-23,28,2,-9,-113,-9
1501933660179655,49,-2,8,-28,-13,16,102,33
1501933660202635,-59,12,-20,-26,1,-1,-38,-2
1501933660202635,41,-7,6,5,-5,3,53,21
1501933660202635,-11,-4,14,9,5,0,4,-65
1501933660202635,32,-15,-9,5,6,-7,-23,-4
1501933660215665,-11,-2,5,14,-2,0,-1,-5
1501933660215665,-22,-1,-22,-10,-5,-5,-61,-5
1501933660223665,7,-1,-11,-21,-4,0,45,8
1501933660223665,-1,12,6,11,0,2,-9,20
1501933660238672,-1,-11,-1,-11,-3,-5,-8,-20
1501933660238672,-13,0,-1,12,6,0,-9,-1
1501933660239645,-6,1,17,1,0,5,-9,-3
1501933660239645,-31,-1,-4,-4,0,-5,37,-24
1501933660262655,43,3,11,10,-2,1,46,49
1501933660262655,-4,1,-14,-5,-3,-3,-22,-19
1501933660262655,50,-21,3,-7,-3,1,37,8
1501933660262655,37,0,-1,5,4,4,14,10
1501933660275652,-18,4,0,5,3,0,-21,-20
1501933660275652,3,2,7,-4,-5,-1,0,11
1501933660283678,-5,-4,8,-10,0,-1,-8,-20
1501933660283678,-19,-1,-1,6,3,10,12,-5
1501933660298678,0,-1,-5,-1,-1,2,41,9
1501933660298678,37,4,13,5,4,2,-2,-14
1501933660299681,-4,5,-22,5,-1,0,33,10
1501933660299681,6,-5,1,-9,-4,-12,-9,-25
1501933660322638,-29,-1,-11,0,2,3,-15,-10
1501933660322638,-21,-14,-20,-9,-4,-3,-17,9
1501933660322638,0,1,17,-5,-5,-6,0,20
1501933660322638,-11,17,-5,5,-2,-5,-48,-17
1501933660335681,-4,8,0,-2,-4,-5,-4,0
1501933660335681,36,-4,-14,-2,0,-2,-18,-24
1501933660343705,37,15,3,0,2,1,-4,7
1501933660343705,-73,-5,4,-7,-4,-6,-42,10
1501933660358684,0,-6,15,5,-1,-3,7,0
1501933660358684,-7,9,2,-1,-1,2,22,13
1501933660359657,-2,-9,-21,-3,-5,-10,-53,53
1501933660359657,26,-11,39,20,11,9,24,-9
1501933660382641,-8,7,-31,-5,-1,7,-4,23
1501933660382641,-11,3,-3,-1,2,-3,11,-25
1501933660382641,-93,3,1,1,2,0,-1,-10
1501933660382641,24,-17,-18,-5,-7,-10,-20,12
1501933660395643,1,-9,19,-4,-5,-5,-12,-14
1501933660395643,-53,-7,-14,-3,0,-5,-10,-9
1501933660403675,-7,8,-1,10,5,10,35,-15
1501933660403675,-13,7,-12,-3,-4,-4,-15,-16
1501933660418652,2,-4,3,-3,0,-5,-15,-36
1501933660418652,70,0,7,3,-1,4,-25,46
1501933660419652,-3,-18,7,-2,-3,-1,33,-51
1501933660419652,-55,14,3,8,6,11,-1,-28
1501933660442652,-16,-2,16,-3,-4,-4,-12,4
1501933660442652,-27,0,-19,-9,-6,-11,-86,-25
1501933660442652,14,4,1,-4,-3,-2,43,44
1501933660442652,44,0,-8,0,-4,-10,28,27
1501933660455678,0,-24,0,4,1,-1,-23,-76
1501933660455678,-23,-16,-14,-7,-4,-7,-40,-37
1501933660463648,-66,-26,-4,-2,-4,-4,-53,2
1501933660463648,-4,11,-37,-15,-10,-9,-19,-16
1501933660478693,-47,29,30,7,3,5,47,27
1501933660478693,-1,-1,-35,-2,3,6,28,-3
1501933660479654,61,-8,-2,-1,-3,-7,-9,-2
1501933660479654,50,-34,15,0,-3,-13,-58,-22
1501933660502661,9,16,29,3,0,-3,24,61
1501933660502661,21,-6,-4,-9,-12,-12,17,20
1501933660502661,10,22,7,3,4,3,-32,49
1501933660502661,9,-25,-17,-4,1,8,-13,-2
1501933660515721,43,-3,-15,-3,-1,0,5,8
1501933660515721,-15,9,19,2,1,-8,4,-4
1501933660523682,38,6,3,2,0,-4,8,-28
1501933660523682,-56,12,58,19,4,5,16,28
1501933660538660,-20,-18,-62,-22,-11,-19,-76,-39
1501933660538660,-15,3,18,1,5,-1,13,-26
1501933660539652,-32,-5,-10,-5,-5,4,39,29
1501933660539652,51,2,13,6,5,2,54,25
1501933660562676,-18,-2,-16,6,-5,-7,-14,-10
1501933660562676,-3,24,21,3,0,10,-3,28
1501933660562676,2,-64,-15,-5,-4,-10,-38,-2
1501933660562676,27,53,-1,-3,1,10,27,-55
1501933660575654,63,16,2,3,3,3,-34,-35
1501933660575654,40,-21,11,-2,5,5,3,-21
1501933660583692,-87,14,-17,8,-7,-17,-56,-44
1501933660583692,-117,-67,-20,-4,-4,-6,-47,35
1501933660598722,-25,24,-2,-18,-10,-3,-38,-32
1501933660598722,9,0,-13,4,0,-7,-95,-35
1501933660599655,-7,12,21,-1,5,11,76,25
1501933660599655,57,39,-20,-18,1,-6,-8,-18
1501933660622676,32,-10,16,12,7,12,41,55
1501933660622676,-43,-1,8,3,-8,-13,-27,15
1501933660622676,-66,15,1,3,7,12,43,2
1501933660622676,-24,13,-14,-12,-14,-11,61,37
1501933660644690,44,-22,10,42,6,9,16,9
1501933660644690,22,1,1,-24,1,8,-5,3
1501933660645658,33,8,-15,-28,-2,7,56,-4
1501933660645658,-7,8,1,5,-1,5,38,-1
1501933660658658,-3,3,8,10,-2,-12,-2,7
1501933660658658,-67,14,8,-11,6,14,91,-16
1501933660659657,45,-15,-4,7,-5,-3,-45,-14
1501933660659657,35,0,7,8,3,-4,-29,7
1501933660682683,-21,-12,-10,-18,2,8,56,22
1501933660682683,-50,14,2,7,-2,4,38,3
1501933660682683,-13,14,9,-6,2,0,-45,-5
1501933660682683,42,-10,11,13,5,11,63,45
1501933660704709,-92,-15,-25,-8,-3,1,-40,-63
1501933660704709,52,-6,-19,-14,-3,1,30,11
1501933660705673,-10,12,2,16,2,3,13,-27
1501933660705673,65,-28,-13,0,-2,5,-28,31
1501933660718694,-50,12,-8,-13,1,-4,10,13
1501933660718694,70,-28,7,15,1,-2,5,-11
1501933660719668,75,22,6,-5,-3,-8,27,6
1501933660719668,-43,-29,-25,-8,-4,-5,-88,-41
1501933660742684,35,3,11,-2,1,3,30,55
1501933660742684,-5,11,16,9,-2,4,10,2
1501933660742684,-49,-10,-25,-3,3,-2,-25,-10
1501933660742684,-4,5,1,-10,-7,-10,-33,28
1501933660764704,-77,4,10,6,4,0,16,-9
1501933660764704,11,13,-12,-2,-1,-2,-33,-8
1501933660765676,0,-8,29,9,2,1,0,24
1501933660765676,-3,13,14,4,1,1,6,4
1501933660778735,28,-28,-29,-9,-6,-6,-25,-28
1501933660778735,-53,-8,-4,-7,-2,-4,-3,-3
1501933660779666,32,15,7,-1,0,2,13,-27
1501933660779666,-27,1,-10,0,3,6,-14,-40
1501933660800676,78,7,7,1,2,-3,-27,0
1501933660800676,19,-5,-4,10,-1,3,-10,7
1501933660809674,-47,-11,22,2,-5,-5,-19,14
1501933660809674,23,14,2,0,2,3,27,-46
1501933660824665,-59,-3,-16,-15,-3,-2,11,-8
1501933660824665,2,-10,1,0,-3,-12,-13,41
1501933660826678,-44,-15,-13,-4,-4,-6,-23,-14
1501933660826678,-106,0,-3,0,3,2,-17,-38
1501933660847675,73,-25,30,2,0,-2,-15,7
1501933660847675,-39,6,-18,-5,-5,-9,-3,-41
1501933660848678,37,-12,10,-2,-3,-13,-52,21
1501933660848678,-41,4,17,0,-1,0,25,-3
1501933660860713,5,-11,-24,-6,-5,-3,-8,-2
1501933660860713,-27,7,-11,7,-1,4,-29,22
1501933660869676,48,4,-4,-3,-4,0,1,-18
1501933660869676,34,5,14,1,-1,-13,-43,15
1501933660884706,-42,26,14,-2,1,12,75,11
1501933660884706,19,-18,2,-1,-1,-7,-16,-14
1501933660886671,-67,9,5,3,1,2,3,-12
1501933660886671,-59,6,-26,-7,-4,3,24,26
1501933660907699,-26,-8,3,-13,-1,-6,-11,-19
1501933660907699,10,1,7,5,1,3,38,37
1501933660908673,25,7,-17,-4,-4,-7,-31,-59
1501933660908673,-74,-29,7,-2,3,2,38,35
1501933660920721,7,-12,4,13,-4,-13,-88,-19
1501933660920721,11,14,-21,-9,3,14,37,-23
1501933660929679,-24,-28,-1,-16,-8,-7,20,50
1501933660929679,34,6,-4,5,1,1,-29,-25
1501933660944674,24,-7,-21,-2,-1,6,82,39
1501933660944674,0,4,33,8,-1,-4,-51,4
1501933660946677,-87,21,-19,-5,5,17,57,9
1501933660946677,-5,-9,3,0,-2,-11,-51,16
1501933660966684,66,39,8,0,4,7,3,-17
1501933660966684,39,15,10,0,-2,-3,5,-9
1501933660968675,81,-2,-13,-2,-2,4,27,-6
1501933660968675,51,2,-3,4,-1,0,-60,7
1501933660980717,-79,8,-1,6,3,-1,10,-1
1501933660980717,-33,-13,15,-7,3,7,27,19
1501933660989690,85,-4,-13,27,1,-6,-46,-5
1501933660989690,67,10,4,-57,-1,0,2,9
1501933661004718,-100,-8,-32,-2,-10,-8,-15,22
1501933661004718,0,13,14,7,-1,-2,-14,-29
1501933661006682,-27,-1,12,2,3,3,1,8
1501933661006682,-31,-14,41,27,3,-2,36,-4
1501933661026687,16,5,-36,10,-8,-7,-28,-20
1501933661026687,-5,-19,-6,10,-3,1,13,11
1501933661028690,-4,17,-2,24,1,6,36,-48
1501933661028690,81,-2,14,2,3,1,19,-2
1501933661040690,15,-19,5,-7,3,12,42,-8
1501933661040690,-93,2,-23,-3,-1,-6,-7,-9
1501933661049681,-34,-25,26,-11,-1,-2,15,19
1501933661049681,-40,10,-14,11,1,5,-26,-20
1501933661064725,80,-8,2,-9,-2,-6,-15,-8
1501933661064725,81,-18,-13,-10,-5,-7,-14,28
1501933661066684,-73,11,7,-21,0,2,-1,8
1501933661066684,-55,13,-15,18,-4,-2,28,-3
1501933661087709,11,-33,-27,-6,-4,2,-16,-23
1501933661087709,-51,-3,10,-5,-1,-4,-23,3
1501933661088685,70,4,0,26,6,1,-14,40
1501933661088685,18,3,-40,-75,-10,-3,37,2
1501933661109716,-4,10,23,9,-1,-2,-2,7
1501933661109716,29,-9,-11,2,-4,1,-11,31
1501933661111685,-33,-1,-8,-7,1,4,27,-16
1501933661111685,-2,7,10,46,4,5,-5,5
1501933661124695,-49,-9,4,-8,4,1,0,8
1501933661124695,-16,-17,-10,-28,-5,-3,26,-9
1501933661126686,-24,21,16,1,-4,-1,-12,-4
1501933661126686,-3,-4,2,24,-2,-8,-49,-6
1501933661146733,67,3,-18,-15,-3,0,12,44
1501933661146733,-2,7,-1,-31,-4,-1,-3,-16
1501933661148694,-18,5,-10,-8,0,-1,-29,27
1501933661148694,25,-2,5,29,0,1,14,-22
1501933661169752,15,-8,18,21,5,-7,-18,47
1501933661169752,25,-18,-21,-31,-6,-3,31,-31
1501933661171688,11,1,-13,-55,-10,-8,-15,-27
1501933661171688,6,-13,-5,-17,-3,-6,-26,-17
1501933661183698,-14,15,23,31,9,6,22,-4
1501933661183698,0,1,19,-7,6,2,-9,19
1501933661190689,53,-11,-25,-7,-5,-7,-10,28
1501933661190689,-45,8,15,32,3,-1,4,-5
1501933661206697,-36,-39,-44,-100,-22,-16,-29,-30
1501933661206697,17,44,7,61,6,0,-27,-39
1501933661208721,26,-3,-10,-19,1,-2,-1,14
1501933661208721,-1,-25,-8,6,-6,2,11,96
1501933661229738,-78,1,25,26,0,-7,-39,-90
1501933661229738,43,12,18,15,6,12,53,36
1501933661231691,33,-18,4,0,0,-3,-33,-24
1501933661231691,10,8,10,-3,-1,-4,-14,-15
1501933661244753,67,5,-24,-13,-8,-11,-8,21
1501933661244753,-8,-13,18,19,2,0,-15,7
1501933661246691,32,-8,-3,0,-4,-3,-7,-13
1501933661246691,1,8,-23,-26,-10,-10,-12,-10
1501933661267718,0,2,23,12,3,2,10,13
1501933661267718,17,3,1,5,0,-9,-73,7
1501933661268717,-22,-20,1,33,2,2,78,21
1501933661268717,37,5,-8,-30,-1,6,6,8
1501933661289727,-16,12,9,-8,5,3,-23,-28
1501933661289727,-52,-8,-16,10,-13,-7,7,-7
1501933661291694,5,-4,-11,-13,-3,5,11,9
1501933661291694,35,1,0,-15,-4,-5,2,-6
1501933661303729,-16,14,19,21,4,0,-14,60
1501933661303729,-7,-14,0,23,9,2,3,38
1501933661310760,-4,11,0,1,3,6,9,-52
1501933661310760,-22,-12,-11,33,-7,-8,-7,-73
1501933661327718,37,0,17,-21,0,-4,-30,76
1501933661327718,7,6,-17,-3,-6,-9,27,-5
1501933661328706,-67,-11,17,-11,0,-5,-31,-1
1501933661328706,11,-28,-32,1,-2,4,20,-31
1501933661349762,11,-2,-4,23,-4,3,2,30
1501933661349762,44,7,0,-6,-1,-1,13,-22
1501933661351699,0,21,17,16,7,1,13,13
1501933661351699,50,6,24,-14,3,2,10,69
1501933661363767,20,7,-7,32,2,6,46,-34
1501933661363767,-105,-7,-11,-1,-5,6,14,-28
1501933661370762,86,-24,-3,1,-4,-12,-59,21
1501933661370762,-20,4,9,12,6,0,-7,47
1501933661387724,31,16,-11,-21,-6,-10,-14,-93
1501933661387724,8,3,-4,-26,0,1,-11,-3
1501933661388702,27,-16,-11,4,-6,-6,-29,-28
1501933661388702,50,-7,20,4,-1,-1,40,-32
1501933661409727,77,-3,12,39,1,11,52,67
1501933661409727,24,27,-6,6,7,3,-7,-52
1501933661411701,-21,12,10,-72,-13,-4,-3,-85
1501933661411701,-55,1,-3,-11,2,-4,-25,39
1501933661423758,62,-6,-46,-17,3,6,30,-52
1501933661423758,-45,3,15,4,0,3,23,42
1501933661430702,-27,-24,-12,33,0,2,29,66
1501933661430702,-21,8,-11,-40,-10,-11,-67,-23
1501933661447725,-86,11,18,-3,3,1,-31,-68
1501933661447725,-4,-16,-2,36,2,-2,1,-16
1501933661448716,-29,3,-5,-44,-2,-1,24,23
1501933661448716,-30,-18,-12,-26,-4,-1,-8,26
1501933661469737,3,-5,20,37,-1,0,-51,-37
1501933661469737,111,7,7,5,7,6,42,27
1501933661471706,-84,23,10,39,6,6,-2,23
1501933661471706,-11,-2,-38,2,5,7,5,-57
1501933661483710,-52,-11,-12,-34,-6,-3,19,15
1501933661483710,-11,-8,19,-8,-4,-3,-24,-18
1501933661490776,76,5,-6,3,-1,1,22,41
1501933661490776,-34,-1,36,35,3,7,47,-55
1501933661506740,16,-3,-5,-13,-2,-13,-69,-74
1501933661506740,-46,-16,-20,-3,-9,2,51,30
1501933661508710,20,25,20,-5,3,1,6,48
1501933661508710,-25,-5,-40,-17,-8,-9,-20,-38
1501933661529750,-30,17,27,39,3,-1,6,11
1501933661529750,-5,-21,-13,-39,-3,-6,-30,20
1501933661531708,9,-22,4,6,1,-1,0,-2
1501933661531708,-23,-12,-16,15,-4,-1,6,35
1501933661543721,-29,16,20,-13,1,3,23,86
1501933661543721,-95,10,-6,9,5,-1,-2,0
1501933661550742,-15,5,-25,15,-1,2,30,-50
1501933661550742,21,-8,7,-15,0,0,0,22
1501933661566721,6,-4,-9,11,4,2,41,-16
1501933661566721,-37,-6,-22,-11,1,4,-10,-25
1501933661568721,-12,-8,2,16,-1,-5,-33,2
1501933661568721,12,1,15,1,3,4,77,55
1501933661589712,46,-16,0,-4,-3,-9,-21,-9
1501933661589712,-6,14,-5,12,-2,-4,4,-24
1501933661591712,-38,5,-9,-55,-6,-4,-43,-13
1501933661591712,-8,-11,-1,-4,1,-5,-34,-3
1501933661603749,49,-27,0,-12,0,-4,-22,16
1501933661603749,75,16,13,0,5,2,3,13
1501933661612713,72,5,8,42,-2,-5,-14,-29
1501933661612713,64,-1,5,-8,7,6,25,-13
1501933661626714,-79,-17,-52,-2,-12,-3,10,34
1501933661626714,21,3,28,-2,-3,-6,-12,13
1501933661628714,2,7,-1,8,1,2,40,-23
1501933661628714,14,-2,-9,-4,0,4,-10,16
1501933661649748,-5,32,-3,-6,2,0,-2,-104
1501933661649748,-13,-26,-3,-8,-6,-5,23,11
1501933661651716,15,-13,11,17,1,-4,-34,-9
1501933661651716,-28,19,-6,10,3,5,28,28
1501933661663716,-108,11,-3,3,1,4,6,-8
1501933661663716,7,-3,3,-9,-7,-9,-41,-16
1501933661672715,-38,-1,-2,-13,0,-3,10,42
1501933661672715,10,-36,-21,14,-9,-12,-44,-79
1501933661686715,15,11,16,-6,0,3,-11,24
1501933661686715,-30,2,7,-9,1,3,11,-18
1501933661688727,-15,11,-32,6,3,2,7,-31
1501933661688727,18,1,27,10,-2,-6,-6,-31
1501933661709719,-5,-4,-23,-13,-6,-1,16,26
1501933661709719,85,-19,3,12,-6,-11,-15,-23
1501933661711719,5,-4,3,-5,1,3,-24,-9
1501933661711719,21,1,-29,-26,-14,-9,-37,-11
1501933661723720,31,-12,8,-6,1,0,7,-9
1501933661723720,-61,6,7,5,2,4,9,35
1501933661732756,34,2,9,-4,0,0,-9,-29
1501933661732756,31,-1,-4,-8,-2,0,32,23
1501933661746778,-58,15,33,22,4,2,29,56
1501933661746778,16,-25,-17,-23,-10,-10,-51,22
1501933661748730,12,11,15,9,3,-3,4,15
1501933661748730,-61,20,-15,-1,0,2,2,45
1501933661769732,41,-12,-26,-3,-4,-1,-7,-24
1501933661769732,0,-4,8,0,-4,-2,1,-26
1501933661771722,-32,-17,-6,-9,-4,2,13,18
1501933661771722,-5,12,-7,13,6,3,14,-53
1501933661783722,9,18,46,-6,1,1,-5,17
1501933661783722,16,11,3,2,1,4,11,-20
1501933661792725,10,-2,-1,13,-4,-5,6,-12
1501933661792725,-64,11,8,-5,4,1,-53,46
1501933661806756,32,-12,-24,-7,-4,-3,-8,-82
1501933661806756,-19,12,14,6,5,1,-10,-15
1501933661808734,-7,-14,-16,-13,-2,0,1,58
1501933661808734,-27,-6,9,14,-2,-8,-28,-4
1501933661829797,-13,-7,-6,-2,-2,-2,24,6
1501933661829797,94,-3,-24,-11,-8,-8,-32,4
1501933661831734,-35,-4,-14,-7,-3,0,16,28
1501933661831734,84,-11,18,39,-2,-5,-29,2
1501933661843726,-47,2,-34,-30,-4,-1,-16,37
1501933661843726,45,7,-10,-13,-7,-8,-32,-33
1501933661852726,-4,-6,-16,-11,1,2,-9,8
1501933661852726,24,0,-17,-28,-4,-5,-3,8
1501933661866727,32,-13,2,34,0,-3,6,35
1501933661866727,-84,-18,-43,-2,2,3,23,61
1501933661868760,11,19,22,25,8,5,-4,-76
1501933661868760,24,3,4,-54,-6,-3,-20,-68
1501933661889773,-4,8,43,0,-1,-6,-7,21
1501933661889773,-59,-14,18,-8,0,7,33,35
1501933661891729,23,6,-27,21,3,4,5,-20
1501933661891729,-83,6,19,11,-1,-1,30,-11
1501933661903730,64,3,-14,-23,0,0,-23,-62
1501933661903730,-13,21,6,26,5,7,20,0
1501933661912733,14,-5,-2,-31,-7,-6,-53,-38
1501933661912733,35,5,30,17,3,-2,33,36
1501933661926765,-14,-2,-15,-5,-4,-1,-9,49
1501933661926765,-45,-1,-15,-6,1,3,40,-55
1501933661928732,-1,-13,12,2,-2,-1,-1,15
1501933661928732,-16,-1,3,-19,0,7,5,-18
1501933661949764,10,-9,2,20,3,4,36,62
1501933661949764,32,4,-5,-3,3,4,-11,-61
1501933661951742,-13,-2,34,-10,2,-4,-18,7
1501933661951742,-6,-12,-44,9,-5,7,35,-19
1501933661971744,-41,0,-9,-2,4,1,12,-18
1501933661971744,60,-1,12,2,-3,-3,-15,61
1501933661973735,-42,0,-17,-8,-5,-3,23,-39
1501933661973735,37,-4,2,-5,2,3,-8,2
1501933661986790,17,-4,51,-16,-6,-4,3,17
1501933661986790,1,7,4,-1,-2,-3,-17,-39
1501933661988735,13,-1,-18,12,-2,-5,30,-8
1501933661988735,-14,-6,14,4,-2,-9,-31,13
1501933662009735,14,-20,-32,-11,-1,6,3,-10
1501933662009735,-1,10,10,11,2,-1,14,18
1501933662011746,45,-8,-14,-13,-7,-6,-40,-31
1501933662011746,-47,16,33,-7,-4,1,-13,-107
1501933662023759,29,-8,-22,3,0,4,22,26
1501933662023759,6,-1,20,-2,3,-3,-22,-14
1501933662032742,48,3,8,15,-4,-5,-4,30
1501933662032742,-14,6,1,0,-1,0,19,43
1501933662046738,23,0,15,3,-7,-12,-93,-64
1501933662046738,63,-44,-20,-6,-4,7,41,9
1501933662048745,-121,12,-32,-10,0,4,1,16
1501933662048745,-7,-5,-1,2,4,-1,-6,-9
1501933662069753,-52,-8,-37,5,3,2,-17,-50
1501933662069753,-25,8,24,-13,-7,-9,-39,4
1501933662071740,28,-6,38,6,0,-4,-15,23
1501933662071740,-1,12,-8,11,2,4,26,22
1501933662091751,-22,22,28,0,3,4,0,-63
1501933662091751,-12,1,-43,4,2,1,-8,11
1501933662093751,-48,-13,9,-16,-3,0,-7,0
1501933662093751,-39,7,47,7,-1,-2,-14,14
1501933662106744,18,-13,-50,-5,-6,-4,-16,32
1501933662106744,-11,0,-19,1,-5,-3,-33,3
1501933662108744,92,9,-1,-3,0,0,26,39
1501933662108744,36,-19,-6,-3,5,0,6,14
1501933662129744,-22,6,17,8,1,1,22,7
1501933662129744,-17,5,16,-6,0,-2,26,-37
1501933662131749,-9,-10,-11,1,0,1,11,36
1501933662131749,-20,-6,5,5,0,0,-7,9
1501933662151758,5,-2,4,1,2,1,0,12
1501933662151758,6,5,-4,2,-2,-4,-9,-39
1501933662153756,-12,-8,4,-8,-2,1,57,31
1501933662153756,22,7,-36,10,1,7,15,17
1501933662166753,-46,4,36,-4,-6,-9,-35,-35
1501933662166753,-20,-6,23,0,3,2,-31,-11
1501933662168746,-10,-8,-16,12,-2,-5,-11,-31
1501933662168746,-28,-18,-48,-16,-5,-5,-7,0
1501933662189749,37,3,51,3,2,2,-19,-38
1501933662189749,-1,-15,-47,-8,-4,-10,-26,-11
1501933662195745,-15,18,62,3,7,12,-11,-81
1501933662195745,-21,11,-9,-2,2,0,5,-55
1501933662211791,6,-16,-28,14,-5,-6,-19,22
1501933662211791,17,2,33,-20,-6,-5,5,5
1501933662213780,-5,0,-50,-4,-2,2,18,-12
1501933662213780,18,-4,55,3,-2,-2,3,0
1501933662226814,9,4,-6,-13,5,-1,15,25
1501933662226814,-27,-1,-12,9,-4,-2,-10,-3
1501933662233767,6,-9,-18,-23,-10,-6,10,29
1501933662233767,-1,5,5,6,1,1,-19,4
1501933662249783,34,-11,-10,-8,-8,-9,1,-17
1501933662249783,7,-6,32,-2,6,7,-29,16
1501933662251750,21,4,-9,-1,-4,-4,-13,-10
1501933662251750,1,-2,-31,-7,-2,-3,-12,-15
1501933662271792,-27,0,-6,-4,-1,3,14,32
1501933662271792,-8,-4,-34,0,-2,-2,13,0
1501933662273784,-14,6,25,3,3,2,6,-40
1501933662273784,59,10,-4,-18,0,2,0,37
1501933662286796,-10,-3,-2,23,-1,-2,-5,-18
1501933662286796,-8,5,46,2,-2,1,26,33
1501933662293765,-72,-3,-46,10,4,1,-18,-25
1501933662293765,-33,-6,24,7,-1,-6,2,21
1501933662308797,-5,14,-20,-11,1,3,15,16
1501933662308797,8,-6,-19,10,3,1,30,20
1501933662316763,10,-14,-11,-5,-4,-1,-1,-2
1501933662316763,7,3,-15,-3,-3,-3,11,-23
1501933662331819,-17,-3,6,-32,-1,1,4,13
1501933662331819,-33,9,0,34,9,4,18,8
1501933662333756,21,9,-5,33,3,1,-11,3
1501933662333756,15,-6,6,-31,-21,-7,-17,10
1501933662346799,-3,-14,-25,5,0,-2,-30,27
1501933662346799,9,8,-30,-30,-3,-1,22,-2
1501933662353757,-5,7,46,19,4,-3,-2,49
1501933662353757,-18,-17,-19,20,4,2,-18,-75
1501933662369814,29,15,-4,-20,-3,4,85,-14
1501933662369814,8,-1,16,27,-1,-2,6,10
1501933662371757,-27,-1,-1,-12,0,3,-15,33
1501933662371757,94,-12,-7,-6,-2,-2,-7,53
1501933662391790,-31,2,26,-1,1,-2,-13,2
1501933662391790,3,5,11,1,0,-1,-9,-21
1501933662393769,3,7,7,-1,-1,-1,20,13
1501933662393769,-7,2,2,-1,4,3,15,62
1501933662406771,-17,-4,-50,-1,-3,-3,15,1
1501933662406771,-32,11,8,0,-2,1,1,-17
1501933662413760,-7,-13,7,-22,-3,-3,-20,-20
1501933662413760,-24,7,35,33,-2,-3,4,-51
1501933662429824,19,-4,-12,-4,-2,-2,3,10
1501933662429824,4,0,24,-11,-4,-4,-14,0
1501933662431760,13,-11,-10,-7,-2,-4,8,18
1501933662431760,-13,4,35,16,3,-1,-1,29
1501933662459763,-43,-7,-26,3,-3,0,8,2
1501933662459763,25,-6,-36,-5,0,-7,-21,0
1501933662460767,46,9,-5,-3,-2,-5,-30,-36
1501933662460767,4,3,33,10,8,11,2,14
1501933662465761,-29,-5,-32,-26,-12,-8,-46,-18
1501933662465761,9,-4,4,-4,5,7,23,-37
1501933662474763,4,-8,13,24,-2,1,19,4
1501933662474763,-10,2,-4,-2,-3,-4,-3,-7
1501933662489792,-6,7,33,8,0,-4,-9,-21
1501933662489792,12,0,-9,-6,2,2,12,-29
1501933662490763,-7,-4,-15,-7,-1,-4,4,12
1501933662490763,-43,-12,-8,-3,-3,0,12,-14
1501933662511797,43,15,4,16,10,5,-9,5
1501933662511797,26,-8,12,-2,-5,-6,-7,-11
1501933662513766,-35,-1,-30,-7,-2,4,10,1
1501933662513766,87,-3,-11,-4,-4,-2,1,3
1501933662526767,7,-8,7,-5,-6,-3,-5,2
1501933662526767,0,7,9,8,1,1,13,38
1501933662532766,12,7,-17,0,-2,3,-41,4
1501933662532766,-21,1,-18,-7,7,10,33,53
1501933662549779,108,-11,72,12,4,2,-19,-5
1501933662549779,-32,0,-7,-17,1,-1,-26,-16
1501933662550767,-7,5,15,28,-1,-3,12,-14
1501933662550767,-37,-6,-53,-25,-3,-4,-8,-22
1501933662571787,-9,-11,9,7,-2,-1,-2,13
1501933662571787,-3,-9,1,-6,-2,0,-3,27
1501933662573780,-1,2,38,-7,-1,-4,1,5
1501933662573780,-12,0,-13,0,-4,-7,-31,-44
1501933662585838,-11,-1,-12,4,2,-1,-13,-1
1501933662585838,34,-4,-28,-4,-2,-1,0,5
1501933662594778,8,13,18,-6,-2,-3,7,11
1501933662594778,18,10,-20,4,-1,3,26,-36
1501933662609839,-22,-25,-14,-26,-13,-2,-10,-19
1501933662609839,-17,13,22,14,-4,-2,23,5
1501933662611770,57,-23,-3,-13,-3,-2,-49,-26
1501933662611770,-40,0,2,4,4,-1,1,-35
1501933662631830,-20,7,-24,18,7,5,25,29
1501933662631830,-21,-14,-12,0,-2,2,-9,-6
1501933662633806,-4,6,-1,-1,-1,0,14,3
1501933662633806,-35,0,7,-8,2,-1,-9,16
1501933662645811,-5,2,-2,0,3,-1,10,-67
1501933662645811,6,-17,-16,-3,-4,-6,-16,-1
1501933662654806,-44,8,21,3,0,-2,26,-23
1501933662654806,39,9,27,-2,0,-2,5,9
1501933662669817,-69,-11,-27,17,4,1,26,19
1501933662669817,4,-2,-20,-7,3,1,12,10
1501933662671774,-32,-9,-30,-7,-10,-7,-18,-3
1501933662671774,-53,-2,15,2,2,5,-5,-6
1501933662691808,27,15,34,2,2,3,2,69
1501933662691808,-37,3,16,8,1,0,-7,23
1501933662693787,-3,-11,0,31,5,3,-24,59
1501933662693787,90,-10,-31,-70,-17,-10,36,-68
1501933662705809,-35,-8,16,10,-2,-6,11,-36
1501933662705809,-15,-7,-8,7,3,4,26,-34
1501933662714809,12,21,53,15,9,-4,3,-61
1501933662714809,61,8,16,32,3,-1,-42,-84
1501933662729843,43,18,-32,-27,-12,-1,-72,-64
1501933662729843,0,2,-15,-57,-15,-11,-32,46
1501933662731777,-44,-16,-21,6,4,2,-14,-63
1501933662731777,-36,7,11,45,5,-3,-18,5
1501933662752783,-31,-11,16,1,-2,-4,27,-16
1501933662752783,29,-4,-42,-12,-9,-3,-2,36
1501933662753780,-70,10,9,-15,-2,3,14,64
1501933662753780,-3,-6,-2,7,4,0,1,45
1501933662765844,11,6,-9,-14,-3,-2,-8,-1
1501933662765844,-14,2,19,28,5,-1,-9,-35
1501933662774780,6,-8,-10,-15,-4,-1,17,19
1501933662774780,-20,2,-2,-30,-3,1,1,38
1501933662789820,-17,-1,9,41,5,-3,10,-54
1501933662789820,7,6,-2,-1,-1,0,6,11
1501933662790780,13,1,-14,-36,-13,-7,2,-31
1501933662790780,-6,-9,-34,-9,-2,-1,-6,8
1501933662811824,-6,1,34,21,8,6,10,42
1501933662811824,-22,-8,-19,16,0,-3,-4,27
1501933662813819,92,5,12,-23,-5,-3,-8,-20
1501933662813819,3,2,11,-7,-4,1,1,17
1501933662825843,3,-7,-18,-8,-4,-4,14,33
1501933662825843,0,-3,9,19,4,0,-5,-34
1501933662834824,-14,5,-11,-28,0,3,7,33
1501933662834824,-7,-8,7,-6,-5,-3,-25,5
1501933662849815,1,1,-1,3,2,4,16,57
1501933662849815,-10,9,12,13,-1,-5,-24,-4
1501933662850785,-12,-4,-15,10,8,11,18,26
1501933662850785,32,13,2,-1,0,-2,-12,-32
1501933662872796,20,6,-15,27,4,1,-10,-32
1501933662872796,-27,-10,7,-48,-13,-4,-4,-14
1501933662873788,-15,9,3,-30,-6,-3,-4,-24
1501933662873788,-17,-14,-23,3,1,-4,14,17
1501933662885787,-51,-3,5,5,5,1,6,51
1501933662885787,30,13,30,8,4,5,0,-12
1501933662894797,16,-14,-30,4,-1,-1,23,29
1501933662894797,-21,1,6,43,-5,-5,0,-34
1501933662909827,-9,-3,-3,-29,-6,-2,-1,-4
1501933662909827,-6,-5,12,-28,-7,-12,-30,-44
1501933662910789,-26,3,-20,22,2,0,15,41
1501933662910789,-23,-17,-3,-44,-4,0,21,21
1501933662931857,-18,11,-13,41,8,4,19,56
1501933662931857,19,-9,4,-38,-7,3,13,9
1501933662933791,19,-4,10,17,-2,-8,-20,-27
1501933662933791,-14,6,2,6,5,3,-21,-3
1501933662945857,12,-7,-21,-11,-6,-6,-22,-3
1501933662945857,-8,3,-16,6,3,5,15,-66
1501933662954821,5,-8,2,9,0,-4,-9,-73
1501933662954821,4,6,1,6,1,-3,-5,0
1501933662969852,13,4,12,-11,-4,-2,15,0
1501933662969852,-7,-1,-14,-4,3,1,-9,14
1501933662970792,29,3,-8,1,3,3,-7,-4
1501933662970792,-18,2,42,13,-1,-3,-17,2
1501933662991792,41,-7,-22,-20,-6,-4,0,-33
1501933662991792,3,-1,-27,28,3,-4,6,14
1501933662993794,-14,2,31,-9,-7,-2,-2,-12
1501933662993794,2,0,-21,-14,-1,2,4,20
1501933663014826,-10,-1,13,-14,-2,0,-8,-22
1501933663014826,-1,6,21,26,1,1,8,12
1501933663015793,-5,-9,-26,-3,-1,-3,-3,7
1501933663015793,11,-5,-7,22,2,0,-8,5
1501933663029836,-13,-3,10,-34,-1,3,5,53
1501933663029836,42,8,-11,6,2,0,2,-31
1501933663030832,-8,-7,1,6,-3,-3,-10,-6
1501933663030832,-4,2,5,-7,0,3,14,13
1501933663051838,-13,-6,0,4,2,0,-3,31
1501933663051838,46,4,8,-4,-2,4,7,24
1501933663053832,-1,0,-13,-3,-1,-2,2,-4
1501933663053832,-11,0,-7,7,-1,-2,-23,-14
1501933663074798,6,2,-3,-8,-2,-6,-12,-25
1501933663074798,-9,-9,8,9,6,7,22,-43
1501933663075800,44,13,0,3,-2,-3,1,0
1501933663075800,-18,4,-9,-17,-7,-3,8,-44
1501933663089832,-6,4,14,4,-1,-2,-6,-24
1501933663089832,-29,-7,-8,-3,-1,-4,-6,18
1501933663090800,1,-7,-5,8,3,1,-1,4
1501933663090800,4,0,11,-4,-5,-7,9,-18
1501933663111801,18,-2,-18,-4,0,-1,-9,-4
1501933663111801,19,4,11,15,3,-1,1,16
1501933663113804,0,-4,-1,-29,-11,3,-5,18
1501933663113804,-20,-10,-2,6,2,2,11,-24
1501933663134808,29,0,-1,-5,-2,2,12,-27
1501933663134808,67,0,-7,1,-3,-7,-2,40
1501933663135802,-29,4,9,8,3,2,-8,-34
1501933663135802,1,-2,11,5,3,0,3,19
1501933663148843,-18,0,-19,-8,-6,-1,-2,-25
1501933663148843,-68,-5,-14,-8,-4,-3,-3,-17
1501933663155820,49,0,18,3,0,-5,-26,20
1501933663155820,3,-3,-1,0,2,9,66,37
1501933663171865,-5,1,11,5,3,0,-14,-59
1501933663171865,-2,2,-5,-4,-2,-2,-6,12
1501933663173804,-19,-9,-7,7,-3,-3,4,-14
1501933663173804,2,-5,11,-20,-11,-7,-25,7
1501933663194844,-16,-5,-20,0,0,4,26,56
1501933663194844,-47,-6,0,-10,1,4,20,-50
1501933663195816,-9,8,-1,12,3,2,15,8
1501933663195816,52,1,-11,1,2,-1,-15,3
1501933663208846,-24,1,2,-7,-4,-2,0,-7
1501933663208846,-14,-5,12,5,-2,-5,-32,1
1501933663215814,-10,-5,7,2,2,2,-14,62
1501933663215814,-15,5,-3,-2,-1,-3,24,-21
1501933663231806,-19,4,-15,-1,-1,0,-20,-78
1501933663231806,3,8,-4,3,3,0,-14,-8
1501933663233808,-4,0,6,18,-1,-3,-16,-17
1501933663233808,6,-6,-7,-40,-7,-4,-10,29
1501933663254809,10,-1,38,19,1,-1,-4,10
1501933663254809,79,-1,-19,-15,-6,-2,8,1
1501933663255807,-13,3,-2,2,4,2,16,5
1501933663255807,-15,1,8,9,3,0,-13,-11
1501933663268853,14,-5,-9,-5,-2,-3,-1,-6
1501933663268853,4,1,3,0,-2,-1,0,16
1501933663275872,-5,0,9,1,1,-5,-37,56
1501933663275872,8,-17,-17,5,0,9,50,-5
1501933663291843,-50,21,10,-2,2,1,-6,16
1501933663291843,-21,5,51,5,-4,-4,-14,9
1501933663293820,-20,-9,-82,-17,-4,-1,6,-41
1501933663293820,-5,14,32,12,1,-3,-22,-9
1501933663314844,28,-6,-6,-4,-3,-3,-13,-4
1501933663314844,-37,-6,-4,14,0,0,-3,23
1501933663315814,76,4,16,-38,-12,0,9,-38
1501933663315814,-21,5,-23,1,-1,-5,-19,14
1501933663328845,8,-3,3,-3,-2,0,15,-14
1501933663328845,-29,-2,-18,3,-1,-5,-24,-6
1501933663335860,20,-13,22,5,-2,1,51,63
1501933663335860,-32,-10,-27,-3,-6,-2,-6,-43
1501933663351822,18,-2,6,2,0,-2,-13,0
1501933663351822,2,-2,-17,-7,1,2,6,-19
1501933663353823,-43,-5,20,4,-1,-3,5,17
1501933663353823,2,1,-2,4,1,0,6,18
1501933663374826,-9,-7,2,3,0,1,-6,21
1501933663374826,-37,-18,-21,-7,-4,-2,-1,-4
1501933663375826,7,13,-3,7,4,3,0,-35
1501933663375826,-14,-4,13,13,1,-5,-22,-11
1501933663388885,0,-3,-11,-17,-11,-5,-6,-14
1501933663388885,9,0,-8,-1,2,1,15,83
1501933663395884,-8,-5,20,0,-2,-6,-34,-56
1501933663395884,50,-8,-29,5,1,-3,-8,-21
1501933663411827,-40,-15,-3,0,0,1,15,12
1501933663411827,10,13,14,-12,-3,1,16,-20
1501933663413816,-26,-7,-21,4,-1,-3,11,-19
1501933663413816,9,-2,10,-2,0,-2,-16,32
1501933663434862,23,-4,-9,-6,-3,-4,-7,-19
1501933663434862,6,6,6,0,-1,-2,-6,37
1501933663435830,19,-14,2,2,-3,-7,15,-24
1501933663435830,-16,12,6,-3,2,4,5,-13
1501933663448886,-36,-13,-14,-2,-3,-3,-6,-8
1501933663448886,16,1,-4,-1,-5,-6,-27,-33
1501933663455865,-30,0,-1,-2,-1,0,13,-11
1501933663455865,-6,1,5,-1,1,-1,-2,10
1501933663471853,11,10,18,1,-4,-1,14,27
1501933663471853,7,-17,-3,-8,-2,-3,-2,-24
1501933663473821,-1,5,-5,-2,0,-1,-15,-6
1501933663473821,8,-10,-16,-4,-6,-5,2,7
1501933663494821,6,7,30,8,6,1,-4,-7
1501933663494821,-10,2,-25,-3,2,3,35,-1
1501933663495822,15,8,8,-2,-3,-2,-21,11
1501933663495822,-7,1,0,3,3,3,4,2
1501933663507830,11,-5,0,-4,-5,-4,-4,-5
1501933663507830,-4,7,13,0,-1,0,-1,-35
1501933663516824,7,1,8,2,-1,0,0,8
1501933663516824,12,-3,-3,-4,0,-1,-7,-4
1501933663531856,-4,-3,-26,-4,0,0,0,3
1501933663531856,-28,1,19,5,5,2,-6,20
1501933663533826,-38,4,14,2,2,3,7,-22
1501933663533826,-1,-4,14,3,1,-2,-6,-4
1501933663554872,11,6,-29,-3,-2,-2,3,11
1501933663554872,-11,0,21,5,-2,-2,-3,-10
1501933663555835,10,-3,-8,-6,-4,0,4,4
1501933663555835,-9,0,6,-2,-2,-3,-4,16
1501933663567858,27,-6,1,-1,1,0,4,4
1501933663567858,44,-9,-19,-1,-4,-3,-10,-48
1501933663576859,5,7,13,2,0,1,9,9
1501933663576859,-79,-4,1,-4,-6,-4,-19,-13
1501933663591861,12,3,4,0,-1,0,6,-7
1501933663591861,-27,0,13,-2,1,1,-10,6
1501933663593840,-8,-3,-7,-1,-2,-1,14,6
1501933663593840,17,1,-6,3,4,4,17,8
1501933663614829,43,-7,6,4,-1,-3,-10,62
1501933663614829,-7,6,7,-4,-3,3,26,-3
1501933663615829,-1,6,-26,-2,-1,0,0,-3
1501933663615829,0,6,-2,-2,-3,-5,-1,-4
1501933663627864,9,-3,4,2,1,1,-1,1
1501933663627864,5,-8,-3,-1,-2,-2,0,-1
1501933663636835,8,-4,-1,-2,-1,-6,-10,5
1501933663636835,68,-2,4,-1,-2,-3,-8,-18
1501933663651863,-34,-8,-41,-8,-3,-1,-10,9
1501933663651863,0,2,8,-2,-3,-4,-8,-11
1501933663653832,-7,6,4,0,0,0,-7,-7
1501933663653832,-6,-3,-12,-3,-2,-2,-3,7
1501933663674876,2,6,21,7,3,3,30,-9
1501933663674876,21,-13,-33,-4,-2,-2,-7,2
1501933663675839,13,-5,31,3,-2,-2,-8,-14
1501933663675839,-6,6,-23,-6,0,2,3,22
1501933663687895,-14,5,9,5,3,-3,-21,-36
1501933663687895,-4,7,-6,-2,-2,-2,-12,29
1501933663696833,-8,-9,-4,-3,-3,-1,6,3
1501933663696833,0,-2,14,-1,-5,0,-2,-5
1501933663711855,-12,-5,7,-6,-2,0,15,-6
1501933663711855,-22,1,0,0,0,-2,-7,-48
1501933663713834,-6,0,-3,6,5,2,-9,6
1501933663713834,0,-4,-3,-2,-2,0,-5,-5
1501933663734845,-5,3,1,-3,-4,-2,-13,-4
1501933663734845,-4,-7,-4,-3,-1,-1,2,18
1501933663735836,11,1,-1,-1,0,-3,-5,26
1501933663735836,-3,-3,-12,-1,-1,-3,8,-26
1501933663747835,67,-12,-1,1,-3,2,2,-13
1501933663747835,-24,15,3,0,5,3,12,12
1501933663756874,-12,-1,15,-2,1,4,26,0
1501933663756874,5,-4,-19,-5,-2,-2,5,15
1501933663771841,-13,-5,-3,-8,-3,-5,-30,-5
1501933663771841,17,-5,7,-1,-5,-2,9,19
1501933663773838,17,9,-9,5,5,0,-17,3
1501933663773838,-12,11,18,1,-1,-3,-17,-9
1501933663794851,0,4,0,2,-1,-2,43,10
1501933663794851,14,-5,-16,-5,-4,-4,-8,-14
1501933663795843,-5,2,10,0,-1,-3,3,-1
1501933663795843,3,-6,3,1,0,4,14,8
1501933663807850,25,-5,-6,1,0,-6,-20,6
1501933663807850,-20,19,7,-3,-2,-2,-14,-23
1501933663816877,6,-6,-14,-6,-5,1,13,6
1501933663816877,-2,-1,5,2,1,-2,0,-17
1501933663831901,-53,-2,-19,-5,-3,-7,-19,-17
1501933663831901,20,-7,21,4,1,1,20,24
1501933663833853,6,-12,-24,-7,-4,-1,-19,-21
1501933663833853,-1,8,0,4,1,4,17,20
1501933663854884,-14,5,24,-3,0,1,-6,-6
1501933663854884,-8,-9,-15,-4,-5,-5,-13,-5
1501933663855845,7,-7,-1,-2,-2,-1,-3,0
1501933663855845,-9,-5,-1,-1,-5,-5,12,20
1501933663867879,-63,-11,8,3,0,4,1,-11
1501933663867879,41,-7,-15,-3,0,0,13,-4
1501933663876899,7,0,1,2,4,5,15,26
1501933663876899,-9,-8,-16,-8,-4,-6,-16,-42
1501933663891905,-3,11,19,4,1,-5,-20,1
1501933663891905,-3,5,-1,-3,-3,-3,-8,-17
1501933663893858,-15,-11,-15,2,1,-2,33,-9
1501933663893858,16,9,18,0,0,1,-17,15
1501933663914890,-25,0,-29,-7,-5,-2,7,-22
1501933663914890,15,5,23,8,5,4,11,14
1501933663915847,6,-3,-26,-7,-5,-6,-17,-5
1501933663915847,11,-8,-6,-3,-3,-2,-7,-13
1501933663927880,-7,-12,-13,-1,0,-3,-1,-16
1501933663927880,53,8,3,0,-3,1,7,26
1501933663936848,-7,2,-10,-2,-3,-1,-14,-21
1501933663936848,-24,-1,6,2,1,1,-22,21
1501933663951910,29,7,1,-1,-1,3,-13,-3
1501933663951910,1,-18,-9,-3,-1,-3,4,-19
1501933663953852,4,-1,0,-2,-4,-4,-18,-10
1501933663953852,60,3,0,3,0,-5,-4,-3
1501933663973852,-6,13,9,0,2,2,-1,-3
1501933663973852,-23,-2,9,7,2,1,8,23
1501933663981886,-3,-1,-32,-12,-4,1,-4,-6
1501933663981886,-11,0,5,-1,0,1,15,-8
1501933663996894,7,-10,-1,-4,-1,-2,12,14
1501933663996894,-69,-10,-8,-3,-4,-8,-24,-14
1501933663998862,12,7,15,7,0,0,-1,16
1501933663998862,0,-1,8,2,-2,1,-15,-1
1501933664011883,20,-7,-6,-6,-1,1,24,0
1501933664011883,-27,-2,-14,-3,-1,-3,-13,-12
1501933664018878,-13,-8,-1,-3,-1,-1,18,6
1501933664018878,-3,-2,-3,0,3,0,1,-18
1501933664034852,42,8,7,3,0,-2,25,11
1501933664034852,2,3,14,-4,1,4,-2,5
1501933664035854,-23,-2,4,-1,-3,-6,-30,-21
1501933664035854,1,-17,2,-3,-2,0,34,38
1501933664056897,37,10,-6,0,-1,3,7,1
1501933664056897,6,4,0,0,0,0,30,13
1501933664058856,7,2,7,-1,1,2,-12,0
1501933664058856,-36,2,-3,-1,-2,-2,12,1
1501933664071913,-65,-11,-6,0,-2,-7,-17,8
1501933664071913,-18,5,-3,1,2,5,6,6
1501933664073866,26,0,-1,0,1,-1,-4,7
1501933664073866,86,4,16,-3,-3,-1,-3,-11
1501933664094920,-33,-2,9,1,4,1,-1,1
1501933664094920,5,7,17,7,1,-2,-10,7
1501933664095891,-24,-12,-34,-12,-3,-1,15,-2
1501933664095891,-18,-6,6,5,-1,-1,-8,0
1501933664116858,10,15,0,0,4,6,9,-16
1501933664116858,14,-4,-26,-11,-2,-3,-20,-5
1501933664118857,6,8,17,4,-5,-1,11,2
1501933664118857,-89,-21,-35,-10,-5,-5,-4,-13
1501933664131884,5,11,10,5,1,0,1,17
1501933664131884,-22,-4,4,3,1,5,10,-38
1501933664137903,-9,-1,-2,-1,1,0,45,7
1501933664137903,-12,9,-2,-4,-2,-2,-29,1
1501933664154860,5,-10,-3,-3,-3,-8,-20,-21
1501933664154860,35,-8,-6,1,0,-5,2,-7
1501933664155860,-25,12,-9,-1,-1,-2,-11,9
1501933664155860,22,9,17,5,1,1,5,-11
1501933664176919,-7,-6,1,-1,-1,0,6,-8
1501933664176919,6,-3,-16,-6,-5,-6,-18,12
1501933664178878,11,3,23,4,2,0,-13,-9
1501933664178878,-19,3,8,2,3,2,14,3
1501933664191898,5,3,-11,-3,-2,0,-8,19
1501933664191898,-36,8,-24,-2,-1,2,6,21
1501933664197895,6,-11,4,4,3,2,-8,-24
1501933664197895,12,-4,-11,-8,-4,-6,-11,31
1501933664214909,6,-3,11,0,-1,-2,-2,-6
1501933664214909,0,-6,20,1,-1,-3,7,-18
1501933664215878,24,-13,-36,-7,-5,-4,-30,10
1501933664215878,-38,14,1,2,3,2,12,14
1501933664236876,52,1,-11,-4,-3,-2,-6,-9
1501933664236876,7,0,1,-2,-2,-6,1,21
1501933664238865,-18,4,13,0,-2,0,-8,-14
1501933664238865,1,-3,-10,0,-1,-1,-1,-7
1501933664251909,-17,-9,4,-1,-2,0,-22,-9
1501933664251909,-9,3,2,2,3,2,24,1
1501933664257902,-17,5,8,-3,2,-3,-7,-11
1501933664257902,8,-2,2,0,-1,3,22,-15
1501933664274905,-24,-3,-5,-3,-5,-7,-20,-5
1501933664274905,31,-15,-34,-2,-3,-2,-24,-7
1501933664275867,36,-1,4,0,0,0,21,-6
1501933664275867,1,0,1,-3,-2,-2,-25,-16
1501933664296934,-21,1,5,0,-1,-1,1,1
1501933664296934,-11,-3,13,-1,0,1,-7,11
1501933664298885,-4,-7,12,4,0,6,36,22
1501933664298885,15,-2,-10,0,-1,0,-1,5
1501933664311908,32,5,7,3,0,1,10,21
1501933664311908,-5,3,2,3,0,2,14,-1
1501933664317932,-55,1,2,-2,-2,-3,-10,-29
1501933664317932,43,-4,-20,-7,-3,-1,-22,23
1501933664334911,-46,-9,-9,-2,1,6,25,77
1501933664334911,7,2,9,-1,-5,-6,-7,-71
1501933664335871,49,9,14,-2,-5,-7,-21,-112
1501933664335871,-84,-21,-19,-6,-4,-5,10,60
1501933664356906,1,-10,-21,-7,-4,2,-18,52
1501933664356906,1,2,-7,-2,3,0,18,20
1501933664358881,1,-2,0,2,-1,3,23,74
1501933664358881,62,9,15,-2,-4,-7,9,-51
1501933664371893,-42,8,3,0,0,-1,-30,-90
1501933664371893,47,-2,3,-3,0,2,-23,67
1501933664377878,43,2,-1,5,2,0,-5,13
1501933664377878,-80,-14,-2,-4,-4,-5,-44,-78
1501933664394880,9,1,-3,0,0,-2,3,-17
1501933664394880,-44,11,38,4,-2,1,-9,-35
1501933664400883,-51,0,-22,-6,-2,-1,-36,24
1501933664400883,27,-7,8,7,4,10,60,43
1501933664417883,57,20,-7,0,-1,4,43,-17
1501933664417883,-15,-5,-12,-2,-2,-7,-49,-22
1501933664418875,30,-4,-1,-5,-3,1,81,-22
1501933664418875,3,-2,-2,-2,-3,-10,19,81
1501933664431909,55,-26,-9,-3,-4,-4,6,1
1501933664431909,-24,15,5,-5,-4,-11,-31,-42
1501933664437886,-69,-4,6,3,1,3,-3,68
1501933664437886,23,11,-3,3,1,5,-29,-23
1501933664454915,-60,-4,6,-1,-1,-1,44,18
1501933664454915,67,-1,-14,-3,-6,-6,-17,-32
1501933664455879,-36,-6,1,-3,-2,-6,13,46
1501933664455879,6,12,32,4,-2,-4,-60,-69
1501933664476879,-10,-9,-38,-10,-5,-3,2,-43
1501933664476879,-27,1,16,5,5,8,78,-45
1501933664478881,-14,2,-16,2,2,4,3,3
1501933664478881,60,10,-16,-3,3,4,19,-21
1501933664490886,-27,-3,10,1,-2,-1,-11,12
1501933664490886,42,-2,-9,1,2,2,24,6
1501933664499884,27,4,16,-4,-2,-1,-13,-8
1501933664499884,17,-6,0,-2,-3,-7,-9,13
1501933664514913,-4,-1,1,4,1,3,-10,13
1501933664514913,-54,-4,-8,-1,1,-6,-21,120
1501933664515881,3,5,19,7,8,15,-25,-39
1501933664515881,6,-12,-18,-7,-4,-1,18,32
1501933664537879,-15,4,13,0,0,-2,-21,-19
1501933664537879,-50,-3,-8,-2,2,9,19,45
1501933664538883,-12,7,17,5,-3,-5,-5,-2
1501933664538883,-66,-3,-19,-1,4,5,66,31
1501933664550922,22,0,-8,1,3,5,16,-4
1501933664550922,4,-11,-3,-5,-5,-5,-45,-16
1501933664559894,-21,-4,10,3,-1,-4,2,78
1501933664559894,-24,-6,4,-4,0,0,-25,53
1501933664574916,-36,18,7,1,0,-1,18,-70
1501933664574916,-11,-1,25,-2,2,7,1,-17
1501933664575886,9,-2,4,1,-2,-4,22,-2
1501933664575886,8,-12,-9,0,-3,-5,-8,-32
1501933664596932,28,18,14,3,2,-1,-9,-26
1501933664596932,-15,-7,-12,-1,-3,-5,-19,-5
1501933664598897,22,-5,2,3,2,3,25,-27
1501933664598897,3,-2,-3,-3,-2,0,1,7
1501933664610935,33,-6,-8,-5,-1,-2,-9,29
1501933664610935,-8,0,-11,-2,-3,-4,-3,-40
1501933664619923,20,-5,-10,-3,-4,-4,-25,21
1501933664619923,-24,18,4,1,0,-3,-10,11
1501933664634949,3,-7,2,-2,-2,2,-46,-23
1501933664634949,14,0,1,-3,0,4,5,32
1501933664635888,-27,-8,-20,-6,-4,1,4,5
1501933664635888,-70,13,15,5,4,3,-29,-56
1501933664656889,-36,3,9,4,-3,-2,1,1
1501933664656889,-7,-2,-10,-5,0,-3,-11,2
1501933664658891,-18,-3,-4,-2,-3,-8,-33,-26
1501933664658891,19,-8,-8,0,0,-1,3,13
1501933664670933,7,-3,3,0,0,-4,-28,-26
1501933664670933,-35,-1,-1,3,0,3,10,-10
1501933664679905,16,-11,-14,-10,-6,-11,-46,2
1501933664679905,9,2,16,4,0,6,13,-27
1501933664694892,-48,-2,-7,-7,-7,-11,0,10
1501933664694892,68,5,-20,-2,-2,4,42,22
1501933664696894,17,11,9,-4,-3,-4,-51,-103
1501933664696894,-22,4,5,-1,-2,-2,-1,1
1501933664716905,20,-24,0,-1,-2,-3,5,66
1501933664716905,-31,-8,-19,-6,-4,-2,-17,8
1501933664718895,-21,10,2,1,3,-1,-1,-6
1501933664718895,12,-1,-10,-3,0,0,-16,10
1501933664730956,12,4,7,2,-1,-3,6,-2
1501933664730956,15,-3,15,2,-4,-5,-2,-8
1501933664739913,26,-6,0,-1,0,-1,7,-4
1501933664739913,2,-5,-2,-4,-2,-3,-12,-6
1501933664754956,-19,1,-8,-5,-2,-1,5,4
1501933664754956,-4,-2,4,1,0,-5,-31,-28
1501933664755894,-26,13,-6,-1,1,0,10,38
1501933664755894,-20,-11,-5,0,0,2,33,35
1501933664776928,57,10,0,-4,-1,-3,-47,-3
1501933664776928,-10,12,18,7,2,3,26,2
1501933664778896,3,-19,-21,-9,-5,-6,2,-18
1501933664778896,-3,1,1,1,2,2,24,-21
1501933664790929,13,-7,-3,-2,1,0,10,46
1501933664790929,2,0,3,-6,-6,-6,-36,-4
1501933664799908,7,-1,-1,0,0,-1,-13,24
1501933664799908,23,1,0,-1,2,2,0,-23
1501933664814946,-28,-4,-8,-1,-2,-1,5,-5
1501933664814946,18,-1,36,1,2,5,27,-20
1501933664815899,-14,-3,-20,2,3,1,-1,-22
1501933664815899,18,-4,-5,-4,-2,1,13,-8
1501933664836967,-65,10,-6,-1,1,0,5,-1
1501933664836967,-9,0,2,0,-2,-2,14,7
1501933664838900,8,0,5,1,-1,1,5,-8
1501933664838900,-3,1,0,0,-2,-4,-30,17
1501933664850910,10,-8,0,1,1,2,24,-20
1501933664850910,7,-5,-15,-2,0,1,4,2
1501933664859905,-9,0,4,-2,-3,-2,7,-4
1501933664859905,9,0,-3,1,0,-1,-11,-7
1501933664874911,2,-3,7,-1,0,1,-31,21
1501933664874911,8,-3,-7,-1,-2,-5,-12,10
1501933664875912,15,1,1,3,-1,0,10,7
1501933664875912,-20,2,5,0,2,3,-18,-15
1501933664896944,9,-3,0,0,-2,-3,-5,-6
1501933664896944,-17,-3,-7,-1,-1,0,4,-4
1501933664898903,23,3,1,-1,-2,-5,-33,10
1501933664898903,11,-1,-2,-4,-6,-3,40,16
1501933664919936,-5,-1,1,3,0,0,4,-17
1501933664919936,1,-2,-8,-4,-1,1,6,-5
1501933664920906,-9,-4,2,1,1,0,5,-5
1501933664920906,4,0,-1,-4,-2,-4,-18,-21
1501933664934945,8,-2,-1,-2,-1,0,10,-11
1501933664934945,0,-2,-6,-3,0,-1,5,0
1501933664935906,-4,-3,-1,-2,-5,0,0,-9
1501933664935906,-2,0,1,-1,-1,-2,-7,-9
1501933664956922,-2,-2,0,0,0,-5,9,9
1501933664956922,-2,-1,-2,0,2,7,-1,-1
1501933664958909,-7,-1,2,-4,-3,-2,1,-7
1501933664958909,2,0,-1,0,-2,-4,-7,-8
1501933664979940,1,-1,-2,-1,0,0,7,1
1501933664979940,1,-2,-3,1,-3,-1,-2,-2
1501933664980909,-1,0,-1,-3,1,0,4,-3
1501933664980909,1,0,2,2,-2,0,-4,-5
1501933664994921,3,0,0,-1,-2,-1,2,-1
1501933664994921,-4,0,-5,0,1,-2,1,-4
1501933664995910,-2,-1,-2,-4,-3,2,3,0
1501933664995910,0,0,1,1,0,-2,-7,-2
1501933665016910,-2,-1,0,5,0,2,0,-2
1501933665016910,1,-2,-4,-12,-5,-4,-1,0
1501933665018919,-1,-2,1,2,1,4,0,-1
1501933665018919,3,1,1,-1,-2,-6,-6,-3
1501933665040923,0,-2,0,2,0,3,4,1
1501933665040923,-1,2,1,4,3,4,2,0
1501933665042912,-2,0,5,-3,1,0,-1,-2
1501933665042912,-3,-3,-15,4,0,-4,-3,6
1501933665052958,-2,-3,0,-18,-6,0,5,-1
1501933665052958,-1,-3,-1,5,-1,-5,-3,-3
1501933665061939,-4,-3,-10,-12,-2,0,0,-4
1501933665061939,2,1,8,8,-2,1,6,-12
1501933665076955,-1,-1,-10,-11,-3,-1,-1,0
1501933665076955,-1,-1,2,1,1,-2,-2,-1
1501933665078928,-2,0,1,-7,-3,-3,1,-3
1501933665078928,-1,-2,-2,-5,1,-2,-7,-3
1501933665099947,-1,-1,-2,0,0,-1,-1,-1
1501933665099947,-6,0,3,-1,1,3,4,-1
1501933665100915,17,-2,-2,3,-1,0,2,2
1501933665100915,-18,1,1,-4,-1,0,1,-4
1501933665112916,1,2,5,3,0,-4,-6,-1
1501933665112916,7,1,-9,6,0,4,-1,5
1501933665121932,-31,-9,-5,-4,-3,-1,13,-7
1501933665121932,2,-4,1,-3,-3,-6,-2,1
1501933665136959,6,4,0,4,1,1,1,0
1501933665136959,-2,-1,-3,31,3,0,-4,-1
1501933665138919,3,4,3,-48,-1,0,-5,0
1501933665138919,7,-2,-19,-47,-1,4,6,6
1501933665159942,-9,-2,7,41,1,-3,-10,-10
1501933665159942,1,-2,3,-9,-4,-3,-2,-10
1501933665160919,3,-2,-8,-31,3,-4,-4,3
1501933665160919,-2,-2,1,-89,-16,-4,10,2
1501933665172959,4,-1,-4,-16,0,9,-4,6
1501933665172959,-3,-3,-17,30,2,4,1,-4
1501933665181938,-2,0,-2,42,-9,-1,-8,8
1501933665181938,-2,1,-2,5,6,1,-7,-13
1501933665196962,-4,-5,-4,-17,0,-3,-1,0
1501933665196962,0,2,13,-21,-4,-3,-4,4
1501933665198921,-2,2,19,23,9,2,-5,-10
1501933665198921,5,2,9,108,5,1,1,2
1501933665219920,-2,-6,-13,-86,-12,-5,12,4
1501933665219920,-3,3,25,61,3,-3,4,-3
1501933665220921,3,0,-8,52,7,-1,-14,5
1501933665220921,-1,2,16,-60,-16,-3,13,2
1501933665232984,-1,0,-14,-23,2,0,-9,-9
1501933665232984,-5,-7,-12,-36,-10,-2,5,1
1501933665247986,-3,0,2,18,0,-8,-15,-2
1501933665247986,0,-2,7,30,7,2,-27,-4
1501933665256957,-1,-1,-6,17,3,7,34,7
1501933665256957,1,-1,-9,-21,-6,-3,3,2
1501933665258938,1,0,4,38,11,4,4,-4
1501933665258938,0,-3,-14,3,-17,-3,-11,0
1501933665279953,-1,1,26,57,7,-7,-8,-2
1501933665279953,0,-1,4,-69,-8,-3,-7,2
1501933665280927,-3,-1,-22,61,0,2,10,-6
1501933665280927,3,-1,0,-56,4,-3,2,-3
1501933665292935,17,0,-1,22,-3,4,-6,5
1501933665292935,-30,3,-8,-22,-10,-1,2,-10
1501933665301925,3,-2,-6,-21,7,0,-1,0
1501933665301925,-9,-2,4,28,7,-2,2,-13
1501933665316940,2,1,9,112,1,-3,-13,-1
1501933665316940,7,-2,-20,-75,-19,1,-1,7
1501933665318928,-1,-2,2,-28,-10,1,6,1
1501933665318928,-4,-1,-3,17,13,2,-3,0
1501933665339967,-6,-2,2,34,10,2,-1,0
1501933665339967,5,1,3,24,12,1,-3,-3
1501933665340931,-5,-1,5,-21,-5,-6,2,2
1501933665340931,15,-1,-2,18,0,3,-6,6
1501933665352968,-35,-3,0,-42,-9,-2,8,-2
1501933665352968,1,-4,-9,7,-2,-5,-5,0
