timestamp,emg1,emg2,emg3,emg4,emg5,emg6,emg7,emg8
1501932360471306,69,14,3,5,2,-9,-23,-3
1501932360471306,21,9,-3,-1,-1,8,-20,11
1501932360472307,2,-3,0,22,2,-1,-45,22
1501932360472307,-6,5,-1,4,1,0,-6,-29
1501932360473310,3,-8,-7,-44,-13,12,33,63
1501932360473310,-9,1,0,-20,1,-7,-20,0
1501932360476305,-29,-1,9,11,5,3,-19,13
1501932360476305,-9,-2,-26,-14,-7,-3,7,27
1501932360483349,-60,-12,18,13,-3,-7,-81,32
1501932360483349,71,8,-30,-24,-7,-9,-38,-38
1501932360492340,-75,-7,2,-1,5,10,71,26
1501932360492340,9,-6,-12,10,1,-6,39,-62
1501932360498377,-85,-2,1,2,2,0,55,40
1501932360498377,12,-23,2,10,-2,7,47,6
1501932360513351,20,21,10,-7,-2,-5,-55,-41
1501932360513351,-4,10,-6,1,5,5,-17,-18
1501932360521327,-5,-15,-5,23,2,-10,-27,-42
1501932360521327,15,-2,-2,-16,-2,-2,6,-28
1501932360536337,6,-14,4,-9,-3,-11,-6,35
1501932360536337,-7,14,29,4,-2,6,-58,-37
1501932360544336,71,20,-16,-4,4,-5,-51,-82
1501932360544336,-61,-7,-36,16,1,6,86,47
1501932360558333,11,-13,-12,-21,-2,1,84,-2
1501932360558333,-9,-4,2,46,4,-8,-38,42
1501932360599314,4,1,6,6,2,-4,-23,-19
1501932360599314,-35,2,10,24,6,9,-6,-12
1501932360599314,-3,-3,-8,-3,2,3,13,41
1501932360599314,21,5,-7,0,-1,0,0,7
1501932360600313,-18,-7,0,-3,-3,-3,-14,-51
1501932360600313,6,-6,1,-4,-4,-5,5,27
1501932360603324,7,5,-3,13,2,3,53,22
1501932360603324,10,3,-18,-17,-4,-2,16,-2
1501932360611355,75,1,-7,4,0,-9,-53,5
1501932360611355,-7,-3,-1,-1,2,8,27,-10
1501932360618323,10,-5,12,-4,-5,0,-8,42
1501932360618323,-12,8,-11,-1,2,-3,-40,-35
1501932360625357,-66,-2,-15,-1,-1,-5,-8,29
1501932360625357,-5,-1,-4,7,0,1,66,-2
1501932360640358,-5,11,1,-14,2,-3,-17,-20
1501932360640358,62,-20,16,9,1,9,49,51
1501932360648330,19,22,3,23,2,5,-34,-37
1501932360648330,-2,-6,-17,-53,-10,4,51,6
1501932360671382,2,2,6,4,6,9,21,-42
1501932360671382,-4,-6,14,-5,-8,-6,-51,25
1501932360672360,-24,-3,-8,6,8,19,71,59
1501932360672360,33,3,6,8,-5,-8,-29,-51
1501932360686366,11,-4,-3,1,4,-4,-15,-17
1501932360686366,-25,-14,-10,-1,-5,-5,-21,10
1501932360686366,49,13,0,-17,-4,-3,4,31
1501932360686366,-28,0,19,10,0,-9,-39,-73
1501932360708384,-32,-4,-23,2,-5,-1,-22,-14
1501932360708384,-20,22,13,20,9,1,-19,-62
1501932360709354,-13,-10,1,-13,-13,-13,-34,-10
1501932360709354,-32,4,8,-12,-3,2,33,53
1501932360731362,-7,1,18,2,-5,-10,-83,-27
1501932360731362,-8,-4,-25,-1,-1,11,93,-13
1501932360732329,25,-15,5,2,-1,0,26,50
1501932360732329,21,3,-9,8,1,-4,-61,-13
1501932360746397,47,-3,10,11,-1,12,99,-17
1501932360746397,-33,-5,-13,-18,-7,-17,-69,-47
1501932360746397,26,-5,3,-5,3,15,-6,6
1501932360746397,11,-9,-20,-7,-5,-2,-13,27
1501932360768388,6,6,1,-9,-5,-11,-67,3
1501932360768388,32,-17,21,12,1,1,8,-13
1501932360769325,-24,3,-15,2,-2,-4,-2,-60
1501932360769325,13,-4,1,3,-6,-20,-88,24
1501932360791364,-22,7,19,7,2,1,-2,-18
1501932360791364,-7,8,-23,-1,2,4,-3,16
1501932360792366,-27,-9,5,-9,-5,-14,-55,-20
1501932360792366,11,4,-2,12,3,4,16,10
1501932360806372,-7,-9,-13,3,1,0,53,69
1501932360806372,-9,7,5,-27,-12,-1,-4,28
1501932360806372,72,10,12,-5,1,8,53,-52
1501932360806372,-42,4,-14,-3,1,-12,-6,57
1501932360828370,10,-18,0,17,2,-2,12,7
1501932360828370,16,13,-2,-2,-3,1,68,6
1501932360829334,-12,-5,-6,-5,0,-2,14,-24
1501932360829334,28,-4,13,5,3,0,-24,8
1501932360851369,-17,-7,-35,-9,-2,7,43,3
1501932360851369,0,3,31,32,6,-2,-36,7
1501932360852344,-20,-1,13,-16,-2,-7,0,7
1501932360852344,8,-11,-11,-8,-5,0,43,-10
1501932360866378,-4,1,-12,-9,-3,-8,-37,0
1501932360866378,4,-2,4,-3,2,9,-9,8
1501932360866378,-23,-1,-4,17,2,5,84,4
1501932360866378,-10,-3,8,5,3,7,-28,-27
1501932360888370,-8,8,8,-5,-2,-3,-25,-19
1501932360888370,-6,-1,4,25,3,-7,0,-36
1501932360889333,-2,-6,-7,-18,-5,-5,-29,22
1501932360889333,-7,3,2,-10,-4,1,10,9
1501932360911366,4,0,5,4,0,0,-28,-5
1501932360911366,-5,-8,-6,-18,-2,-6,-32,-3
1501932360912332,-35,0,8,27,8,4,11,-15
1501932360912332,-2,-1,-9,4,-1,4,14,-11
1501932360926359,-15,-7,-1,-13,-5,-7,-51,-19
1501932360926359,-46,-7,-2,10,2,-12,-27,33
1501932360927332,47,15,12,-1,-2,0,-25,9
1501932360927332,2,-1,-19,13,5,0,2,-23
1501932360948335,-8,-14,-11,-29,-16,-4,-18,11
1501932360948335,-5,-3,8,-5,1,1,-13,-2
1501932360949346,-22,-1,-4,-3,-3,-8,-44,7
1501932360949346,-6,11,28,12,7,11,40,10
1501932360971372,-18,7,3,-3,-1,-2,16,20
1501932360971372,1,-6,0,14,-1,2,12,-55
1501932360972347,-52,-11,-9,-39,-11,-4,-49,-2
1501932360972347,-5,-7,-24,-14,-5,-11,-25,-42
1501932360985377,-1,-1,-3,2,1,-2,15,32
1501932360985377,-18,5,5,9,1,-1,0,-46
1501932360993380,18,-19,-7,8,0,3,28,28
1501932360993380,13,6,15,-3,-4,-7,-27,6
1501932361008345,-14,-3,-2,8,3,4,2,-22
1501932361008345,-4,2,-8,2,4,8,52,72
1501932361009349,18,1,-7,-3,0,-2,39,-11
1501932361009349,15,-3,5,-23,-7,3,4,23
1501932361031381,0,0,3,-3,-2,-1,18,-8
1501932361031381,17,-1,2,1,1,-3,-3,19
1501932361032357,-53,-20,-40,8,-6,-5,-2,-36
1501932361032357,0,-4,-3,-7,2,6,13,11
1501932361045380,20,11,8,17,7,6,12,-9
1501932361045380,21,2,-9,-14,-6,-2,-6,1
1501932361053387,3,6,12,18,1,-4,4,44
1501932361053387,-27,3,-2,-28,-6,-5,-29,-51
1501932361068380,-3,-5,-7,-5,2,1,-16,-36
1501932361068380,4,7,11,-3,-2,0,10,11
1501932361069341,8,-3,9,3,-1,-4,-41,0
1501932361069341,-3,-8,-12,-1,-5,-8,-39,0
1501932361091385,25,1,2,-11,-3,-3,12,30
1501932361091385,-3,3,0,-9,-5,0,-2,-46
1501932361092356,-12,3,-7,14,5,-2,-3,-11
1501932361092356,6,-1,9,-11,4,9,65,0
1501932361105383,-9,-2,-2,0,-7,-6,-11,-45
1501932361105383,-8,-8,-9,-3,0,-4,35,15
1501932361113383,32,0,8,5,2,4,0,16
1501932361113383,5,4,1,12,3,-1,-2,-10
1501932361128364,-36,-7,-2,-2,3,-1,-21,30
1501932361128364,37,2,12,-2,2,1,14,1
1501932361129345,-14,8,-3,-4,-3,-3,-27,4
1501932361129345,12,-3,-5,0,-2,4,55,1
1501932361151394,8,-7,7,3,0,1,30,29
1501932361151394,-20,-2,-6,-2,0,-3,-37,-25
1501932361152353,-28,-1,12,-6,1,1,9,-13
1501932361152353,12,8,-3,9,3,8,-12,29
1501932361165387,54,6,3,4,0,-3,-27,-34
1501932361165387,-8,3,2,0,4,5,-9,26
1501932361173392,15,-6,-7,-3,-3,-5,31,4
1501932361173392,0,5,-3,2,-3,-5,-24,7
1501932361188386,7,-1,5,-1,0,-2,-5,-6
1501932361188386,-41,-9,-13,-8,-4,-2,0,64
1501932361189356,14,10,14,6,2,10,34,10
1501932361189356,-6,-6,7,15,-1,-4,-37,-59
1501932361211390,-15,3,-6,-5,-1,-2,50,-14
1501932361211390,1,-3,-2,-3,-5,-2,8,1
1501932361212356,-13,-2,-4,-6,-3,-3,2,11
1501932361212356,-9,-5,-12,-3,0,2,3,17
1501932361225363,-14,2,7,19,0,0,-14,8
1501932361225363,7,-4,-13,-27,0,9,-8,-3
1501932361233392,-17,0,2,-5,2,-2,35,-17
1501932361233392,13,1,5,7,-4,-12,-39,0
1501932361248414,10,3,-15,-8,-2,-2,-17,-29
1501932361248414,-3,-2,-6,-2,-1,-3,-11,-3
1501932361249384,14,-7,-3,-12,-7,-10,-47,-19
1501932361249384,-9,-5,2,4,-1,0,35,-7
1501932361271352,-20,-3,2,6,0,-4,7,19
1501932361271352,12,1,16,32,5,-1,1,-4
1501932361272356,-31,-11,-19,-38,-10,3,13,20
1501932361272356,33,5,2,-19,-4,-2,-14,39
1501932361285364,-59,-2,-8,-13,-9,-5,-8,-35
1501932361285364,-2,9,6,0,0,-3,21,-18
1501932361293386,-4,3,5,15,5,4,4,-24
1501932361293386,-19,1,0,8,4,0,-4,11
1501932361308394,13,-7,1,-2,0,0,-10,-5
1501932361308394,16,-7,-3,-9,-5,-4,-11,3
1501932361309367,0,-2,-2,8,2,3,0,11
1501932361309367,-14,3,-6,-1,-2,-3,12,-10
1501932361331396,20,7,10,15,6,4,-7,-7
1501932361331396,-14,2,-4,-12,0,-2,-6,-10
1501932361332365,15,-4,-25,-17,-5,-6,-9,-6
1501932361332365,4,2,11,10,-2,1,-8,19
1501932361345419,5,-1,0,-6,1,0,-9,-22
1501932361345419,-5,-3,3,5,5,1,-1,-8
1501932361353422,-16,-12,-6,31,-5,-3,4,4
1501932361353422,6,-2,-12,-30,-10,-5,12,-27
1501932361368396,17,-7,-14,9,2,-3,11,18
1501932361368396,-7,7,18,11,4,4,5,9
1501932361369369,16,10,-4,30,8,3,-8,7
1501932361369369,-24,-9,-33,-32,-7,-5,7,-2
1501932361391402,-8,-6,16,3,-4,2,10,3
1501932361391402,16,-4,-12,2,2,-4,-18,-36
1501932361392368,-57,8,23,13,0,-3,-4,17
1501932361392368,42,-1,26,25,11,9,6,-1
1501932361414367,4,-10,-47,-25,-2,-2,7,4
1501932361414367,0,-4,-7,13,-7,-6,-6,34
1501932361415363,-11,1,16,-16,-4,-6,-88,-43
1501932361415363,-21,-1,3,-13,-5,-3,17,-6
1501932361428434,13,1,-7,8,2,1,14,25
1501932361428434,-3,2,-7,-26,-8,-8,-19,-53
1501932361429363,21,10,-3,-10,-2,-3,0,4
1501932361429363,-23,-17,-17,13,4,-5,-16,16
1501932361451429,2,-5,-2,2,2,3,-13,-20
1501932361451429,-7,-11,-7,8,0,2,7,-4
1501932361452375,7,-5,6,-10,1,1,7,-21
1501932361452375,0,12,6,5,4,-1,-3,-14
1501932361474396,-13,2,10,21,-4,-8,-18,23
1501932361474396,5,1,1,-12,-2,6,13,1
1501932361475394,5,-6,-9,-39,1,5,44,4
1501932361475394,11,-3,1,16,3,-3,-9,-16
1501932361488405,-6,1,14,-32,-11,-9,-35,33
1501932361488405,41,10,7,2,-2,9,6,0
1501932361489377,10,-4,-9,8,0,0,-4,-15
1501932361489377,-12,-3,1,39,6,3,4,29
1501932361511436,-3,-3,-16,-68,-5,-2,-2,5
1501932361511436,-20,-6,-1,-12,-7,-10,-46,-12
1501932361512381,-2,0,6,3,2,3,38,25
1501932361512381,2,-2,-2,4,1,1,6,-6
1501932361534430,-20,-7,-10,19,-2,-2,35,17
1501932361534430,16,-1,21,8,4,0,10,33
1501932361535368,37,4,-36,18,-3,4,-27,-34
1501932361535368,-14,3,-14,5,-6,-9,-8,-28
1501932361548433,22,4,7,-27,-6,2,-17,-7
1501932361548433,18,0,-1,-12,-1,-5,28,13
1501932361549381,-14,-1,4,5,0,-5,-2,27
1501932361549381,28,-5,18,-12,-2,6,10,9
1501932361570418,2,5,4,23,4,3,16,-13
1501932361570418,-7,-6,-9,11,-4,-2,0,18
1501932361579404,1,-1,4,-26,-3,-4,3,-13
1501932361579404,-5,-1,-4,11,2,1,-8,2
1501932361601371,2,1,16,9,4,0,-3,-10
1501932361601371,-18,1,-4,24,-3,-5,-14,25
1501932361603372,-20,-2,-7,-46,0,2,2,11
1501932361603372,-19,-2,-13,32,-4,-3,-22,9
1501932361616410,2,-3,-1,-18,0,2,7,6
1501932361616410,-18,-5,-7,-6,-3,-5,-25,-41
1501932361618384,3,-2,7,15,1,0,-8,18
1501932361618384,1,5,8,-23,1,2,10,-5
1501932361630410,-6,-3,11,16,3,-1,5,16
1501932361630410,10,2,-14,-8,-4,-1,10,23
1501932361639397,-45,-11,17,19,0,1,15,-54
1501932361639397,21,6,1,-10,-2,-4,-11,18
1501932361654445,-1,2,-1,15,-3,-2,-19,-29
1501932361654445,11,-2,5,-6,3,3,16,10
1501932361655387,-7,-1,2,-4,-2,-2,2,8
1501932361655387,-20,-7,-5,-13,-6,-1,-4,-9
1501932361676384,13,3,-1,-3,4,2,-32,-8
1501932361676384,-4,1,8,8,0,1,9,-12
1501932361678394,31,6,-22,-27,-4,-3,-12,1
1501932361678394,-31,-7,-9,5,-1,-1,-5,-3
1501932361690419,-20,-1,5,3,-5,-11,-48,-7
1501932361690419,16,-8,-4,-28,-4,-3,9,7
1501932361699388,12,0,-17,14,-5,-1,7,-21
1501932361699388,15,1,2,-39,-2,1,12,-14
1501932361714378,-3,-7,-14,2,-4,-6,-6,-14
1501932361714378,-25,-9,4,4,3,0,0,13
1501932361715378,-3,-15,2,6,-4,-6,2,-13
1501932361715378,66,0,8,-2,-2,5,23,23
1501932361736421,-11,5,7,10,2,3,12,-24
1501932361736421,-21,3,1,1,-1,-1,8,10
1501932361738381,12,-3,-5,0,-3,-2,-9,21
1501932361738381,-55,13,-3,4,2,-1,-10,-14
1501932361750422,11,5,-3,-6,1,0,18,0
1501932361750422,-3,7,-1,2,-5,0,16,-5
1501932361759392,11,-4,8,8,1,-4,-19,-23
1501932361759392,20,7,10,8,3,0,5,20
1501932361774450,-4,-6,0,-4,-4,3,22,-11
1501932361774450,-4,6,-7,-13,2,3,-16,-10
1501932361775388,2,7,10,14,-1,-3,-1,9
1501932361775388,-15,-9,-9,-11,-2,-9,-4,-11
1501932361796428,-34,2,18,7,4,1,6,22
1501932361796428,-15,-3,-22,19,4,1,-1,-14
1501932361798382,26,7,11,-1,-5,-3,-10,11
1501932361798382,-9,-8,-36,-65,-15,-2,5,14
1501932361810416,101,0,-10,7,-1,-3,4,-5
1501932361810416,8,2,9,-8,3,0,-1,-11
1501932361819387,-14,6,30,45,7,2,9,13
1501932361819387,-5,8,-11,8,3,2,-2,60
1501932361834400,-38,-18,-11,-23,-9,-6,-18,-54
1501932361834400,3,0,3,45,3,0,-9,-36
1501932361835384,15,1,-18,-52,-6,3,9,-24
1501932361835384,-34,-8,13,15,4,1,-6,-3
1501932361856454,-26,3,6,27,5,5,14,39
1501932361856454,-16,-3,6,-9,2,0,-4,8
1501932361858387,-31,-5,-15,7,0,-1,-6,-3
1501932361858387,0,-20,-2,7,-2,-3,12,-8
1501932361870451,-18,8,-9,-11,1,3,-14,-24
1501932361870451,10,-4,10,3,0,0,6,11
1501932361879394,-2,-6,11,27,3,-1,3,19
1501932361879394,-31,-6,-29,-58,-9,-10,-29,17
1501932361894430,83,-9,-6,16,-6,1,0,-27
1501932361894430,-12,0,0,-26,2,0,15,-6
1501932361895396,21,-6,-1,17,1,2,2,-18
1501932361895396,13,9,9,10,3,0,-7,-22
1501932361916457,-8,6,5,-7,1,-1,6,11
1501932361916457,-8,-8,-5,18,-6,-7,-14,0
1501932361918389,-2,7,-1,-9,0,0,-4,25
1501932361918389,10,-11,7,-4,-2,1,4,-5
1501932361939390,5,-3,0,-7,3,0,-1,32
1501932361939390,24,-3,-4,-18,-2,-3,-14,-32
1501932361940389,-73,-9,-2,15,2,-7,-2,10
1501932361940389,-12,-2,5,16,-1,-1,-6,-19
1501932361954463,-5,3,3,-6,1,3,25,19
1501932361954463,-16,0,-3,4,-1,-1,-8,6
1501932361955396,16,1,-2,-12,-3,2,10,-2
1501932361955396,21,3,6,-4,0,-5,-31,-11
1501932361976463,-5,-4,-15,-1,-1,-2,36,18
1501932361976463,-23,-11,-7,7,-2,0,-4,-18
1501932361978396,7,8,-4,-24,3,3,10,-41
1501932361978396,21,4,17,22,6,6,-2,8
1501932361999436,26,-3,5,8,2,0,-4,-6
1501932361999436,-7,-2,-17,3,-9,-2,3,-1
1501932362000394,-4,1,3,-16,-5,-2,-3,24
1501932362000394,3,1,6,18,1,-3,-5,-10
1501932362014461,-8,-2,1,1,-3,-4,-9,-27
1501932362014461,-13,-1,-8,-20,0,-1,20,-8
1501932362015395,8,-2,1,-5,1,0,-3,14
1501932362015395,-2,-1,7,27,-1,-1,5,-8
1501932362036439,-16,-5,-9,9,-1,-3,-13,-31
1501932362036439,-17,1,-5,-32,-11,-1,-13,17
1501932362038398,-17,0,3,-4,0,-5,-25,-1
1501932362038398,3,-10,-8,-11,0,-3,8,-11
1501932362059439,-22,4,8,21,0,1,-1,5
1501932362059439,27,-17,-15,5,4,-3,-1,-25
1501932362060398,34,6,2,1,-1,3,-2,17
1501932362060398,-32,6,2,5,2,0,8,7
1501932362073462,-4,3,2,-5,-2,-2,-4,-6
1501932362073462,0,-2,-11,-4,-2,-8,-27,-26
1501932362080438,-17,-3,-3,2,1,4,13,11
1501932362080438,11,-13,11,9,3,0,-6,-33
1501932362096463,-35,0,-1,-11,-1,1,25,23
1501932362096463,41,14,0,1,1,3,17,32
1501932362098461,-10,5,7,-15,-2,-5,6,-18
1501932362098461,-7,-4,-3,1,0,-2,-19,-30
1501932362119469,-21,-3,-7,-19,-3,0,-1,5
1501932362119469,44,0,8,5,-1,2,5,14
1501932362120402,-5,-2,8,18,2,1,10,-3
1501932362120402,22,-4,6,-18,1,2,8,4
1501932362133442,-8,3,-13,7,-5,-6,-28,-1
1501932362133442,-26,8,17,15,-1,2,11,47
1501932362140474,13,-11,0,-8,-5,-3,-15,-30
1501932362140474,8,2,-2,-10,-2,-2,-1,-10
1501932362156470,-37,-8,-2,18,-2,0,-15,23
1501932362156470,-34,7,-10,-18,0,1,1,3
1501932362158403,-4,-9,0,14,-1,-3,-6,-14
1501932362158403,-5,3,-2,-12,1,3,19,16
1501932362179475,30,8,7,-15,-3,-2,-13,-10
1501932362179475,1,-2,-4,-9,0,-3,-2,-18
1501932362180407,2,5,-8,-13,1,0,2,24
1501932362180407,-7,-6,-4,19,-3,0,3,-5
1501932362193444,9,-11,-3,4,2,-1,6,-4
1501932362193444,19,2,10,5,-1,-4,-3,49
1501932362200423,-7,-8,-6,-6,-2,-2,-7,-54
1501932362200423,-7,14,-8,-10,-2,-2,-1,5
1501932362216471,5,10,12,-1,1,0,8,0
1501932362216471,5,-2,3,-1,-1,-3,-5,-23
1501932362218419,-3,-6,-27,-24,-2,-4,11,18
1501932362218419,3,-4,11,36,-3,2,8,7
1501932362239456,-2,-8,-16,-33,-2,-5,-10,0
1501932362239456,19,8,0,21,1,-1,4,-4
1501932362240409,-27,-5,-3,-2,1,1,-2,30
1501932362240409,44,-5,-10,-6,-2,1,4,-12
1501932362253445,-12,-1,7,9,7,3,-8,-19
1501932362253445,3,-10,-20,-7,-4,-1,0,-2
1501932362260470,6,-6,7,-17,-11,0,6,1
1501932362260470,-18,-3,11,-4,-1,-3,3,30
1501932362276481,-15,-2,-4,0,-4,-2,-21,-26
1501932362276481,0,2,4,3,0,-4,-21,-37
1501932362278420,29,-1,-2,12,2,0,0,25
1501932362278420,-7,-6,-12,-28,-6,-11,-14,15
1501932362299454,34,2,-2,6,-3,1,9,34
1501932362299454,-45,-10,2,-7,1,1,1,17
1501932362300413,-61,6,-4,11,3,5,8,-28
1501932362300413,59,5,-2,-5,1,1,7,-9
1501932362313524,-1,-1,-1,-4,1,-1,-10,0
1501932362313524,39,8,-2,-6,-9,-2,-4,-15
1501932362320523,33,11,13,10,2,3,24,60
1501932362320523,-31,-9,-24,-12,-1,-2,-24,-24
1501932362336548,48,3,20,8,-3,-2,6,-11
1501932362336548,-45,1,-17,-12,-2,-1,-5,4
1501932362338494,10,1,0,0,-3,-5,-22,-23
1501932362338494,1,4,1,3,-1,0,-3,13
1501932362359555,63,-1,7,0,5,9,43,2
1501932362359555,-77,-21,-1,-8,-1,-1,-16,0
1501932362360485,-84,-4,-11,7,-4,-5,1,-5
1501932362360485,14,26,19,25,7,6,3,-1
1501932362373498,29,-7,-15,-24,-5,-8,1,21
1501932362373498,-10,-17,9,0,-1,-1,2,-12
1501932362380495,29,13,-6,-9,0,1,-2,-10
1501932362380495,-63,-6,-14,-11,-10,-7,-8,-14
1501932362396549,-61,-9,-5,5,-3,0,-6,-3
1501932362396549,5,15,3,-1,3,-1,2,-8
1501932362398487,18,-32,1,0,-2,-3,-11,15
1501932362398487,27,3,5,5,-2,0,2,-29
1501932362419532,5,-2,-6,-7,-3,-4,3,40
1501932362419532,-2,-2,-9,1,-1,-2,-16,-57
1501932362420487,44,-13,-3,-7,-4,-2,4,17
1501932362420487,0,7,6,4,1,2,4,-2
1501932362433495,-23,3,0,0,-2,-2,-21,13
1501932362433495,27,-6,16,5,2,2,-2,-3
1501932362441503,-3,0,-12,-2,-2,-7,-19,-9
1501932362441503,15,-7,1,-1,2,0,3,10
1501932362456557,-71,7,3,1,0,3,-2,-28
1501932362456557,37,9,-3,0,-2,-1,-5,5
1501932362458491,16,11,6,7,1,2,6,9
1501932362458491,-17,-9,-7,-12,0,-2,-4,-22
1501932362479559,16,5,3,11,2,-1,0,-9
1501932362479559,-41,4,5,0,0,0,12,8
1501932362480494,12,6,-9,-4,-1,-1,5,6
1501932362480494,-26,-15,0,13,2,1,-1,18
1501932362492558,0,-3,-6,-3,0,-1,-18,3
1501932362492558,13,13,13,-1,0,6,51,39
1501932362501491,-11,-5,-2,2,-2,-4,-19,-37
1501932362501491,24,2,-1,7,-6,-5,10,3
1501932362516564,-71,-6,6,-11,2,0,-12,-4
1501932362516564,9,9,3,17,-4,-5,-25,-6
1501932362518493,15,5,1,11,3,5,19,3
1501932362518493,-2,0,16,-17,-1,4,10,12
1501932362539562,0,-3,-20,-2,-4,-2,2,5
1501932362539562,-12,1,-13,-10,0,-1,17,-18
1501932362540503,-34,-9,0,-3,-1,1,-11,5
1501932362540503,19,3,-6,8,-2,-2,-10,-22
1501932362552551,8,-2,3,-18,-4,0,22,16
1501932362552551,16,-11,1,-1,-4,-2,-28,-44
1501932362561515,23,-1,1,0,2,0,25,-10
1501932362561515,-1,-13,2,-1,2,-3,-4,13
1501932362576558,9,7,8,9,6,4,20,9
1501932362576558,8,-3,-8,-9,0,2,16,-7
1501932362578505,79,1,-2,-4,-4,-1,-2,36
1501932362578505,-32,11,7,5,4,3,-10,-12
1501932362599564,4,-2,11,16,0,-3,9,-9
1501932362599564,-19,-11,-20,-15,-7,-7,-19,9
1501932362600505,-18,5,0,-5,0,0,2,17
1501932362600505,-6,-6,-8,-12,-4,-3,-20,-18
1501932362612540,37,-4,-3,1,-1,0,-13,0
1501932362612540,-10,6,10,3,1,-2,-6,-13
1501932362621509,-11,3,-2,-2,1,0,11,0
1501932362621509,-6,-1,-2,1,-1,-4,-13,4
1501932362636569,-12,-5,-13,-5,-3,-6,9,-9
1501932362636569,55,-5,4,0,1,1,7,28
1501932362638511,-18,9,5,6,0,0,-16,-19
1501932362638511,-3,3,3,9,0,5,29,17
1501932362659560,19,-9,-10,-24,-4,0,-26,-19
1501932362659560,21,-10,-2,2,-2,-5,2,16
1501932362660502,30,18,4,4,0,-2,7,-51
1501932362660502,-28,-11,2,1,1,0,-20,8
1501932362672567,5,5,15,11,1,2,-15,-27
1501932362672567,-22,-4,-17,-6,0,8,43,35
1501932362681503,1,-10,2,-2,-3,-1,10,2
1501932362681503,-15,5,0,-1,-2,0,44,14
1501932362696567,77,0,-14,-2,-2,-10,-90,-1
1501932362696567,-23,2,0,-9,0,2,4,9
1501932362698515,-19,-6,-4,11,-3,-5,-11,7
1501932362698515,9,-4,-2,-10,-6,-9,-18,-48
1501932362719547,-20,9,-3,6,-3,0,12,0
1501932362719547,1,-9,-2,5,1,-1,5,13
1501932362720506,-16,-4,-1,-4,1,2,-22,-27
1501932362720506,22,9,-5,-6,1,-5,-13,8
1501932362732544,-56,-14,-3,4,-5,-7,-11,-6
1501932362732544,26,-3,3,-1,2,3,-9,-9
1501932362741517,-76,-1,-3,-3,-2,-4,34,28
1501932362741517,7,11,1,0,3,6,5,-10
1501932362756529,-7,4,-7,-3,1,2,1,5
1501932362756529,23,9,12,19,2,6,78,34
1501932362758517,-22,-15,-3,-6,0,1,-64,-20
1501932362758517,-3,-1,-5,0,-2,5,83,-3
1501932362779575,84,7,2,-7,-3,-7,-16,-3
1501932362779575,-55,-2,-3,0,2,1,-15,4
1501932362780513,34,3,-8,-19,-5,-3,12,5
1501932362780513,-14,-8,-6,2,-4,1,-31,-6
1501932362792557,0,-2,8,5,-2,1,-8,-3
1501932362792557,4,-2,12,-7,-1,-9,21,-35
1501932362801517,-10,-2,-28,-10,-4,0,-37,-11
1501932362801517,-14,-4,2,-8,0,-6,7,39
1501932362816511,-29,-9,-12,-3,-1,0,21,-36
1501932362816511,27,-9,7,9,1,-1,-39,-29
1501932362818513,-7,9,10,-7,-1,-2,9,3
1501932362818513,27,5,3,6,1,2,0,-12
1501932362839545,-25,-1,13,-8,-1,-6,-29,39
1501932362839545,-47,-7,-10,-12,-3,-1,1,21
1501932362840511,20,1,15,11,3,7,34,6
1501932362840511,-3,-5,-8,-2,-1,-5,-15,-18
1501932362861548,3,-3,0,4,6,4,31,24
1501932362861548,9,0,1,5,-2,1,-6,5
1501932362863512,-4,-19,-12,-5,-5,-7,-6,-41
1501932362863512,-53,20,2,2,-2,-2,-5,-9
1501932362876514,-20,0,8,8,-2,0,28,-25
1501932362876514,-7,-14,-28,-24,-5,-2,-23,-11
1501932362878515,27,11,11,16,3,10,59,74
1501932362878515,20,-17,3,-4,-5,-7,-35,-3
1501932362899517,76,16,1,2,1,4,-17,-5
1501932362899517,-40,3,-7,-5,-3,-2,-64,10
1501932362900514,27,8,5,1,6,4,28,-13
1501932362900514,-10,-4,5,-2,1,1,12,21
1501932362921577,16,-2,1,1,-3,0,27,11
1501932362921577,-7,2,2,2,0,-3,-18,-1
1501932362923529,-7,-5,-9,-11,-4,-8,-16,5
1501932362923529,11,-7,-8,7,-4,0,-8,17
1501932362936580,-4,4,-7,-17,1,2,6,0
1501932362936580,1,18,11,9,0,-2,6,-38
1501932362938517,-25,-3,3,1,0,-3,7,-6
1501932362938517,10,-1,0,5,2,-2,17,4
1501932362959581,-51,-9,-3,-10,0,1,35,-10
1501932362959581,9,-10,-4,-1,-4,-5,-14,23
1501932362960520,13,2,8,-3,-2,-4,-25,-14
1501932362960520,11,-2,-3,0,0,-2,-33,-18
1501932362981578,-13,1,5,8,5,1,5,2
1501932362981578,11,-1,3,6,1,-3,-3,-6
1501932362983519,-10,-6,-14,-12,-3,-14,-60,0
1501932362983519,-7,-6,-9,-11,-5,0,17,-27
1501932362996543,-31,-8,-8,3,-3,-6,-12,15
1501932362996543,4,6,9,5,2,5,-11,-4
1501932363002522,-6,-3,-3,-1,-3,2,0,-37
1501932363002522,16,-2,-7,-7,0,4,-12,12
1501932363019570,-8,-1,1,7,1,-2,13,25
1501932363019570,17,-2,-12,-4,-2,3,13,13
1501932363020522,10,-5,5,-2,-4,-3,-49,-6
1501932363020522,-18,3,-12,-2,-3,-2,-42,-17
1501932363041587,-5,-4,1,-5,-1,5,61,-20
1501932363041587,11,-3,0,0,-1,-4,-25,22
1501932363043525,-12,-3,2,8,2,1,10,-14
1501932363043525,-1,1,5,-1,-1,3,16,-7
1501932363056547,4,-5,-10,0,-1,-5,-37,4
1501932363056547,14,-4,-1,-7,-1,-5,2,3
1501932363062564,-5,8,17,5,1,0,23,18
1501932363062564,-7,-13,-24,-6,-4,-5,-57,-27
1501932363079565,-2,0,0,2,0,1,2,-4
1501932363079565,13,4,2,2,-2,0,18,-25
1501932363080526,-16,-4,5,5,1,-2,33,36
1501932363080526,5,3,3,-2,3,-4,-26,13
1501932363101568,0,-5,-5,-2,0,-2,-43,6
1501932363101568,-56,-6,-1,3,-1,3,91,11
1501932363103526,53,3,-5,-3,0,2,-3,-1
1501932363103526,2,-2,6,2,-2,-4,13,-5
1501932363116590,-18,-5,-10,-5,-3,-4,-40,-26
1501932363116590,6,4,15,10,3,3,8,-2
1501932363122599,9,-3,-9,-7,-3,-3,11,68
1501932363122599,-25,7,7,0,1,1,-3,-48
1501932363139575,0,2,3,6,-1,-5,-9,-8
1501932363139575,14,1,-2,-4,-4,-1,-23,-26
1501932363140536,-37,-11,-11,-5,-2,-3,-2,-18
1501932363140536,23,1,10,3,3,2,26,55
1501932363161577,-21,-6,-3,-2,-4,-5,10,-9
1501932363161577,28,4,0,-5,-2,-4,-9,-1
1501932363163567,-14,4,-6,-4,-3,-2,-29,-8
1501932363163567,-3,3,3,8,2,4,0,-8
1501932363176569,0,-1,-9,-7,-2,3,13,9
1501932363176569,5,-1,4,6,2,2,6,21
1501932363182569,-2,3,6,4,-1,-5,-79,-28
1501932363182569,22,0,-11,-11,-2,3,55,28
1501932363199557,8,2,1,0,-1,1,6,-8
1501932363199557,-33,-9,-4,-2,-3,-5,-16,-21
1501932363200533,31,4,-1,-4,-1,0,27,18
1501932363200533,21,-10,5,2,-3,2,29,56
1501932363221602,-49,10,4,-1,0,-4,-36,-52
1501932363221602,-4,4,-1,0,3,1,1,-2
1501932363223545,-12,-3,11,3,2,-2,1,-9
1501932363223545,-12,-1,-2,0,-3,-5,-13,-9
1501932363236569,5,-4,-4,-6,-5,2,13,22
1501932363236569,5,2,4,6,0,-9,-47,-7
1501932363242577,-9,6,-8,-9,-4,-2,3,-1
1501932363242577,-16,-4,-7,-8,-3,-6,-6,-11
1501932363259546,-8,-6,4,2,-2,-3,-2,-17
1501932363259546,0,5,3,-1,0,0,-4,7
1501932363260543,26,-13,2,6,0,3,-10,-16
1501932363260543,-23,9,-14,-8,-3,-7,-2,11
1501932363281584,10,1,-4,1,0,-7,-46,-24
1501932363281584,35,-8,-3,-1,-6,-3,47,12
1501932363283538,-36,-14,6,2,3,5,3,-44
1501932363283538,10,4,7,8,0,0,-17,-8
1501932363296562,19,0,7,2,2,6,26,21
1501932363296562,-3,1,-16,-8,-3,-2,5,1
1501932363302538,-8,-1,2,2,-1,0,0,2
1501932363302538,-4,-3,1,-3,0,-1,-28,-10
1501932363319580,1,-2,0,6,-2,2,41,30
1501932363319580,-5,-7,0,-3,-2,0,-3,20
1501932363320553,21,9,0,8,6,9,11,-48
1501932363320553,7,-2,-2,-10,-3,-6,30,2
1501932363341611,-9,-6,-11,-4,-3,-3,0,-11
1501932363341611,-1,0,-4,-2,-3,-2,25,13
1501932363343552,-28,0,7,9,-2,-2,-3,23
1501932363343552,22,-2,-15,-2,-4,-2,-30,-12
1501932363355583,10,2,-8,-6,1,3,1,-6
1501932363355583,6,-3,4,-3,-4,-4,-16,-29
1501932363364576,-1,8,-2,-5,-2,-6,-13,39
1501932363364576,7,-7,1,4,2,5,-2,74
1501932363379568,52,-2,4,-2,-1,2,22,-35
1501932363379568,-72,0,-2,2,5,2,-14,22
1501932363380545,10,-11,-11,-4,-2,-3,37,-16
1501932363380545,-19,-1,5,-2,-4,2,24,-4
1501932363401607,13,-15,0,-1,-6,-2,-18,-3
1501932363401607,-6,3,-8,-2,0,-4,-38,-37
1501932363403553,15,-3,-2,-4,-3,-2,17,6
1501932363403553,-46,-5,-5,1,1,-1,-9,39
1501932363415591,-22,1,3,9,2,2,22,22
1501932363415591,17,-6,-13,-13,-6,-4,-8,-37
1501932363424545,-6,0,-2,-2,-2,-3,22,9
1501932363424545,10,-1,-4,-1,0,2,14,43
1501932363439562,-9,2,7,1,-3,-5,-21,9
1501932363439562,21,5,2,1,3,1,-7,-3
1501932363440547,-4,1,-2,-3,3,3,-18,16
1501932363440547,15,2,7,2,1,0,9,-27
1501932363461549,-16,-3,-9,-6,-4,-6,-24,-18
1501932363461549,-5,-2,2,1,-3,-8,-26,-7
1501932363463558,47,6,4,0,2,11,59,19
1501932363463558,-26,-1,-6,-6,2,-1,-5,-8
1501932363475615,-16,2,-3,0,0,0,-2,2
1501932363475615,-25,-10,18,5,2,0,-5,28
1501932363484548,-19,-6,-24,-10,-6,-5,-36,-25
1501932363484548,-8,2,9,1,0,-1,0,14
1501932363499560,19,6,-9,-4,-2,1,27,-51
1501932363499560,-40,-10,-3,1,-3,-1,1,-3
1501932363500560,-19,-3,7,0,-2,-1,1,6
1501932363500560,20,0,-3,-4,-1,-3,1,-35
1501932363521602,-13,-1,6,-2,1,-1,0,36
1501932363521602,20,1,-5,-2,-1,2,5,-8
1501932363523561,20,-1,2,1,-2,-5,-12,-11
1501932363523561,-2,-2,-1,-3,-3,-4,-12,-12
1501932363544580,1,2,1,1,1,1,4,30
1501932363544580,2,7,1,-5,-4,-2,0,-18
1501932363545531,-29,1,2,6,1,1,-6,-7
1501932363545531,31,3,8,0,-2,2,9,-46
1501932363559542,-9,-1,-3,-2,-1,-1,-5,44
1501932363559542,-19,3,1,2,3,4,33,9
1501932363560538,-15,-15,-10,-8,-4,-2,15,78
1501932363560538,51,6,5,-1,-2,-6,-43,-127
1501932363581575,9,2,3,-1,0,2,21,-29
1501932363581575,38,-2,-3,-5,-2,-1,-16,5
1501932363583545,-3,6,10,7,1,-4,-5,10
1501932363583545,-16,-18,-7,3,-2,0,27,61
1501932363595573,7,20,4,2,1,-1,-13,7
1501932363595573,-2,6,12,3,3,1,-2,4
1501932363604547,-8,3,-8,-6,-1,3,7,13
1501932363604547,-31,-7,-2,7,0,-2,-3,-1
1501932363619586,-8,-7,-5,-5,-5,-5,-31,-3
1501932363619586,-41,-14,-6,-4,-5,-3,40,66
1501932363620534,34,6,7,1,0,-3,-20,-32
1501932363620534,2,4,-3,0,2,1,2,54
1501932363641577,-2,-13,3,-1,-5,-8,-46,-1
1501932363641577,-4,-1,-8,-5,-3,2,9,24
1501932363643543,2,-2,-2,-2,-4,-5,-19,-71
1501932363643543,-6,-5,-4,-7,-3,-8,-19,-38
1501932363655577,-34,-2,8,0,-1,1,-11,19
1501932363655577,48,5,-6,-5,-1,-2,28,-52
1501932363664540,-7,-10,-2,-3,-3,-3,9,92
1501932363664540,-30,3,-5,-1,3,0,24,-41
1501932363679552,-11,0,-15,-13,-4,-2,-4,8
1501932363679552,21,0,-4,1,-2,-3,-10,5
1501932363680538,9,0,11,4,1,0,12,51
1501932363680538,-52,-1,-12,-6,-2,-1,15,8
1501932363701601,11,-6,5,3,1,2,36,-25
1501932363701601,67,3,-6,-1,-4,-3,-9,25
1501932363703540,-15,4,1,0,3,-1,-3,-33
1501932363703540,8,-1,1,-4,-1,0,-21,-2
1501932363715580,-5,-2,-10,-5,-1,-1,44,1
1501932363715580,-5,2,8,1,2,3,-38,-17
1501932363724555,-1,0,-1,0,-2,-4,-34,-11
1501932363724555,-26,-12,1,0,-2,1,17,11
1501932363739573,4,-6,-3,3,0,-3,-10,42
1501932363739573,-12,5,3,0,4,5,2,-45
1501932363740569,1,-3,-7,-1,-4,-2,-1,-63
1501932363740569,6,4,1,-3,-3,1,-2,-55
1501932363761609,-4,7,0,0,-1,1,20,9
1501932363761609,-45,-10,-1,-4,-4,-13,-63,-41
1501932363763553,3,-1,5,-1,-1,2,36,-11
1501932363763553,34,8,5,5,4,4,27,48
1501932363775592,13,-2,-12,-7,-3,-2,-35,-36
1501932363775592,1,-1,-4,-3,-3,-6,-67,12
1501932363784543,-2,4,-1,-3,-1,4,33,-76
1501932363784543,-6,-8,-3,-5,-3,-6,-26,-9
1501932363799593,9,1,14,4,3,1,-11,-23
1501932363799593,-5,-9,-4,3,-2,-2,-1,31
1501932363800546,-41,-9,-10,-2,-2,-6,-24,66
1501932363800546,27,-3,-5,-1,0,0,2,13
1501932363821594,14,2,8,2,-3,-10,-29,-67
1501932363821594,-12,-1,-17,-8,4,8,55,-13
1501932363823547,-5,0,3,-1,-4,-2,-9,19
1501932363823547,7,1,1,1,-3,-3,-13,-53
1501932363844605,-3,-1,1,-2,0,5,31,14
1501932363844605,22,0,3,1,-2,-3,8,9
1501932363845547,-7,1,-13,-3,0,-1,-27,-28
1501932363845547,-5,0,2,1,-1,0,5,27
1501932363859565,-20,-3,1,0,-3,-3,-9,-5
1501932363859565,6,-1,2,-1,0,0,9,17
1501932363860550,-4,-11,-9,-2,-1,-3,-15,-14
1501932363860550,5,7,10,5,2,7,18,4
1501932363881596,-11,1,-5,-7,-1,1,6,9
1501932363881596,-27,1,2,5,4,7,31,57
1501932363883550,14,-9,0,-7,-1,-3,-6,3
1501932363883550,-40,-9,1,-5,-6,-10,-32,21
1501932363904605,2,4,-3,6,3,5,-12,-26
1501932363904605,-4,1,-1,3,-2,-3,-7,-5
1501932363905553,6,6,2,4,0,-1,2,-7
1501932363905553,2,0,-11,-7,-1,-6,-31,28
1501932363919582,1,-6,4,4,2,1,-8,22
1501932363919582,-18,-5,-2,-8,-10,-13,-36,-57
1501932363920552,31,-1,-1,-1,5,11,10,1
1501932363920552,37,16,-5,-6,-5,-5,-18,-27
1501932363941585,2,1,5,-2,0,-2,-9,1
1501932363941585,2,-4,-13,-5,-4,-4,1,-1
1501932363943564,-7,2,7,-1,-3,-5,-1,9
1501932363943564,-3,-4,1,13,4,6,-4,6
1501932363964554,22,0,-4,-5,0,1,5,-1
1501932363964554,-8,-2,15,5,2,1,-3,-66
1501932363965556,-2,10,-4,1,0,1,7,-20
1501932363965556,25,1,6,-3,-3,-2,-2,9
1501932363978619,-13,0,-9,-1,-3,-4,8,41
1501932363978619,-12,-4,2,0,-2,0,-1,8
1501932363985600,-12,-1,1,0,-2,-2,29,34
1501932363985600,-22,-8,-6,-6,-3,1,-3,22
1501932364001598,-8,1,3,1,0,-5,-22,-16
1501932364001598,8,1,2,-1,1,6,22,-2
1501932364003568,-31,-11,-4,-2,-2,-3,-7,-8
1501932364003568,-40,2,1,0,1,-3,4,-100
1501932364024606,34,-2,-3,3,-1,4,25,-22
1501932364024606,-4,2,3,0,-1,-3,-22,9
1501932364025564,-14,2,-5,-5,-1,0,5,-8
1501932364025564,14,-2,-5,-3,-1,1,16,42
1501932364038591,-15,-12,-5,-3,1,0,8,-35
1501932364038591,13,1,-9,-2,2,-1,1,-22
1501932364045598,-5,3,10,4,1,2,-38,42
1501932364045598,-4,-2,3,0,-3,-3,19,19
1501932364061620,-15,-7,-8,-5,-1,0,5,-14
1501932364061620,9,0,3,1,0,3,9,14
1501932364063574,-23,1,0,-2,-1,-3,30,-21
1501932364063574,7,-7,-2,4,-2,-3,-7,12
1501932364084580,-1,-2,1,-1,-4,-3,-17,2
1501932364084580,-6,4,-1,0,1,3,32,-4
1501932364085562,34,6,7,1,1,1,-3,-2
1501932364085562,10,-5,-12,-4,-1,0,0,-9
1501932364098624,3,3,-2,-6,-3,-1,30,16
1501932364098624,3,-3,-5,-3,-2,-2,-2,6
1501932364105603,-35,-1,-4,-3,-4,-5,2,23
1501932364105603,28,1,4,0,-1,2,-6,-28
1501932364121622,24,5,-2,-1,0,0,-18,1
1501932364121622,6,5,-2,-3,-3,1,38,29
1501932364123575,-18,-7,0,-2,-3,-3,-16,-60
1501932364123575,-27,-1,-2,-2,2,-2,-8,9
1501932364144579,-37,-7,-3,-1,-4,-2,13,15
1501932364144579,5,0,9,1,0,2,5,-19
1501932364145566,52,12,0,-3,0,4,7,-1
1501932364145566,-6,0,2,0,2,-1,-7,-4
1501932364158636,6,-2,-14,-6,-4,-3,8,17
1501932364158636,-13,-9,-1,2,-1,-5,-26,-5
1501932364165606,-2,2,-1,0,-1,0,-4,14
1501932364165606,18,3,4,-1,1,1,-1,-3
1501932364181642,16,7,10,5,1,1,-25,-21
1501932364181642,14,3,1,-1,0,0,-26,-7
1501932364183602,-4,-5,-5,1,-3,-4,3,9
1501932364183602,-3,0,3,-3,-2,-1,2,-6
1501932364204606,-11,-6,-19,-6,-3,-1,13,16
1501932364204606,22,-4,-7,-3,0,0,-25,11
1501932364205570,-12,2,3,1,1,0,-16,-23
1501932364205570,-1,2,2,3,1,0,17,-8
1501932364218633,-1,-2,8,5,0,-3,-8,-17
1501932364218633,-3,6,2,2,-1,6,46,24
1501932364225644,-4,-10,-10,-3,0,1,1,41
1501932364225644,-10,-4,-3,-6,-3,-4,-20,0
1501932364241610,8,1,6,2,1,7,74,-6
1501932364241610,-12,-5,0,1,0,-7,-27,-22
1501932364243582,9,0,3,4,-1,1,-4,19
1501932364243582,-47,-5,-13,-5,-1,2,18,0
1501932364264581,24,-3,6,-1,-1,-3,-18,12
1501932364264581,-8,-5,-6,-1,0,-3,-9,-16
1501932364265582,8,-4,-6,-6,-1,1,18,24
1501932364265582,40,-2,4,1,-1,-6,-37,-38
1501932364278614,-19,7,8,7,0,-7,-4,2
1501932364278614,16,-3,-12,-9,-5,1,29,9
1501932364285614,11,7,5,5,1,0,-19,-55
1501932364285614,-47,-12,-14,-7,-3,-2,-16,-10
1501932364301617,12,-1,-10,-4,0,1,6,56
1501932364301617,5,2,8,2,-2,-4,-8,9
1501932364303574,13,-5,-16,-6,-3,-2,9,-12
1501932364303574,-3,7,0,0,-3,-1,13,25
1501932364324593,6,4,0,-5,-1,1,-35,-7
1501932364324593,-2,-4,3,-3,-2,-3,-14,34
1501932364325575,-9,-3,-5,-3,-2,-4,8,-59
1501932364325575,7,4,7,1,0,-2,31,0
1501932364337618,22,-5,-5,-3,-2,-6,5,-12
1501932364337618,5,3,3,0,-1,-1,10,5
1501932364346611,-3,6,7,3,3,3,-7,-6
1501932364346611,6,-10,-5,-1,-5,-6,-31,-28
1501932364361585,-4,-1,-7,-4,-1,-2,8,13
1501932364361585,-40,-4,-6,0,0,-2,-3,4
1501932364363578,-12,-7,-1,-6,-4,0,15,-6
1501932364363578,15,3,2,1,0,3,30,24
1501932364384589,-19,-6,-1,-2,-7,-14,-84,-35
1501932364384589,4,-4,0,-3,-6,-18,-67,4
1501932364385592,-63,0,-1,1,1,7,17,-18
1501932364385592,36,3,1,1,1,11,45,11
1501932364397617,-19,0,8,3,1,-1,-6,-10
1501932364397617,8,-3,-6,-6,-5,-5,-27,-37
1501932364406623,10,-6,2,1,0,-6,-11,13
1501932364406623,-11,-4,-8,-3,-3,-5,-18,15
1501932364421651,0,-3,-4,0,-1,6,4,-15
1501932364421651,-18,0,-5,-1,0,4,-20,-22
1501932364423581,26,-5,2,1,0,-5,-12,37
1501932364423581,-5,-3,-2,0,-2,2,41,3
1501932364444595,2,0,-5,-3,-3,-3,21,-11
1501932364444595,0,5,8,7,7,12,39,-5
1501932364445583,6,-13,-12,-8,-3,-1,-25,-4
1501932364445583,-4,2,1,-2,1,0,-47,-28
1501932364457624,-32,-8,-3,-2,-1,3,-4,3
1501932364457624,15,-3,3,-1,-1,-4,22,-5
1501932364466626,20,6,6,0,2,-2,13,13
1501932364466626,-5,0,3,0,0,-1,-40,11
1501932364481632,-47,-5,-4,-3,0,8,11,54
1501932364481632,36,4,0,0,3,11,35,-5
1501932364483585,20,7,5,3,2,-1,3,-5
1501932364483585,-3,-3,6,0,-1,-6,-8,1
1501932364504602,-2,2,-3,-2,3,2,10,-3
1501932364504602,-7,-6,-2,3,-4,2,18,39
1501932364505587,1,0,-5,-3,-5,-6,-75,-29
1501932364505587,-1,8,1,1,-2,-2,4,3
1501932364517627,6,-3,1,-5,-3,-3,-3,2
1501932364517627,5,4,0,-1,-1,-3,-5,3
1501932364526599,14,-4,2,-4,-5,-3,-24,-6
1501932364526599,-4,1,2,2,1,1,6,46
1501932364541635,15,8,3,4,4,5,18,-2
1501932364541635,5,-3,-4,-3,1,0,-8,-4
1501932364543588,-36,0,1,-2,-4,-6,7,-32
1501932364543588,6,0,1,3,0,-4,-19,-12
1501932364564600,5,-2,-5,0,-5,-9,-20,-16
1501932364564600,-58,-7,-6,-1,1,-1,-2,-2
1501932364565589,-1,-1,4,2,0,-2,56,-3
1501932364565589,-3,1,-2,-1,3,5,-11,-6
1501932364577631,1,-2,7,5,0,-1,-7,-10
1501932364577631,-1,3,1,-2,-3,-2,-8,-9
1501932364586628,8,-4,-5,-2,2,7,39,29
1501932364586628,1,-3,-2,-1,-4,-7,2,0
1501932364601631,-6,0,3,4,1,2,0,-4
1501932364601631,12,-1,-1,-7,-2,-3,-13,14
1501932364603591,1,1,-5,-1,1,3,4,9
1501932364603591,6,-5,-10,-2,0,2,11,12
1501932364624609,9,0,4,1,0,-4,-15,-4
1501932364624609,1,-2,-5,2,1,1,13,-36
1501932364625624,5,0,-3,5,-2,-1,-2,11
1501932364625624,-19,-7,1,-6,-1,3,0,-7
1501932364637659,9,-1,-2,-3,-1,1,13,5
1501932364637659,-1,-1,-1,-1,-3,-2,-2,7
1501932364646632,-2,0,-2,-1,-1,-1,-1,5
1501932364646632,3,-2,-5,-1,-1,-1,13,37
1501932364661657,-7,-3,0,-1,-3,-3,-18,-48
1501932364661657,23,5,18,2,-1,-1,0,-12
1501932364663631,-6,-7,-28,-10,-3,-3,-9,6
1501932364663631,1,2,2,4,1,-3,-13,-18
1501932364684612,7,-1,-7,-6,-3,0,32,24
1501932364684612,3,0,-1,-1,2,4,23,-1
1501932364685597,-1,0,11,1,0,1,15,-11
1501932364685597,-6,2,-2,-1,-4,-2,-9,0
1501932364697637,10,1,8,2,-1,-2,-16,3
1501932364697637,-8,-4,-7,-1,-3,-10,-40,-18
1501932364706638,0,-3,-2,-1,0,2,33,11
1501932364706638,9,3,-3,-2,0,1,18,18
1501932364721667,-4,1,0,-1,0,0,22,7
1501932364721667,-14,-3,-6,-5,-2,1,5,21
1501932364723609,-3,-3,-1,-2,-5,-11,-43,-32
1501932364723609,5,-2,13,5,3,2,12,-18
1501932364744617,2,-2,-13,-8,-7,-7,24,31
1501932364744617,3,-3,-1,0,-2,1,4,-41
1501932364745614,-7,3,-4,-3,-4,-3,-19,-5
1501932364745614,4,0,0,-1,1,-1,-6,-10
1501932364766640,-24,-1,3,11,3,-4,-16,-22
1501932364766640,-11,-5,-12,-31,-9,-5,-8,11
1501932364768629,4,1,14,8,0,2,0,10
1501932364768629,-7,-1,-1,0,-1,1,0,-20
1501932364781668,3,-2,13,4,-1,2,-7,6
1501932364781668,25,1,-25,-4,2,8,63,-13
1501932364783632,-30,-6,2,1,3,0,-35,-4
1501932364783632,7,3,-2,-4,-2,-5,-8,-15
1501932364804613,2,3,8,5,3,5,6,8
1501932364804613,-11,-7,-8,-1,-1,-2,-5,17
1501932364805614,30,-1,-4,-9,-7,-7,18,11
1501932364805614,8,-1,-3,1,-2,-1,-3,-15
1501932364826673,-20,-4,-4,-2,-2,-3,-17,-10
1501932364826673,6,2,3,6,2,-2,-11,30
1501932364828616,1,4,3,1,1,8,44,19
1501932364828616,-6,-2,1,2,1,2,-8,-24
1501932364841673,19,0,-12,-10,-4,-3,1,18
1501932364841673,-5,-1,6,4,0,-1,20,31
1501932364843620,0,2,5,4,-1,1,-16,-32
1501932364843620,1,-5,-9,-4,-2,-4,-14,3
1501932364864617,-2,-5,-6,-9,0,0,3,-1
1501932364864617,-11,2,11,6,3,5,-1,-7
1501932364865615,-3,1,1,3,-2,-5,-17,2
1501932364865615,5,-2,4,-2,-3,-3,2,21
1501932364886675,-1,-3,-2,0,1,3,20,-11
1501932364886675,-1,0,-1,2,-1,-1,-12,-15
1501932364888620,28,7,13,8,1,-2,-7,1
1501932364888620,-15,-11,-14,-13,-5,-1,-22,-13
1501932364900670,-4,0,-6,-2,0,3,26,8
1501932364900670,-6,3,5,0,-3,-1,-6,-1
1501932364907651,-4,-3,-5,-3,0,-2,-24,-13
1501932364907651,-2,1,2,1,-2,-4,3,0
1501932364924621,-2,-1,4,0,0,-3,-44,-30
1501932364924621,1,-1,-2,4,-2,-5,-38,0
1501932364925629,-7,-4,-8,-5,-5,-4,6,30
1501932364925629,4,1,-3,-1,1,-2,3,-16
1501932364946676,3,1,3,2,0,0,-9,-5
1501932364946676,-1,-3,-5,-5,-4,-5,-12,2
1501932364948620,-5,-5,-11,-3,-2,0,-4,6
1501932364948620,-5,-3,-3,-3,-3,-2,10,-4
1501932364960621,7,-1,-1,-2,-2,-2,3,32
1501932364960621,-5,3,7,2,2,4,9,-4
1501932364967653,-2,4,7,1,2,5,10,-1
1501932364967653,-38,-11,-5,-3,-3,-2,15,-23
1501932364984630,-16,1,8,4,1,-3,14,1
1501932364984630,-1,1,-3,-1,-5,-5,1,19
1501932364985614,-16,-5,10,-1,-2,1,30,12
1501932364985614,-3,1,-8,5,-2,-3,-11,9
1501932365006680,18,-3,-4,-6,-4,-4,5,11
1501932365006680,-5,0,1,0,2,1,-20,-29
1501932365008626,1,0,3,-1,0,2,-2,11
1501932365008626,-2,0,1,-3,0,0,6,-13
1501932365020625,5,0,-10,-4,-2,0,5,10
1501932365020625,-5,0,1,1,-3,-2,-4,-1
1501932365027656,-6,-1,-8,-5,-1,-3,-31,-63
1501932365027656,6,2,0,-2,-2,-1,-8,31
1501932365044637,4,5,-1,3,-1,-4,8,0
1501932365044637,2,1,8,0,0,-2,-6,-19
1501932365045618,-2,-11,-26,-10,-2,-7,33,18
1501932365045618,13,0,0,2,-1,2,15,22
1501932365066677,0,-1,-2,-3,-2,-3,-14,-14
1501932365066677,1,-5,-1,3,2,0,-4,-22
1501932365068654,4,3,-7,-4,-1,-1,0,-8
1501932365068654,1,-1,4,0,0,1,1,9
1501932365080627,4,-3,-1,0,-1,-2,-14,-2
1501932365080627,8,0,-3,-1,-3,-5,20,27
1501932365087619,11,2,7,3,-3,-1,-19,-31
1501932365087619,3,4,-10,-5,0,-1,-4,8
1501932365104637,-3,2,4,5,1,4,-7,-48
1501932365104637,-17,-3,5,3,2,2,32,20
1501932365105661,32,0,-2,-1,-1,6,19,24
1501932365105661,12,1,4,0,2,-2,1,-13
1501932365126642,4,-1,-5,-6,-2,8,28,16
1501932365126642,3,-1,-3,-4,-1,-1,0,31
1501932365128622,-8,-1,3,2,2,0,-23,-29
1501932365128622,-4,-3,3,3,0,0,0,-1
1501932365140663,-6,-1,2,2,0,-6,-31,-6
1501932365140663,-3,-1,0,0,-3,-3,-24,-18
1501932365147638,-5,0,5,-2,-1,-1,12,25
1501932365147638,-19,-2,-9,-2,-2,-2,-11,12
1501932365164635,-10,-2,-3,-2,2,0,-11,-36
1501932365164635,-9,-5,-6,-2,-4,-2,-13,21
1501932365165633,-1,2,3,1,1,1,13,-28
1501932365165633,3,0,7,5,-1,3,-1,-9
1501932365186685,3,-8,-9,-9,-6,-2,15,27
1501932365186685,0,0,0,-1,0,2,2,-11
1501932365188626,1,-3,3,-2,-4,-3,-6,7
1501932365188626,-10,-2,-1,0,-1,-4,-19,-16
1501932365200690,22,-1,3,0,1,-1,-5,16
1501932365200690,-6,-4,-18,-9,-3,-2,5,-17
1501932365209658,-7,2,3,1,0,-2,-5,-2
1501932365209658,7,-1,2,-1,-2,-2,4,0
1501932365224645,7,-2,2,3,-2,-4,-23,10
1501932365224645,-39,0,-1,-4,0,4,28,15
1501932365225644,-6,0,-5,3,2,6,22,-7
1501932365225644,5,1,-1,-3,0,-1,3,3
1501932365246698,3,2,3,-2,-2,-2,-4,2
1501932365246698,14,-3,-5,0,0,-2,-7,-12
1501932365248628,1,0,-3,0,-1,-6,-19,17
1501932365248628,-16,-4,-1,-3,-2,0,9,-33
1501932365260629,-11,-3,-11,-1,2,-1,2,-1
1501932365260629,13,-1,7,4,1,-1,-3,-9
1501932365269631,-8,1,0,-2,-3,-1,-6,5
1501932365269631,10,0,-5,-5,0,0,18,11
1501932365284648,-3,-1,1,-1,-5,-5,-4,5
1501932365284648,4,-2,0,-2,-4,-6,-13,-12
1501932365285631,0,-2,-6,-1,1,-1,-8,-4
1501932365285631,1,0,5,2,-3,-1,0,6
1501932365306699,-7,-2,-3,-2,0,-1,4,-6
1501932365306699,8,2,1,0,0,1,2,-2
1501932365308668,-5,-1,2,0,-2,-4,-9,-6
1501932365308668,1,0,-3,-3,-3,-3,-8,-11
1501932365320703,-7,1,-3,0,1,1,6,6
1501932365320703,15,1,3,1,1,-1,1,15
1501932365329647,-12,1,-5,-2,-4,-4,-24,-22
1501932365329647,7,2,5,4,3,2,2,8
1501932365344654,-2,-3,-2,1,-2,0,8,21
1501932365344654,-34,-6,-4,0,0,-5,-7,-57
1501932365345634,-4,-4,-4,-3,-1,-3,-11,11
1501932365345634,-3,3,5,3,2,3,6,-4
1501932365366678,-4,0,-3,-8,-2,-2,3,7
1501932365366678,3,-1,2,3,-1,-3,-1,1
1501932365368636,-3,-5,-2,1,-2,1,-4,-4
1501932365368636,0,-1,-3,-1,-1,-1,29,17
