timestamp,emg1,emg2,emg3,emg4,emg5,emg6,emg7,emg8
1501931771555791,-2,-4,-33,-1,0,-3,-27,-38
1501931771555791,-11,-2,15,6,0,1,2,45
1501931771556801,3,12,11,-5,-8,-7,4,-41
1501931771556801,71,-11,-29,-8,-5,-5,-20,-12
1501931771560790,59,10,6,2,5,10,24,-15
1501931771560790,22,5,11,1,2,-4,-15,16
1501931771562803,-49,13,-23,12,0,5,3,-21
1501931771562803,-13,3,19,-6,-1,2,16,27
1501931771566841,-34,-10,-1,14,1,-7,-7,-83
1501931771566841,-25,11,3,-7,2,4,29,-41
1501931771574809,-47,-14,5,-10,-2,-8,-44,5
1501931771574809,16,3,-12,7,1,1,5,15
1501931771589813,-21,22,-16,-9,2,3,-6,13
1501931771589813,-54,-6,-1,3,1,1,3,15
1501931771596805,74,10,-20,2,1,-2,-15,-33
1501931771596805,-30,1,17,-12,-7,-5,10,39
1501931771604805,0,6,17,8,-2,-2,-21,-37
1501931771604805,14,-8,-8,-5,-2,-1,0,23
1501931771627835,-37,0,19,1,0,-5,10,-43
1501931771627835,22,4,-7,3,6,2,-26,-53
1501931771629805,-11,-11,14,-4,-4,-5,15,-42
1501931771629805,-4,-3,-25,-5,-5,-3,7,-27
1501931771674810,-2,-2,-30,-2,3,13,20,34
1501931771674810,13,6,26,-1,0,2,8,22
1501931771675809,17,10,-2,-1,-1,0,23,-18
1501931771675809,-4,1,8,4,1,-1,13,21
1501931771676800,7,-8,10,-3,-2,-5,-23,-6
1501931771676800,38,9,-13,-1,2,1,10,18
1501931771679848,-86,12,0,5,0,-4,-10,-60
1501931771679848,0,-1,10,-2,0,0,7,1
1501931771686816,4,-1,-17,-6,-5,-5,20,5
1501931771686816,-13,-7,11,2,1,1,22,-43
1501931771693863,45,-15,3,-2,-5,-10,-37,29
1501931771693863,-64,2,-6,-2,0,2,2,-32
1501931771702827,-31,8,-1,-1,0,-5,-9,58
1501931771702827,-3,3,11,-2,-1,0,-18,-14
1501931771716866,-25,-4,-10,-1,1,1,11,42
1501931771716866,45,-3,10,-3,2,0,3,19
1501931771723866,37,-16,18,19,-2,-4,-17,3
1501931771723866,-59,-4,-16,-33,-1,1,-11,6
1501931771747846,62,-14,-1,1,4,7,8,40
1501931771747846,7,18,0,0,1,1,-16,-30
1501931771748815,7,7,-11,-5,-1,3,-24,-32
1501931771748815,-19,-13,-10,7,-6,-8,27,-20
1501931771761877,-31,-9,-13,-3,1,9,1,22
1501931771761877,10,1,6,-2,-6,-8,-14,-11
1501931771768845,3,10,-11,6,4,0,-15,-54
1501931771768845,-48,-8,10,4,-5,-7,-45,-53
1501931771784879,47,5,-8,-9,-2,-1,-19,-22
1501931771784879,-4,-1,-9,4,-4,-4,-6,-5
1501931771786804,-19,-10,11,-1,-5,-5,2,-1
1501931771786804,6,-4,-24,-8,-5,0,-8,36
1501931771807850,-4,-3,8,-1,-6,-7,33,-6
1501931771807850,4,-2,2,-5,1,0,-15,-22
1501931771809807,-30,-7,-12,-4,1,3,13,48
1501931771809807,10,-6,6,3,-1,1,7,-4
1501931771821856,-10,18,7,2,0,-5,-9,-41
1501931771821856,-23,-6,-11,-4,-1,1,5,-26
1501931771828871,-32,8,9,-7,-3,0,23,2
1501931771828871,55,14,5,6,0,2,13,17
1501931771844841,34,-3,-20,-5,1,-2,-20,-8
1501931771844841,-72,5,1,5,1,-3,-20,-13
1501931771846810,2,3,-1,-5,-5,-1,0,-21
1501931771846810,29,-2,-2,-2,-2,-5,-10,-18
1501931771867853,37,12,13,2,-1,-4,-25,-12
1501931771867853,50,-13,-10,-7,-4,-3,40,34
1501931771868810,50,9,11,1,5,2,0,-79
1501931771868810,-20,9,8,6,1,3,5,11
1501931771881857,26,-2,-4,-7,-3,1,52,38
1501931771881857,-22,-6,-9,-1,-2,0,-13,-5
1501931771888850,-25,-1,23,0,-4,-9,-7,28
1501931771888850,95,-11,-28,-1,2,1,-9,-7
1501931771904877,-27,-1,-3,0,3,3,1,1
1501931771904877,-5,4,-2,-5,-3,3,-27,-33
1501931771906848,14,-5,-4,-5,-1,2,4,0
1501931771906848,23,14,9,-3,-6,-7,-24,42
1501931771927857,-33,-13,-11,-1,0,2,0,3
1501931771927857,20,-7,-8,2,1,-4,9,12
1501931771928813,-32,1,11,-1,1,0,-11,10
1501931771928813,-16,1,-12,6,0,-2,6,-25
1501931771941852,-8,-11,-1,-10,-4,0,-6,27
1501931771941852,-15,-1,8,1,-3,-6,-5,75
1501931771948885,-24,-4,-4,-2,1,4,7,4
1501931771948885,-24,1,6,3,3,1,1,0
1501931771964885,17,-2,16,7,-1,-4,-12,13
1501931771964885,-7,3,-3,0,1,4,-8,9
1501931771966850,-37,-4,-2,0,-1,0,21,12
1501931771966850,-26,-13,-10,-9,-3,1,12,24
1501931771987857,-26,8,2,-3,-1,-1,-18,-37
1501931771987857,23,0,6,-1,-2,-2,-21,-9
1501931771989818,19,-4,-6,3,2,3,10,31
1501931771989818,-32,-7,-4,-1,-3,-2,-5,21
1501931772001859,11,-2,7,2,-3,-2,-6,-44
1501931772001859,-82,7,11,4,-1,0,14,-10
1501931772008879,5,-1,-28,-6,-2,-3,-5,-4
1501931772008879,-28,-3,16,2,1,0,16,45
1501931772024878,-39,2,-3,-2,-3,-2,-13,29
1501931772024878,57,-2,-2,4,4,0,26,-20
1501931772026825,9,-1,8,-3,0,3,-8,3
1501931772026825,-1,-5,18,0,-3,-5,-29,-19
1501931772047888,10,-13,-31,-6,-4,3,19,47
1501931772047888,32,0,-3,-5,-4,-1,5,6
1501931772049822,5,0,8,2,-2,-4,-5,6
1501931772049822,20,3,-12,-3,-1,-3,-8,-7
1501931772061821,-28,-4,13,1,2,4,0,-8
1501931772061821,26,-11,-6,-6,-4,-3,-12,-5
1501931772070822,21,5,-10,-5,-4,-4,-3,-4
1501931772070822,-45,-3,4,1,1,2,9,3
1501931772084855,12,-16,-8,-2,3,-3,-20,39
1501931772084855,1,-9,-7,-3,2,3,9,72
1501931772086823,60,7,17,14,3,-2,-17,-95
1501931772086823,4,10,4,-5,-6,-3,-14,-19
1501931772107890,-15,-6,-6,3,-2,1,26,27
1501931772107890,5,-2,-18,-8,-4,-2,-20,3
1501931772108837,13,10,4,3,3,2,3,-3
1501931772108837,-2,-18,3,-9,-5,0,6,-26
1501931772121845,14,26,6,0,1,-3,-2,-32
1501931772121845,-7,-8,1,-6,-1,-9,-15,-7
1501931772129881,-36,3,8,-3,-4,-4,-7,3
1501931772129881,13,-11,-23,-3,-4,-1,11,-81
1501931772144850,-9,-11,7,-1,-4,-7,-11,-21
1501931772144850,-5,8,6,2,2,1,12,-53
1501931772146837,15,-7,-12,-11,-4,-1,-2,-34
1501931772146837,81,3,-5,-1,0,1,-4,26
1501931772167893,-18,2,9,-7,-3,-3,3,-26
1501931772167893,-26,0,6,13,-1,2,1,-14
1501931772168827,-15,-27,-18,-5,-2,-2,6,85
1501931772168827,-21,1,-3,13,0,-3,0,37
1501931772181846,-1,10,-5,4,3,-1,1,-68
1501931772181846,10,4,-5,-8,0,3,8,4
1501931772190828,0,3,12,1,-1,5,13,31
1501931772190828,-3,0,-2,-4,1,-3,3,-16
1501931772204843,-15,4,6,-8,-5,-1,-14,14
1501931772204843,15,0,-16,3,-1,-4,3,-1
1501931772206840,-15,-3,-3,-3,-8,-3,-9,-32
1501931772206840,-28,-2,-5,-6,-1,-2,-18,10
1501931772227901,1,-14,-2,1,0,0,5,-2
1501931772227901,19,-4,22,-6,-7,-4,-19,-6
1501931772228830,-11,-5,-22,1,2,-2,3,1
1501931772228830,-33,1,-23,-1,2,-1,-25,-56
1501931772241852,30,11,13,4,-1,1,15,5
1501931772241852,-16,5,6,-3,-2,2,11,2
1501931772250832,-14,3,3,2,2,-4,-16,-16
1501931772250832,-22,8,-12,1,1,5,22,22
1501931772265872,-7,11,29,4,0,-1,-9,-4
1501931772265872,-5,-8,-16,-1,3,0,-5,-34
1501931772266833,4,10,-3,-2,-2,-2,1,8
1501931772266833,-11,-7,4,1,2,3,14,25
1501931772287873,18,-7,19,5,2,-1,-1,5
1501931772287873,-18,2,-40,-4,0,3,8,22
1501931772288833,16,2,20,5,-1,-4,-6,11
1501931772288833,-38,-2,4,5,-2,-4,-6,-48
1501931772301854,-14,-9,-9,-1,-4,-2,-1,-21
1501931772301854,-20,-9,14,2,1,-1,-12,27
1501931772309908,-7,-9,-17,-9,2,2,28,53
1501931772309908,57,-8,-16,5,2,-1,-8,47
1501931772324904,4,8,-15,2,6,6,5,14
1501931772324904,9,-1,22,4,-2,0,-1,-30
1501931772326836,-20,6,-10,-6,-5,-3,-8,-17
1501931772326836,19,6,25,1,0,-1,3,17
1501931772347836,-3,-10,-18,-5,-6,-5,-5,-3
1501931772347836,-10,8,15,6,0,-1,-1,7
1501931772348837,4,-8,-10,1,-2,-3,-5,-18
1501931772348837,-2,10,6,1,2,-1,2,12
1501931772360871,-39,5,-5,-3,-2,-4,1,-50
1501931772360871,-3,-2,-19,-7,-1,1,9,-35
1501931772369838,-3,-10,-8,-2,0,0,-19,11
1501931772369838,-43,-3,15,3,1,3,9,21
1501931772384901,-15,1,-13,-1,1,4,15,16
1501931772384901,-8,1,2,1,-3,-5,-19,-25
1501931772386850,33,9,28,-3,-3,-5,-5,20
1501931772386850,-99,-2,-5,-6,0,1,4,-1
1501931772407881,10,-1,-4,-2,0,-1,-1,16
1501931772407881,19,3,-4,2,2,-1,3,15
1501931772408841,-3,4,-1,-4,-2,3,8,9
1501931772408841,-8,5,-4,-1,-1,0,0,18
1501931772420909,23,-4,-1,-4,0,-2,-2,6
1501931772420909,8,14,-2,-7,-3,0,-10,1
1501931772429882,44,-12,-4,-3,-5,-1,7,48
1501931772429882,7,15,21,2,0,-3,-2,-51
1501931772444883,-6,-7,-34,-4,-3,-5,-10,-5
1501931772444883,-6,-18,13,4,2,-1,-2,15
1501931772446843,-33,-1,-7,5,0,0,2,7
1501931772446843,-23,-10,-12,-13,-3,-3,8,-9
1501931772474887,0,-2,10,7,0,2,-18,-13
1501931772474887,-14,-3,-5,-8,-5,-4,0,4
1501931772476854,21,-4,12,10,3,-2,-1,-56
1501931772476854,26,-5,-11,0,-2,-5,-21,5
1501931772489912,-9,-2,8,-2,-1,-1,14,-8
1501931772489912,13,-9,0,-4,-1,-3,6,69
1501931772491847,-32,3,-7,-3,-1,0,4,-15
1501931772491847,-1,-6,14,9,0,-1,-11,12
1501931772504910,7,-1,-10,-9,-2,1,8,36
1501931772504910,15,-1,-8,-1,0,3,23,9
1501931772506859,3,1,-4,0,1,0,0,-38
1501931772506859,7,6,6,-3,-6,2,35,28
1501931772527887,38,0,27,3,-2,-3,-5,50
1501931772527887,-6,3,-20,-1,0,3,48,-24
1501931772528848,27,-2,11,1,0,-2,7,8
1501931772528848,55,-10,-13,-5,2,1,20,7
1501931772549890,-16,0,-4,-5,-2,-4,8,33
1501931772549890,27,-8,6,-1,-6,-6,8,59
1501931772551850,-14,7,-1,-2,1,5,5,30
1501931772551850,63,7,16,0,-1,0,15,14
1501931772564860,-21,-6,-27,-4,-2,-5,-7,-17
1501931772564860,2,-6,1,0,-1,-5,-19,-37
1501931772566849,-10,-5,0,-5,-2,-4,-6,-83
1501931772566849,-8,8,10,1,2,1,-2,3
1501931772587917,-3,1,-4,0,0,2,-2,-15
1501931772587917,-7,6,9,4,2,4,-4,-53
1501931772588859,-12,-10,-7,-3,-3,-1,-8,-5
1501931772588859,12,2,-4,-2,1,2,-7,-19
1501931772609898,-9,1,15,8,-2,-2,-2,-23
1501931772609898,-10,-5,-13,-3,-1,0,-4,-14
1501931772611864,-33,-2,15,5,0,-2,-4,0
1501931772611864,32,-8,-33,-7,-8,-8,-30,67
1501931772624921,-21,8,1,-4,0,1,-1,-56
1501931772624921,32,4,14,1,2,-1,5,6
1501931772630874,-12,5,-12,3,1,0,-3,13
1501931772630874,-20,-1,3,-2,-1,0,-7,-2
1501931772645873,-19,5,-4,0,-2,0,-11,-5
1501931772645873,58,-5,-10,-5,-2,0,1,-12
1501931772654907,5,6,-4,-1,1,-3,12,-12
1501931772654907,4,1,-2,-3,-4,-1,-9,10
1501931772669898,-9,4,18,2,2,0,-9,-43
1501931772669898,-31,-5,-9,6,2,2,-12,-11
1501931772671856,-12,-5,5,-7,-4,1,0,106
1501931772671856,17,-2,-2,2,0,1,6,-16
1501931772692899,-7,0,-9,3,1,0,5,-25
1501931772692899,-3,8,19,4,1,2,-11,78
1501931772693859,3,1,-9,-8,-4,-3,-11,-53
1501931772693859,-53,-13,-3,-4,-4,-3,-4,-21
1501931772705899,14,-4,-2,-3,-2,-1,-2,20
1501931772705899,-20,-8,-7,-5,-4,-2,-1,70
1501931772714930,40,14,22,3,-3,-3,-17,-46
1501931772714930,10,-1,-13,-2,2,1,2,-18
1501931772729905,11,-4,-21,-2,-1,0,16,-41
1501931772729905,-32,1,6,-2,-1,-2,-17,-54
1501931772731870,29,2,14,5,3,4,2,15
1501931772731870,-18,1,19,6,1,-1,1,-100
1501931772752906,5,0,-10,-2,0,-1,3,42
1501931772752906,-15,-13,-19,-5,-2,-5,-8,-12
1501931772753862,-15,6,-9,-1,-3,-5,-1,-67
1501931772753862,10,6,13,5,2,1,10,27
1501931772765909,7,-25,14,-2,-2,-2,-28,51
1501931772765909,-22,10,4,5,3,3,10,-101
1501931772774935,-33,-5,-19,-4,-3,-2,11,37
1501931772774935,32,2,1,-1,-2,1,-10,11
1501931772789929,4,-1,-5,-5,-1,-2,-2,-1
1501931772789929,-15,-2,4,-6,-5,0,17,32
1501931772791863,-8,-1,4,-4,-3,2,-2,24
1501931772791863,-23,6,-12,-2,-3,-2,-4,6
1501931772812932,24,7,-8,-4,-5,-5,-2,47
1501931772812932,5,-3,-1,-7,-2,2,-10,-2
1501931772813866,57,-9,-3,0,-1,0,-3,-94
1501931772813866,-56,-8,-31,-6,0,-4,-7,-22
1501931772825907,40,1,38,3,2,3,6,33
1501931772825907,-22,-2,-3,1,-4,-5,-10,2
1501931772834937,3,0,23,2,0,-1,10,39
1501931772834937,23,-7,-37,-3,3,3,-2,7
1501931772849929,-19,3,15,5,0,1,2,-19
1501931772849929,19,3,-10,-1,1,0,-14,52
1501931772851865,-3,-7,1,2,1,0,-6,-6
1501931772851865,4,-4,19,-2,-2,-1,-2,10
1501931772872880,9,-1,-28,-6,-5,-2,17,-24
1501931772872880,-3,4,12,-1,1,2,2,-1
1501931772873867,-24,-1,-19,2,3,1,-3,15
1501931772873867,-2,12,11,2,1,0,1,-32
1501931772885880,-49,-10,-7,-3,-6,-5,-23,22
1501931772885880,-3,-8,-10,1,1,1,1,-18
1501931772894940,-24,-5,-2,0,0,-3,0,-58
1501931772894940,16,-4,5,3,-2,-3,-16,-7
1501931772909912,-78,-7,-3,-4,-2,-1,0,-22
1501931772909912,26,14,-4,-1,-1,-4,17,-36
1501931772911870,-39,-9,-9,-6,-2,1,-2,33
1501931772911870,-12,6,14,0,-2,2,2,7
1501931772932918,-17,-1,-5,-1,2,-1,0,-45
1501931772932918,23,-2,0,0,-1,-3,-5,22
1501931772933883,4,4,-9,-3,1,-1,-3,4
1501931772933883,2,4,5,4,1,2,9,-5
1501931772945914,27,-1,7,0,-1,2,-1,10
1501931772945914,17,5,8,2,-2,-1,-7,-64
1501931772954912,33,4,0,1,-2,-1,-5,13
1501931772954912,-30,-7,11,-1,0,0,0,6
1501931772969885,13,-5,-24,-4,-2,-4,6,34
1501931772969885,-4,-10,-1,-3,-2,-4,-3,-4
1501931772975914,-27,1,-2,-5,-2,0,0,-4
1501931772975914,-4,0,-3,0,1,1,4,4
1501931772992937,33,4,3,0,-1,2,-2,-54
1501931772992937,-27,-5,11,1,0,-2,0,17
1501931772993880,-12,-2,-8,-1,-1,-2,2,63
1501931772993880,29,-4,0,-3,-2,-8,-2,70
1501931773014918,26,1,6,4,0,4,-4,31
1501931773014918,0,4,-3,-2,-2,-1,-10,14
1501931773016876,11,-4,11,-3,2,6,8,9
1501931773016876,22,-5,-34,-10,-7,-3,-4,-41
1501931773029894,-7,-1,-4,4,3,-1,-4,-16
1501931773029894,-3,-3,-2,-4,-4,-3,4,-9
1501931773031877,-20,-12,8,2,-2,0,-6,-15
1501931773031877,22,3,7,1,-2,-7,-13,67
1501931773052917,18,8,0,-2,0,0,8,-45
1501931773052917,-14,1,2,0,0,0,2,-3
1501931773053879,-3,-5,-11,0,-2,-1,-2,20
1501931773053879,-50,-10,6,-2,-3,-1,-11,1
1501931773074920,-8,-6,-8,0,0,-1,3,21
1501931773074920,-3,0,7,2,1,-1,-6,33
1501931773076889,34,-8,-19,-4,-2,-3,2,-39
1501931773076889,-12,-4,4,0,-3,0,9,-3
1501931773089941,-8,5,-12,-1,1,0,-1,14
1501931773089941,-24,4,1,1,-2,-3,4,-35
1501931773091890,-23,3,10,0,-1,1,5,-17
1501931773091890,-17,-11,-4,-3,-1,0,3,-46
1501931773112944,-39,7,10,3,0,-6,-6,-40
1501931773112944,10,-6,-16,-1,-1,4,9,-15
1501931773113882,52,12,8,1,-5,-7,-6,2
1501931773113882,-11,-8,-6,-4,-3,-3,2,-20
1501931773134918,14,10,5,-4,-1,1,7,-44
1501931773134918,13,-20,-8,-4,-5,-10,-12,20
1501931773136894,-6,5,6,5,7,4,-1,-32
1501931773136894,-12,-13,-15,-3,1,0,1,-26
1501931773149895,12,-5,-1,2,-2,-3,-6,34
1501931773149895,6,1,28,2,-1,4,1,35
1501931773156904,-1,-5,-35,-5,-3,-1,-3,-10
1501931773156904,2,5,1,0,0,-1,-7,-23
1501931773172924,-6,-6,6,-2,-3,-1,-1,77
1501931773172924,-17,1,-16,0,2,0,-2,-71
1501931773173886,-28,4,13,0,-1,-1,-1,0
1501931773173886,-22,-6,-10,0,3,0,0,-2
1501931773194923,16,-3,7,-10,-7,-6,-7,-43
1501931773194923,1,5,8,4,3,3,10,-37
1501931773196889,29,-2,6,-2,1,-1,-2,-8
1501931773196889,3,6,-11,-1,1,3,15,19
1501931773209938,23,1,3,2,2,-1,-4,-4
1501931773209938,-6,-2,-4,0,-3,-4,-4,5
1501931773215977,-7,0,-13,-3,-2,-3,-5,3
1501931773215977,4,10,20,-1,-1,2,6,28
1501931773232962,31,-6,-5,-1,-1,-2,-5,45
1501931773232962,22,6,1,1,4,5,4,-24
1501931773233920,-8,6,14,3,-5,-4,-5,19
1501931773233920,23,-6,-11,-4,-5,-7,-17,50
1501931773254955,-13,-9,-5,2,2,1,5,-42
1501931773254955,13,6,-11,-7,-1,-3,-9,23
1501931773256902,-12,-11,-4,-2,1,0,3,-2
1501931773256902,19,15,-10,4,1,0,-2,-37
1501931773269914,-7,10,8,1,-2,-2,-4,49
1501931773269914,32,-12,5,-8,-4,1,4,33
1501931773275955,-20,5,-13,-1,3,1,3,17
1501931773275955,0,4,22,2,0,1,1,-10
1501931773292952,-17,-4,-15,-2,1,-2,2,2
1501931773292952,4,2,6,3,1,0,1,-1
1501931773293893,21,-4,-23,-2,-3,-6,-7,6
1501931773293893,12,0,9,1,1,0,0,2
1501931773314934,-11,-5,-3,-3,-4,-2,-11,-17
1501931773314934,-23,-7,-19,-1,-3,1,12,74
1501931773316903,-20,-9,7,-6,-3,-3,-10,-21
1501931773316903,-21,10,5,4,-2,-3,2,-35
1501931773329898,-13,-6,-9,-1,2,2,0,-16
1501931773329898,-22,0,5,0,-1,-3,-8,29
1501931773335943,-4,1,-13,0,3,2,7,3
1501931773335943,6,-1,12,0,-4,-4,-8,-2
1501931773352966,5,-6,-8,-2,-2,0,11,21
1501931773352966,0,9,3,1,-1,0,-4,51
1501931773353934,-69,-10,14,-4,-4,-2,1,43
1501931773353934,13,-11,-33,-4,-1,-2,-2,-7
1501931773374966,25,1,15,-9,-4,-2,1,2
1501931773374966,-12,-14,-7,0,1,0,1,-33
1501931773376900,11,8,10,-2,-4,-5,-8,-29
1501931773376900,13,-2,1,-3,1,0,-6,-21
1501931773389915,-22,-13,7,3,-1,-2,10,4
1501931773389915,-16,6,-7,-1,-1,-1,-3,-57
1501931773395965,37,-4,-3,1,-1,-2,-10,-10
1501931773395965,-8,-4,-6,-4,-4,0,0,-7
1501931773412964,4,4,0,0,0,0,-8,-34
1501931773412964,-19,-3,1,-3,-2,-2,-2,23
1501931773413900,78,13,12,7,3,1,7,-17
1501931773413900,-3,2,-12,-9,-5,-3,-4,3
1501931773434941,-5,6,0,0,-3,-2,-5,12
1501931773434941,3,1,12,-5,0,-2,-12,-36
1501931773436900,-35,-6,-17,-2,-1,0,9,-19
1501931773436900,-34,-7,6,4,1,3,6,10
1501931773449958,16,11,12,2,0,0,-2,-19
1501931773449958,-24,3,-4,-2,-7,-8,-15,-10
1501931773455966,15,7,4,2,0,-1,-5,-7
1501931773455966,31,10,13,2,2,1,-1,-51
1501931773472966,-29,-2,-6,-3,0,2,9,55
1501931773472966,-22,-5,-1,1,-1,-7,-13,-13
1501931773473904,-16,-10,13,4,-1,-4,0,23
1501931773473904,42,10,-5,3,0,0,6,17
1501931773494976,-18,-1,1,-5,-3,-3,-13,59
1501931773494976,70,-13,-19,-1,4,3,7,-33
1501931773496927,-4,-4,-7,-1,-1,-1,-4,-19
1501931773496927,-14,-16,-6,-3,1,1,5,12
1501931773508937,-1,-1,17,10,5,3,-3,-45
1501931773508937,-1,1,-4,-3,-4,-3,-5,4
1501931773517939,-20,8,34,0,-4,-2,3,-4
1501931773517939,-12,-6,-58,-13,-3,-2,-1,12
1501931773532964,0,2,-7,-2,-4,-1,3,-1
1501931773532964,-26,-9,-11,3,-1,0,2,14
1501931773533907,-8,0,8,0,-3,0,-6,-6
1501931773533907,11,-4,6,4,1,-2,4,57
1501931773554967,-1,1,11,-6,-1,-1,-9,-1
1501931773554967,26,-1,10,1,0,0,-1,-3
1501931773556918,3,4,-1,2,2,-1,-9,4
1501931773556918,-14,-12,12,-1,-1,-1,12,-35
1501931773568964,-14,-1,-32,-2,-1,-1,6,-18
1501931773568964,-6,-9,27,0,-2,1,0,-3
1501931773577920,-5,-10,-18,-2,3,3,2,-35
1501931773577920,7,-1,6,-2,-3,-3,-6,2
1501931773591953,5,-1,-7,4,3,-2,-2,-61
1501931773591953,-9,9,14,-2,-2,-1,3,-39
1501931773592921,16,0,-9,-5,-3,-4,-6,15
1501931773592921,-23,5,15,4,0,-2,-2,-17
1501931773614911,29,3,-4,-3,-3,-4,-2,4
1501931773614911,-5,0,-7,-3,0,-2,2,43
1501931773614911,3,-17,-15,-5,-2,1,-11,-39
1501931773614911,11,11,10,0,-1,0,7,7
1501931773636946,-13,4,-3,-1,-4,-1,-2,-11
1501931773636946,11,10,-4,-1,0,-2,-4,14
1501931773637914,-4,-1,-6,-2,1,0,7,38
1501931773637914,-16,-8,14,-2,-4,-3,-2,-5
1501931773651918,-7,-1,2,3,1,0,0,6
1501931773651918,4,3,31,8,-1,2,6,-11
1501931773652914,-29,-2,-53,-11,-3,-3,-6,8
1501931773652914,-13,-5,-1,1,0,0,-3,-16
1501931773674915,9,-3,-21,0,1,1,3,4
1501931773674915,8,-1,8,-7,-3,-3,-8,3
1501931773674915,10,3,5,6,3,1,3,29
1501931773674915,8,9,0,-3,-4,-3,-9,73
1501931773696926,-25,-14,-9,-4,-2,0,7,-3
1501931773696926,14,17,-12,-6,0,4,2,-12
1501931773697932,1,-5,0,4,-1,10,1,-6
1501931773697932,-5,0,-12,-3,0,17,8,-9
1501931773711950,-12,-10,20,4,2,18,2,10
1501931773711950,34,-6,-23,2,3,9,2,29
1501931773712917,-41,0,11,-11,-10,-9,4,-46
1501931773712917,16,-2,15,3,0,-12,-5,1
1501931773734937,15,-8,-12,0,-2,-17,-25,-1
1501931773734937,-33,-1,-9,3,3,-2,15,9
1501931773734937,26,4,16,-1,-1,-8,-10,9
1501931773734937,0,3,5,2,0,-6,-2,-12
1501931773756980,-6,3,3,-2,-1,-6,2,41
1501931773756980,-1,-8,12,0,-4,-13,-12,-3
1501931773757934,10,1,-4,-3,1,-2,6,3
1501931773757934,-12,-16,-27,-1,0,-3,6,-15
1501931773771982,-23,8,10,-3,0,-3,-2,6
1501931773771982,51,-2,2,5,1,-1,-5,-23
1501931773772921,-25,0,3,0,-2,-1,13,18
1501931773772921,11,-1,0,3,1,-1,-8,-10
1501931773794938,3,3,-10,-3,-1,1,-2,-1
1501931773794938,-25,-4,-1,-4,-2,-2,2,-18
1501931773794938,5,-2,8,-2,0,3,-7,-7
1501931773794938,2,1,0,-2,-1,0,-13,-11
1501931773816986,2,2,8,-1,-1,2,13,5
1501931773816986,-10,-7,-12,-9,-6,-3,-9,-7
1501931773817933,-5,-4,-8,0,1,1,4,48
1501931773817933,-12,8,11,2,3,1,2,-14
1501931773831972,11,-6,-6,-1,-4,-1,5,28
1501931773831972,15,3,-10,-1,-2,-4,2,31
1501931773832924,0,-1,7,2,0,-3,0,2
1501931773832924,20,-11,-6,-1,0,0,-7,8
1501931773854941,-7,3,-3,-3,-2,-2,1,-23
1501931773854941,-15,0,-35,-5,0,0,-6,4
1501931773854941,9,0,29,0,-3,-2,2,-4
1501931773854941,-3,1,23,0,-2,-4,-14,30
1501931773876937,14,0,3,-1,1,3,1,-31
1501931773876937,-26,-16,-16,1,-2,2,11,55
1501931773877927,13,6,-8,1,1,-1,-19,-15
1501931773877927,-18,-5,-17,-4,-2,2,11,-2
1501931773891939,2,-5,6,1,2,-1,-9,-21
1501931773891939,-11,8,26,6,-1,1,3,10
1501931773892937,7,5,-15,0,0,2,3,-1
1501931773892937,-3,-7,-1,-10,-3,-1,0,-11
1501931773914929,58,-2,-27,-10,-5,-8,-4,4
1501931773914929,-19,1,2,6,5,6,7,1
1501931773914929,3,13,10,-3,0,-1,2,-14
1501931773914929,-13,-2,15,5,1,2,3,-7
1501931773936930,-17,-9,-18,2,3,-1,1,-24
1501931773936930,-39,-2,-1,-7,-1,-4,-8,-5
1501931773937930,30,-2,-1,3,-1,-1,-7,-85
1501931773937930,7,1,-18,-7,-3,-2,0,13
1501931773951965,-14,9,20,7,2,3,-2,4
1501931773951965,13,-5,-6,-6,-3,-4,-10,-21
1501931773952930,-23,-2,-4,3,2,3,1,16
1501931773952930,5,8,3,2,-2,0,1,-21
1501931773974932,-6,-8,-10,-5,-2,-2,-3,-15
1501931773974932,12,-8,-32,-8,0,0,0,-22
1501931773974932,10,-2,-2,1,0,1,1,19
1501931773974932,-22,2,3,-1,-1,-3,13,-8
1501931773996935,-2,8,-9,-1,-2,2,0,18
1501931773996935,-3,11,0,1,-3,-2,8,5
1501931773997934,-5,8,-8,-2,0,2,0,9
1501931773997934,-26,-3,0,6,2,-1,-7,7
1501931774011975,4,-1,19,2,0,-1,-3,73
1501931774011975,-28,-12,-9,-7,-4,-3,8,-46
1501931774012945,-23,-13,-8,-2,-2,0,-3,-3
1501931774012945,63,9,2,1,1,-1,-4,-7
1501931774034934,-10,-3,6,2,-1,-2,0,-2
1501931774034934,-6,-5,1,-1,-2,-2,-15,-2
1501931774034934,-19,-16,7,3,5,4,19,1
1501931774034934,17,-13,-15,-14,-6,-3,-1,-12
1501931774057003,-4,10,1,2,-1,-1,4,-47
1501931774057003,15,-1,21,4,2,1,-3,-9
1501931774057949,-17,-11,-13,-11,-8,-10,-10,15
1501931774057949,-18,-13,8,-3,-4,-2,-6,-5
1501931774071952,11,4,-4,4,2,1,-3,-17
1501931774071952,-12,-5,7,-2,-1,1,8,14
1501931774072949,15,1,-14,-2,-2,-2,-2,-9
1501931774072949,-14,-3,10,2,2,-1,-10,-9
1501931774094957,35,-3,24,0,-2,0,0,3
1501931774094957,0,8,-13,-3,-1,0,0,22
1501931774094957,23,-2,4,1,-2,0,2,14
1501931774094957,3,-2,-28,-1,1,-2,-5,-33
1501931774117001,-29,-5,6,-1,-1,1,1,-15
1501931774117001,5,4,-20,-2,0,1,3,5
1501931774117953,4,-3,16,1,-2,-3,-5,-4
1501931774117953,2,16,7,6,2,-1,-1,19
1501931774131988,-1,-2,-2,-4,-4,-4,1,37
1501931774131988,1,12,14,1,-2,-3,-12,-29
1501931774132941,-24,1,-21,-6,-2,0,23,-9
1501931774132941,-4,3,9,6,2,-1,-1,20
1501931774154962,-4,-4,-19,-4,-7,-2,1,15
1501931774154962,0,-10,19,-2,1,1,-2,6
1501931774154962,27,7,2,1,0,1,8,6
1501931774154962,11,-2,1,0,0,0,1,11
1501931774177005,-89,-14,-7,-7,-2,2,4,-8
1501931774177005,25,4,3,6,2,3,-3,-13
1501931774177957,-10,4,18,3,-1,-5,-12,11
1501931774177957,-1,-8,-14,-3,-2,-4,-2,-7
1501931774191984,-2,4,2,1,2,1,-4,-48
1501931774191984,4,-11,8,-2,-1,-1,-2,-14
1501931774192946,21,-14,-29,-7,-2,1,-9,24
1501931774192946,-10,4,15,-1,-3,0,-11,-21
1501931774214967,14,2,-15,-2,-1,2,20,-16
1501931774214967,-8,-5,3,0,-2,-4,-4,7
1501931774214967,25,8,11,0,-2,-1,-4,-8
1501931774214967,-13,-6,4,-4,-1,1,8,10
1501931774236981,0,0,-5,0,0,0,-6,12
1501931774236981,-26,-4,-1,-1,0,1,3,-12
1501931774237946,-4,0,5,3,-2,0,-3,16
1501931774237946,-4,-4,1,-1,-1,-5,-8,-3
1501931774252009,37,7,7,-2,1,0,-5,-3
1501931774252009,6,6,-10,-3,-1,0,5,6
1501931774252948,-10,-4,3,-2,-1,-1,-9,-1
1501931774252948,-6,1,-1,-2,-3,-1,8,12
1501931774274969,1,-4,-2,2,0,-4,-8,6
1501931774274969,2,0,5,2,-3,2,-3,-4
1501931774274969,8,-3,-3,-1,-2,-4,-6,-16
1501931774274969,23,2,-8,6,0,-4,-10,-9
1501931774296964,-7,-7,-16,-1,2,4,17,-15
1501931774296964,0,1,-9,0,-2,0,3,7
1501931774297949,-8,4,7,-2,1,0,2,-7
1501931774297949,0,-3,1,2,-4,-2,-7,-2
1501931774311996,3,0,0,-2,1,0,4,2
1501931774311996,-1,-3,0,1,0,-2,6,1
1501931774312970,-18,-1,-1,0,-1,-3,-4,-6
1501931774312970,6,-2,-21,-6,-1,0,4,18
1501931774334972,-1,6,1,-2,-3,-4,-12,22
1501931774334972,-14,-7,22,1,-2,1,7,-16
1501931774334972,24,5,-29,-6,-2,0,6,13
1501931774334972,-7,2,2,1,0,-2,-3,-10
1501931774357023,-17,2,10,1,0,0,-8,-11
1501931774357023,12,7,-11,-3,-1,-1,-4,6
1501931774357967,4,-3,11,-2,-3,-3,-4,1
1501931774357967,-12,0,6,0,1,3,5,3
1501931774372001,-15,-16,1,0,-1,-1,1,-2
1501931774372001,52,4,15,3,4,1,-7,20
1501931774372956,-30,-4,-24,-6,-2,-3,9,1
1501931774372956,-1,10,-8,-4,1,2,4,-1
1501931774394967,-18,-16,-8,-5,-5,-6,-6,-15
1501931774394967,3,-1,5,1,0,-2,-10,4
1501931774394967,-8,6,11,2,1,1,4,-10
1501931774394967,22,-2,1,-1,0,2,17,1
1501931774416990,-5,-2,5,2,2,-2,-7,-12
1501931774416990,-5,1,-11,-1,1,5,7,-32
1501931774417989,29,5,-4,-2,-3,-1,-5,-13
1501931774417989,-29,7,5,2,0,1,-3,8
1501931774432025,5,2,4,-2,-4,-2,-8,-17
1501931774432025,3,1,-14,-6,-1,-6,-1,2
1501931774432960,-5,3,26,6,0,0,-1,-19
1501931774432960,15,-3,-13,-5,-1,0,4,-41
1501931774454990,8,-1,0,-3,-3,-2,-9,7
1501931774454990,-46,-8,-15,2,-2,0,2,17
1501931774454990,3,-12,15,8,1,-3,-1,6
1501931774454990,0,-3,17,-8,-6,-7,-21,5
1501931774477035,14,9,1,0,0,2,11,40
1501931774477035,-18,0,-6,2,-2,-3,-3,-14
1501931774477991,8,-4,3,0,-1,1,-5,5
1501931774477991,-15,-7,2,1,2,3,2,4
1501931774491962,3,-1,-1,1,-1,0,-6,-6
1501931774491962,10,9,13,2,0,-2,-9,17
1501931774492978,-9,1,-8,-2,0,-2,-11,-32
1501931774492978,1,-9,-2,1,0,-2,-5,5
1501931774514984,8,4,-5,-5,-1,-3,0,-10
1501931774514984,-3,-2,-20,-3,-4,-6,0,10
1501931774514984,-15,-12,1,-1,1,0,-2,-14
1501931774514984,-1,5,-12,-3,-3,-3,14,4
1501931774537002,12,-10,21,4,0,-4,-5,-5
1501931774537002,15,0,-13,-2,-5,-4,-4,-25
1501931774537966,0,4,7,-1,-2,0,6,15
1501931774537966,-6,1,-14,-6,-2,1,0,-11
1501931774551037,-10,2,3,0,-3,1,-3,-11
1501931774551037,36,-1,12,-4,-1,-2,0,39
1501931774559985,-1,-2,-14,-2,-1,1,4,-1
1501931774559985,-1,-3,-5,2,1,0,-2,7
1501931774574990,-28,1,14,2,1,2,1,1
1501931774574990,-2,3,-18,-4,1,0,-1,-18
1501931774574990,-1,-3,-7,-3,-1,-1,-2,14
1501931774574990,-7,-1,8,-1,-2,-2,2,9
1501931774596982,4,3,3,-1,-2,-2,-1,3
1501931774596982,6,-6,2,2,0,-3,-11,-18
1501931774597981,-9,2,-10,-3,0,0,8,27
1501931774597981,2,-6,4,3,2,4,-3,-6
1501931774611012,-7,-4,-4,-4,-2,-2,11,-6
1501931774611012,-1,5,-2,0,-1,1,0,5
1501931774619113,23,5,-9,-1,-1,-1,2,-5
1501931774619113,20,-2,26,2,1,-3,-16,26
1501931774634114,-54,-3,-40,-9,-2,-3,-6,-11
1501931774634114,-4,0,3,0,3,2,16,-3
1501931774635081,-34,-3,-5,-8,-5,0,-6,-14
1501931774635081,0,1,7,3,2,1,14,4
1501931774657117,27,3,2,-1,-3,-2,-1,15
1501931774657117,-17,-4,-5,-3,-1,-1,1,-7
1501931774658049,1,-1,5,4,1,-3,-10,7
1501931774658049,-13,-6,-14,-4,-2,-1,1,7
1501931774671094,14,-5,4,1,1,1,2,-1
1501931774671094,-10,-4,6,-2,0,-3,-9,1
1501931774680051,13,-2,18,5,0,-1,-1,-4
1501931774680051,-35,-6,-15,-2,-3,-1,6,11
1501931774694120,6,-1,0,7,2,3,-4,-25
1501931774694120,-6,-1,-2,2,0,1,-8,-2
1501931774695095,-11,0,1,-1,0,1,0,14
1501931774695095,-20,-12,9,1,-1,-5,-4,-43
1501931774717113,37,22,-12,-4,-2,-1,0,19
1501931774717113,-3,6,19,2,-2,-4,-4,-10
1501931774718063,-29,-7,-9,-4,-1,-2,-1,2
1501931774718063,39,6,-5,-3,-5,-6,-11,7
1501931774731121,-17,-11,0,0,0,4,9,4
1501931774731121,-46,-17,6,2,-2,-1,-4,-32
1501931774740079,-12,11,-2,-1,4,0,-4,-1
1501931774740079,1,2,-15,-3,-3,-2,-8,15
1501931774754130,-12,-6,7,1,0,-1,4,-33
1501931774754130,25,-9,-3,-4,-3,1,5,15
1501931774755072,8,-7,-12,0,-2,0,3,2
1501931774755072,-13,-1,9,-1,-1,1,-4,6
1501931774777104,5,-7,2,0,-1,-3,9,30
1501931774777104,3,11,-6,-5,0,-2,-15,-45
1501931774778056,7,-8,-6,-3,-3,-1,2,-1
1501931774778056,31,11,4,-3,1,1,2,-15
1501931774791100,4,0,-12,-4,-2,-1,-5,-3
1501931774791100,20,-1,23,0,-2,-3,4,13
1501931774799105,-20,-13,-23,-1,2,-1,-4,-15
1501931774799105,11,15,-17,0,2,-2,0,0
1501931774814102,-1,-9,2,-1,-3,-3,-1,11
1501931774814102,-12,0,-6,-6,-2,-1,-2,6
1501931774815103,9,11,13,3,1,1,-2,-20
1501931774815103,-21,-7,5,2,-1,2,3,3
1501931774837092,9,7,0,-1,1,-2,-20,-16
1501931774837092,11,-5,-3,-1,0,0,8,3
1501931774838061,-28,-5,5,2,-1,0,4,4
1501931774838061,5,10,2,-3,0,2,-4,-13
1501931774860127,-9,0,-1,-4,-3,-3,6,-7
1501931774860127,-21,-9,-4,3,0,-2,-2,38
1501931774861080,11,1,13,1,2,-1,-6,4
1501931774861080,9,-9,-15,-7,-6,-4,9,4
1501931774874124,5,5,-1,3,2,1,-7,-4
1501931774874124,0,6,10,-4,2,4,4,18
1501931774875109,46,-4,13,2,-5,-1,1,5
1501931774875109,-4,8,6,1,-2,-1,-5,-11
1501931774897102,-15,-7,-13,-4,-4,-6,-4,-14
1501931774897102,2,0,-4,-1,-1,0,-2,-11
1501931774898097,2,3,-5,-4,-1,-1,-6,2
1501931774898097,-1,-6,10,4,2,0,-4,-13
1501931774920132,-4,-9,7,-2,-2,5,24,10
1501931774920132,-36,-14,-10,0,-2,-6,-3,-8
1501931774921101,31,-8,-5,-10,-5,-6,-7,-1
1501931774921101,-4,5,17,3,-1,1,1,15
1501931774934135,2,-7,-10,2,3,1,5,14
1501931774934135,9,5,3,3,0,2,2,1
1501931774935072,31,-5,3,-2,-3,-1,5,-7
1501931774935072,-4,-10,-26,-7,-3,-3,-3,-3
1501931774957130,8,0,6,6,0,1,-15,4
1501931774957130,6,11,12,-4,-3,-2,1,-26
1501931774958067,-17,3,-4,2,0,0,-6,0
1501931774958067,-5,4,17,1,1,-2,5,-9
1501931774980068,32,-1,-20,-11,-5,-6,-14,5
1501931774980068,-21,-2,-19,1,2,4,18,9
1501931774981080,-6,1,-2,-2,-1,-3,2,6
1501931774981080,3,1,8,-1,-2,-2,-13,-33
1501931774994131,-16,0,21,0,-3,0,9,-5
1501931774994131,11,-1,-20,-8,-6,-5,-5,-5
1501931774995089,-15,2,6,1,1,1,-9,-4
1501931774995089,-7,-1,-5,2,3,5,18,12
1501931775017111,-1,-1,0,-3,-2,-3,-6,1
1501931775017111,11,0,-17,-10,-6,-1,-4,-12
1501931775018071,-14,-1,-4,-3,-2,-1,-6,-5
1501931775018071,0,-6,-5,-2,-2,-1,4,7
1501931775040129,-17,10,12,2,-1,-1,10,-6
1501931775040129,9,0,4,3,1,2,-4,-3
1501931775041082,0,0,-3,-2,-1,-3,4,-5
1501931775041082,-8,-5,-9,-5,-2,2,9,11
1501931775054107,-15,9,0,-5,-3,-3,-12,-13
1501931775054107,3,-2,2,1,2,2,19,-1
1501931775055079,-39,-3,3,3,0,-3,2,26
1501931775055079,12,1,-4,-1,-1,-1,-21,-16
1501931775077135,0,-1,-24,-1,3,4,2,4
1501931775077135,-41,-8,1,3,1,1,12,6
1501931775078073,38,-1,2,2,1,0,8,14
1501931775078073,27,-13,-5,-1,-4,-6,-8,2
1501931775100122,9,6,15,5,0,-1,6,15
1501931775100122,5,-4,-5,-3,-2,-3,-11,1
1501931775101086,-1,4,0,5,-1,0,-2,3
1501931775101086,-11,-6,-10,-7,-3,-1,1,0
1501931775114146,-4,-1,1,-1,0,-1,-6,-19
1501931775114146,21,7,18,7,-5,-3,-11,5
1501931775115086,-10,-7,-19,-4,-2,-2,1,7
1501931775115086,-2,4,-4,2,2,1,-6,2
1501931775137150,-7,-2,0,-3,-2,-2,-1,-4
1501931775137150,-2,7,8,0,-1,-1,-9,-2
1501931775138113,-3,0,0,1,0,0,1,-3
1501931775138113,-31,3,1,3,0,2,24,1
1501931775160092,43,13,1,0,2,2,0,-2
1501931775160092,-15,-12,-5,0,0,-1,-16,1
1501931775161077,12,7,2,-3,0,-1,-5,-19
1501931775161077,-45,-3,-2,0,3,-2,-21,-2
1501931775174122,53,-1,3,5,-1,2,7,-44
1501931775174122,-11,4,9,-1,-1,-1,0,8
1501931775175087,-14,4,18,1,1,3,3,-15
1501931775175087,2,-3,-33,-5,-2,0,3,-5
1501931775197119,-31,-2,13,0,-3,-4,-13,9
1501931775197119,3,-14,-21,-4,0,0,-1,8
1501931775198082,-1,-5,5,-1,-2,0,-2,-18
1501931775198082,-18,-7,-11,-7,-6,-5,6,12
1501931775220130,-3,-1,3,0,1,-2,-10,-1
1501931775220130,19,8,-7,1,0,-1,-8,2
1501931775221086,-21,-13,6,2,2,-1,-12,4
1501931775221086,35,19,3,-4,-3,-4,-5,8
1501931775234154,-10,-7,-12,-2,-1,-3,6,8
1501931775234154,1,-12,3,1,1,0,0,-6
1501931775235123,0,-1,-15,-3,-5,-5,-23,-6
1501931775235123,1,-8,12,5,3,1,14,11
1501931775257129,-33,-3,-2,-5,-2,-1,-2,-5
1501931775257129,41,11,1,-3,0,-3,-8,5
1501931775258084,8,0,-6,-2,-3,-1,25,-8
1501931775258084,-50,-8,3,3,0,0,-9,-4
1501931775280086,-2,0,9,1,-4,-2,-1,14
1501931775280086,-9,-4,-13,-3,-1,0,6,-1
1501931775281088,-13,-4,21,0,-2,0,4,4
1501931775281088,53,-2,-17,0,2,-1,-17,-34
1501931775294148,-2,-7,5,-2,0,-2,1,-1
1501931775294148,-17,3,9,3,1,-2,-7,-2
1501931775295094,5,15,-12,0,0,2,-10,6
1501931775295094,-3,-5,10,0,-2,0,8,2
1501931775317154,-13,-6,-2,-2,-2,0,-9,-12
1501931775317154,-10,-5,6,-1,-4,-3,5,3
1501931775318098,0,-6,-9,-7,0,3,12,-4
1501931775318098,4,2,7,-1,0,2,2,1
1501931775340134,11,-7,-11,0,1,1,2,9
1501931775340134,22,6,-4,-2,-3,-3,1,-4
1501931775341109,4,1,-6,1,-1,-5,-20,4
1501931775341109,-24,-4,-5,-4,-5,-2,5,2
1501931775354155,16,-1,-5,-1,1,3,0,6
1501931775354155,-8,0,-1,0,1,0,6,7
1501931775355102,21,5,-11,-6,-6,-5,-10,3
1501931775355102,14,2,9,2,1,1,-15,-10
1501931775377093,1,1,-2,0,-2,-2,20,5
1501931775377093,12,6,-4,-4,-2,0,-2,-20
1501931775378109,-4,-5,-4,-1,0,2,3,4
1501931775378109,5,3,4,-2,0,0,-8,8
1501931775400155,12,-5,-1,-1,-3,-4,-16,3
1501931775400155,-43,9,5,0,1,0,3,5
1501931775401092,-8,-4,-8,-2,-2,-2,9,-10
1501931775401092,14,0,10,2,1,-2,-7,5
1501931775414131,-5,6,4,-1,-1,-5,-18,4
1501931775414131,-36,-16,-18,-3,-1,3,3,-13
1501931775415122,13,3,-3,0,-2,-3,-4,4
1501931775415122,-2,0,-1,-1,-2,-1,1,10
1501931775437158,-29,-12,-4,-1,2,-2,-13,-22
1501931775437158,3,2,-1,3,3,3,26,5
1501931775438096,-34,1,11,2,0,-2,8,1
1501931775438096,4,2,-20,-5,-2,1,-14,-4
1501931775460167,4,-1,-2,0,1,1,9,7
1501931775460167,18,-5,-6,-2,-3,-4,-11,-3
1501931775461117,-2,1,6,-3,-6,-6,-24,7
1501931775461117,21,-2,-1,0,1,4,33,-3
1501931775474160,-12,-6,-1,2,-4,-1,-4,2
1501931775474160,1,5,11,1,-1,-1,-4,-13
1501931775482168,-17,-4,-4,-1,-1,1,-17,0
1501931775482168,-26,-3,2,-3,-2,-3,-1,3
1501931775497143,41,1,1,-1,2,4,11,8
1501931775497143,3,-12,-1,-6,-7,-6,-13,17
1501931775498108,2,-2,-6,0,2,-2,-9,-13
1501931775498108,15,-3,1,5,1,1,19,4
1501931775520162,-21,6,-10,-3,0,-2,1,0
1501931775520162,12,2,9,-8,-1,3,3,16
1501931775521099,20,2,0,1,-2,-2,1,-34
1501931775521099,4,-4,-3,-1,-4,-1,-7,4
1501931775534168,-23,-10,-2,-1,-2,-5,4,2
1501931775534168,5,4,-2,2,-1,0,-1,-7
1501931775542148,-39,-1,7,2,2,0,12,11
1501931775542148,16,-2,1,-1,2,0,-7,-11
1501931775557170,6,4,2,-4,-3,-4,-17,-5
1501931775557170,-11,0,-5,-1,-3,-3,-7,21
1501931775558102,-14,-7,-1,1,0,1,35,-8
1501931775558102,57,11,7,2,0,-2,-8,7
1501931775580102,-16,10,-1,0,-1,-3,-19,3
1501931775580102,15,-1,-5,-1,0,3,14,10
1501931775581102,48,3,6,1,-1,2,2,7
1501931775581102,-28,-5,2,0,-1,-3,-8,-3
1501931775594179,-5,-9,-3,-10,-3,-1,4,7
1501931775594179,7,6,-1,-1,-2,-7,-1,-2
1501931775602145,-9,-4,-1,-1,0,3,-5,-24
1501931775602145,-15,3,3,1,-3,1,0,-1
1501931775617173,-31,-2,-17,-3,-5,-2,5,-16
1501931775617173,2,-5,5,0,0,0,2,-23
1501931775618105,-9,1,6,-3,-2,-2,-2,23
1501931775618105,-18,-4,-19,-4,1,-2,-3,-12
1501931775640147,-4,3,-4,-1,-3,-1,-1,5
1501931775640147,5,-2,-5,-1,-3,0,-2,-2
1501931775641120,-26,-8,1,2,2,1,5,-2
1501931775641120,12,6,8,-1,-1,-2,-3,4
1501931775654165,-4,4,12,6,0,0,5,11
1501931775654165,-5,-8,-14,-4,0,-3,-12,-18
1501931775662148,15,1,-2,-4,-4,-4,-6,1
1501931775662148,-17,-3,2,-2,0,1,15,14
1501931775677173,6,3,0,0,2,3,4,-3
1501931775677173,21,2,7,0,-1,0,4,-11
1501931775678109,7,-3,-1,2,3,2,-1,6
1501931775678109,-4,-4,-3,0,-1,-3,4,-4
1501931775700153,18,10,5,0,-1,-2,0,12
1501931775700153,-9,-5,-1,-1,-1,-1,-18,-1
1501931775701122,-2,-6,-5,1,3,5,38,30
1501931775701122,-47,8,6,1,-1,1,-8,-31
1501931775714145,-22,-10,-2,-1,-2,-2,-5,-8
1501931775714145,28,4,1,-1,-2,3,-18,2
1501931775722152,-70,-6,-9,-5,-5,-2,5,1
1501931775722152,-1,-17,-1,-6,-7,-6,-7,7
1501931775737147,15,-2,5,-1,-1,1,4,2
1501931775737147,-30,-6,6,0,-1,-3,-2,-11
1501931775738113,57,8,-4,-6,-5,-4,-15,-8
1501931775738113,-8,-5,-4,0,0,1,1,5
1501931775760176,-3,-5,-20,-3,-1,-3,-8,-17
1501931775760176,6,-8,2,0,-1,-2,0,-2
1501931775761114,11,8,-1,-1,3,3,-2,0
1501931775761114,9,0,2,-1,-2,-4,-3,11
1501931775774184,17,-2,6,3,0,0,-4,5
1501931775774184,-11,-2,-6,1,1,-3,-4,1
1501931775782156,6,-1,-4,-1,1,0,2,-10
1501931775782156,-5,2,-1,-1,-2,-5,-5,1
1501931775797154,4,1,1,2,0,-2,-21,-14
1501931775797154,-10,4,-6,-6,-7,0,23,9
1501931775798115,23,3,5,6,1,1,-6,1
1501931775798115,-19,-6,-1,-2,-1,-1,2,19
1501931775820158,4,4,1,-1,0,-2,1,0
1501931775820158,-28,2,10,3,-1,-2,-4,-16
1501931775821131,21,-5,-7,-6,-3,-2,-3,5
1501931775821131,31,3,-7,-3,-2,2,3,5
1501931775843128,-3,2,0,-1,2,3,13,-14
1501931775843128,-5,2,6,4,-2,-4,-8,4
1501931775843128,-29,2,-6,-1,0,0,-6,-8
1501931775843128,-1,-2,-3,0,1,-1,-6,-5
1501931775857185,-51,-11,-3,-6,0,-4,1,7
1501931775857185,24,3,3,1,3,3,3,0
1501931775858128,-2,-8,-2,-1,-2,-3,-6,-4
1501931775858128,-4,-4,6,3,0,-1,-6,-9
1501931775880119,13,-14,-14,0,-2,-2,2,-16
1501931775880119,23,11,1,-6,-1,-1,3,6
1501931775881119,-4,-2,14,-1,-1,-2,-5,-24
1501931775881119,-1,-2,-14,-1,1,-1,-4,-3
1501931775903138,9,3,4,0,-2,-1,-2,8
1501931775903138,-28,-10,-7,1,-2,-1,2,-4
1501931775903138,18,13,-3,-2,1,-1,2,4
1501931775903138,5,2,9,0,-2,-1,-3,-7
1501931775917192,23,-12,-8,-8,-6,-3,-3,2
1501931775917192,10,1,-8,0,0,-1,-14,4
1501931775918123,-2,-8,0,-5,-2,-2,1,8
1501931775918123,-2,3,2,2,1,0,3,2
1501931775940180,7,6,4,3,2,0,1,7
1501931775940180,-3,-9,-4,-1,1,-4,2,-25
1501931775941124,4,-2,-3,-1,-2,-2,-3,-2
1501931775941124,0,5,-2,-5,-3,-3,-6,0
1501931775963143,0,16,3,-1,2,2,2,-3
1501931775963143,-2,-1,1,2,-1,-1,-4,-5
1501931775963143,-6,-1,-4,1,-2,-5,-9,-8
1501931775963143,-49,-5,-4,-1,1,3,9,2
1501931775977186,-2,-1,3,-1,1,3,-1,-25
1501931775977186,7,9,5,3,1,1,20,-9
1501931775978127,-5,-15,-1,-4,-5,-3,2,-7
1501931775978127,-8,-10,-9,-4,-3,-6,-16,-15
1501931776000169,3,-1,-4,-1,-3,-1,11,19
1501931776000169,-1,1,-6,-2,0,-1,-6,10
1501931776001128,-8,9,2,3,1,-1,-5,-4
1501931776001128,18,5,5,2,2,0,5,3
1501931776023152,4,1,3,-3,-3,-2,-3,6
1501931776023152,-1,-8,-6,-8,-2,-1,-7,0
1501931776023152,6,-3,2,-1,3,3,4,8
1501931776023152,18,2,-1,-7,-6,-3,-5,-5
1501931776037198,10,1,0,4,0,1,6,-15
1501931776037198,-23,-4,-1,0,0,1,2,48
1501931776038134,-19,-7,-6,-5,-5,-3,-1,-7
1501931776038134,2,1,3,2,1,0,7,-17
1501931776060129,-5,-2,-3,-1,-2,-2,-7,-12
1501931776060129,9,0,-3,-5,-1,-1,-10,12
1501931776061132,-2,0,-2,4,3,3,2,5
1501931776061132,6,-1,-1,-2,-1,-1,-12,6
1501931776083151,-18,-6,-2,0,-2,1,20,4
1501931776083151,2,0,-3,-1,0,-1,-5,-17
1501931776083151,4,2,-6,-4,-3,-7,-4,4
1501931776083151,-3,-1,3,-1,-5,-5,-7,-16
1501931776097134,1,-6,-6,-5,1,0,-5,26
1501931776097134,3,-1,-2,-1,-1,0,-1,-23
1501931776098170,8,2,0,3,-3,-1,0,-3
1501931776098170,-3,-1,9,5,1,1,5,10
1501931776120172,0,-1,-1,-2,2,0,-4,-1
1501931776120172,1,-2,-1,-3,-2,-1,4,-2
1501931776121152,-4,0,-4,2,3,-1,-16,-2
1501931776121152,4,0,-6,-7,-8,-5,17,-4
1501931776143135,-3,0,3,-4,-7,-5,-9,0
1501931776143135,-3,-4,2,2,1,-1,-2,4
1501931776143135,1,-1,0,0,0,0,-1,12
1501931776143135,1,0,1,5,4,6,0,8
1501931776157180,-2,-1,-4,-1,2,2,-2,-5
1501931776157180,-1,-3,-7,-8,-6,-4,0,1
1501931776158135,-2,-3,-4,-3,-8,-4,-1,-3
1501931776158135,2,-4,-1,2,5,-7,-2,0
1501931776179203,0,-1,-1,1,-1,2,2,2
1501931776179203,0,0,1,0,-4,0,-5,-4
1501931776180139,-1,2,0,-7,-1,-4,1,1
1501931776180139,1,2,-2,1,5,-1,-9,-14
1501931776202139,-4,-2,-3,4,-3,0,6,-5
1501931776202139,1,0,-4,-2,1,-2,-4,3
1501931776203171,-1,-2,2,4,2,-1,1,-3
1501931776203171,0,-1,-4,5,-4,-2,1,7
1501931776218177,0,0,2,-2,5,4,-5,2
1501931776218177,-1,-2,-3,-2,0,0,-4,-9
1501931776224178,-1,-1,-2,-5,-7,-4,8,2
1501931776224178,0,1,1,2,-6,-3,-6,0
1501931776239214,-3,-1,-2,-1,5,-2,-6,0
1501931776239214,-1,-5,1,3,-3,-3,-4,-2
1501931776240141,1,-1,1,-4,2,2,24,0
1501931776240141,0,0,-2,-3,4,2,6,4
1501931776262181,-1,0,0,-1,-6,-3,-3,0
1501931776262181,0,3,3,2,6,-2,2,1
1501931776263142,-1,-2,-2,-8,-1,5,2,-6
1501931776263142,0,-2,2,11,4,3,1,-1
1501931776277202,-1,-1,-4,-12,-3,0,3,1
1501931776277202,-1,-3,-8,1,-8,-4,-1,-4
1501931776278145,0,-1,5,10,4,0,-9,2
1501931776278145,0,-1,-3,-12,-6,1,-1,-2
1501931776299206,-1,-2,-5,-4,1,-2,0,-1
1501931776299206,-1,1,1,0,0,0,-3,3
1501931776300157,-2,1,-2,-6,-12,-6,0,-13
1501931776300157,1,0,6,7,4,4,-11,4
1501931776322218,0,2,11,-18,9,3,28,-1
1501931776322218,-3,0,10,80,-1,0,7,-2
1501931776323181,-3,-9,-45,-79,-8,-7,-17,-5
1501931776323181,-8,-3,-3,-3,-1,-5,10,-5
1501931776337203,4,0,0,-11,-6,-6,4,9
1501931776337203,16,2,30,-4,12,10,-20,5
1501931776338147,2,10,17,105,9,9,5,1
1501931776338147,-10,-9,-35,-97,-17,-6,-10,0
1501931776359218,-7,-1,-5,15,-3,-5,-14,-1
1501931776359218,-3,-2,-9,-22,-2,-3,2,1
1501931776360161,6,1,16,10,-1,1,-13,3
1501931776360161,2,-1,4,-5,14,6,22,3
1501931776383148,-4,-2,1,21,-2,-5,-9,-3
1501931776383148,-5,-5,-1,-17,-6,0,1,-6
1501931776383148,-2,-3,-7,-35,8,0,3,1
1501931776383148,-1,-3,5,28,-6,0,-7,-2
1501931776397188,-1,-2,-3,-10,-5,-8,-8,-6
1501931776397188,-2,-1,-6,-2,-3,1,4,-2
1501931776398150,-1,1,3,1,-9,-5,0,1
1501931776398150,1,3,8,18,5,2,-5,0
1501931776419211,2,0,-15,-12,7,-2,-9,-2
1501931776419211,-1,-2,-7,-42,1,8,0,4
1501931776420189,-4,-8,-3,56,-7,4,3,-4
1501931776420189,1,-5,0,-33,-4,-3,-1,-3
1501931776442218,-3,-6,2,14,-2,-5,-4,0
1501931776442218,-2,1,-3,32,13,-3,1,-1
1501931776443185,0,0,3,-66,-11,-4,-1,2
1501931776443185,4,1,-7,14,-4,0,-1,1
1501931776456176,0,-1,-3,-13,-2,3,-1,-4
1501931776456176,-4,0,-7,-8,-3,-3,0,-4
1501931776464169,-1,-2,11,5,16,5,-2,4
1501931776464169,-2,1,1,19,-8,-6,-3,-3
1501931776479219,0,2,4,3,4,1,1,1
1501931776479219,-1,3,0,9,-5,-6,-1,-4
1501931776480156,-1,0,-1,-8,-3,-4,-1,0
1501931776480156,1,2,1,35,17,5,-4,2
1501931776503155,-2,-3,-2,-20,-6,-1,-6,-1
1501931776503155,-2,-2,-4,-10,11,2,3,1
1501931776503155,1,-1,5,32,-6,-1,-1,2
1501931776503155,-2,-5,-15,-62,-24,-8,-4,-1
1501931776516195,0,1,7,14,14,1,-2,0
1501931776516195,-2,-1,-1,31,-10,-3,2,-1
1501931776524221,-2,-3,-13,-91,-5,-4,-3,6
1501931776524221,-1,1,8,4,4,0,-6,-3
1501931776539198,1,1,-4,13,-10,0,0,-2
1501931776539198,-1,0,0,-14,-3,-2,-1,-5
1501931776540172,-1,1,-8,0,6,3,0,2
1501931776540172,-2,-1,6,14,3,0,3,-1
1501931776563177,1,-2,4,-11,-7,0,1,1
1501931776563177,-3,-4,-4,7,-2,-2,-2,1
1501931776563177,-1,-1,-4,6,4,0,-3,-3
1501931776563177,1,2,3,19,-7,-5,1,-3
1501931776576226,-2,-4,-6,-33,3,5,0,-1
1501931776576226,0,-2,-2,-7,-5,-3,1,-1
1501931776584221,-1,-2,4,25,3,0,-1,-2
1501931776584221,-1,-1,2,32,-4,-3,-1,2
1501931776599233,0,-3,-5,-38,-4,-2,1,2
1501931776599233,-1,-2,-3,-4,-1,-1,0,0
1501931776600194,-1,-2,2,-17,0,-4,-3,-2
1501931776600194,1,1,4,35,0,0,-1,0
1501931776622229,0,3,5,17,1,5,-1,0
1501931776622229,-1,1,-3,18,-3,-4,0,-4
1501931776623208,-2,1,3,5,3,0,2,-1
1501931776623208,-2,4,-2,-11,2,7,0,1
1501931776636203,-2,4,-2,27,-3,-1,-2,-3
1501931776636203,-1,3,-1,-19,-7,-2,-3,-1
1501931776644233,-1,-1,-2,12,-2,-5,-2,0
1501931776644233,-1,-7,-4,17,1,-4,-1,-2
1501931776659232,-1,-5,-2,-6,-3,0,0,-2
1501931776659232,0,-4,1,5,1,-2,-1,0
1501931776660180,-1,-4,-1,2,-4,-2,-2,-2
1501931776660180,-1,0,-1,-1,-1,0,-1,-3
1501931776682178,-2,-1,2,-5,-1,-1,0,-2
1501931776682178,0,-24,-3,-14,1,0,1,-2
1501931776683201,0,-9,-4,31,-2,-1,-2,-3
1501931776683201,-1,-4,1,-34,-1,0,-1,1
1501931776696228,0,2,-3,21,-4,-6,0,7
1501931776696228,-1,8,3,-29,0,2,-1,-8
1501931776704212,-3,4,-4,-43,-3,1,1,0
1501931776704212,1,-1,-1,67,2,-1,-3,-2
1501931776719229,1,3,0,-9,-2,0,1,-1
1501931776719229,-1,8,1,-15,-2,-3,-6,-4
1501931776720178,0,2,-7,15,-1,0,1,3
1501931776720178,0,5,1,-22,-1,-2,0,-2
1501931776742233,-3,-3,-4,8,-2,-2,-5,-2
1501931776742233,-1,1,2,8,1,-1,-1,-8
1501931776743209,0,-1,-8,36,0,3,-6,-6
1501931776743209,0,-5,-6,-34,-1,-4,-7,5
1501931776765243,2,-4,7,33,0,-1,17,2
1501931776765243,-1,-3,-7,-35,-4,2,0,4
1501931776766171,-1,2,9,9,-2,-1,4,-1
1501931776766171,0,-4,2,-4,0,-2,0,-3
1501931776779211,-1,-2,3,20,6,0,-7,-4
1501931776779211,-2,-2,-6,-36,-7,-3,-1,4
1501931776780173,-2,-4,-1,-12,0,-1,3,2
1501931776780173,-3,1,-4,-5,-2,-1,-9,-9
1501931776802219,-2,2,1,-13,-3,0,0,0
1501931776802219,-1,1,-7,6,2,0,4,3
1501931776803212,0,1,-1,0,-5,-4,-2,-2
1501931776803212,-2,1,-2,-30,-1,-2,3,0
1501931776825240,0,-2,5,2,3,3,-5,-5
1501931776825240,0,-1,0,26,-2,-3,-3,-2
1501931776826175,-1,1,1,-6,-2,-1,-2,1
1501931776826175,0,-2,-2,37,2,0,2,0
1501931776839247,-3,-1,-1,-48,-5,-3,-2,0
1501931776839247,-2,0,-3,8,-4,2,2,4
1501931776840203,-2,-3,4,-7,1,-4,-2,-4
1501931776840203,-2,-5,-14,-19,-3,-1,0,-3
1501931776863206,-1,-2,-2,-28,-4,-4,-5,-3
1501931776863206,-1,1,-1,28,0,2,-2,-2
1501931776863206,0,-1,6,9,-1,-4,-4,-1
1501931776863206,-1,-2,-2,-14,-1,1,-1,-2
1501931776885218,0,-4,-4,23,1,0,-3,-5
1501931776885218,-1,1,-1,-16,-2,-4,2,-1
1501931776886180,-1,1,-3,-7,-1,0,7,0
1501931776886180,0,0,5,10,0,1,3,6
1501931776899246,1,-2,-7,-20,-4,-1,-2,-2
1501931776899246,-1,-3,4,16,2,-1,-3,-2
1501931776900214,0,2,-2,0,-2,0,-4,-1
1501931776900214,-1,0,-7,-17,-3,-4,0,-3
1501931776922247,-2,0,4,16,0,-2,-1,-3
1501931776922247,0,0,12,19,2,-3,0,1
1501931776923213,-5,-8,-40,-40,-8,-2,-3,-4
1501931776923213,0,1,4,-10,2,0,0,-2
1501931776945221,0,3,-1,29,0,-1,-1,-1
1501931776945221,-1,-1,11,33,1,-2,-1,1
1501931776946181,0,0,5,3,0,-1,-3,-2
1501931776946181,0,0,0,15,-2,2,1,0
1501931776959252,-4,-3,-3,-30,-6,0,0,-3
1501931776959252,-2,-2,-2,-9,0,-2,-2,-1
1501931776960196,-1,0,10,6,1,0,-1,1
1501931776960196,-3,-2,-7,-16,3,0,1,0
