timestamp,emg1,emg2,emg3,emg4,emg5,emg6,emg7,emg8
1501927223631336,-17,1,2,-23,-4,-5,-7,1
1501927223631336,-9,-6,-14,-5,-5,-7,-22,-44
1501927223633347,-7,-4,-2,-3,-5,-8,-6,-21
1501927223633347,-3,4,1,0,5,8,23,2
1501927223634328,13,-1,-8,9,1,-1,-6,-20
1501927223634328,-33,3,9,-5,-1,-1,-6,61
1501927223636342,0,-8,5,12,1,-2,-9,-30
1501927223636342,-8,-1,-17,-3,-6,-4,7,-25
1501927223637308,-8,-8,-20,-15,-6,-5,-7,-51
1501927223637308,-7,4,11,16,5,-1,-14,8
1501927223651343,5,3,0,-7,-10,4,26,6
1501927223651343,4,-7,-6,-6,-3,0,26,28
1501927223659335,8,0,-2,10,7,1,26,35
1501927223659335,-8,-1,0,4,5,2,-5,-2
1501927223666373,-14,-2,3,0,5,10,38,26
1501927223666373,18,2,2,-3,1,1,6,27
1501927223680345,24,0,3,-1,-6,-7,-35,-81
1501927223680345,7,-1,2,-1,0,1,20,-4
1501927223696369,2,4,12,8,3,-1,-11,12
1501927223696369,-23,-7,-14,-8,-5,-1,-25,32
1501927223696369,7,-7,0,-3,-5,0,-2,75
1501927223696369,7,4,-2,0,-3,-3,15,7
1501927223743353,-4,-1,-4,-3,0,-2,1,3
1501927223743353,21,-1,-3,11,4,-1,-5,-14
1501927223744320,-12,0,-5,-3,4,10,50,-20
1501927223744320,29,4,-1,-13,-10,-3,-9,-9
1501927223745310,42,-2,1,5,0,-4,6,30
1501927223745310,-25,4,5,2,5,2,8,-15
1501927223748353,-4,-1,3,7,0,-8,-67,-2
1501927223748353,1,-4,-17,-5,-1,3,39,7
1501927223755349,20,-1,1,5,-1,7,57,44
1501927223755349,-15,1,6,1,-2,-5,-15,-46
1501927223762372,-20,-5,4,-3,-1,-8,-75,-31
1501927223762372,-20,10,10,-5,3,9,-6,-66
1501927223771313,-48,0,-6,-5,1,-6,-73,-18
1501927223771313,21,-6,-3,4,-1,4,42,49
1501927223785375,11,0,-2,2,1,5,32,65
1501927223785375,-18,-7,-8,-5,-5,-7,-18,-34
1501927223792374,-3,-2,1,6,0,-2,-15,-28
1501927223792374,2,-1,-8,-12,-6,-1,-19,-16
1501927223807357,22,-5,-4,-9,-6,-8,-21,-1
1501927223807357,8,-8,-2,10,2,2,4,33
1501927223816347,0,2,3,-4,-1,2,19,-39
1501927223816347,4,2,8,3,1,0,16,23
1501927223831357,-6,-3,-16,-12,-4,-2,12,16
1501927223831357,-15,2,0,-1,2,0,1,36
1501927223833316,-5,1,4,1,-1,3,31,-16
1501927223833316,25,-4,-4,-2,0,8,15,-44
1501927223854317,14,3,15,7,1,-1,14,-41
1501927223854317,-7,-3,-1,0,1,-4,-13,20
1501927223855316,-22,-7,-16,-7,-3,0,-2,8
1501927223855316,-9,2,-1,-11,-2,-5,-14,38
1501927223876379,-1,-1,1,-1,-1,7,44,7
1501927223876379,19,-3,7,13,-3,-8,-30,-20
1501927223878326,31,6,16,9,3,6,24,56
1501927223878326,-38,-5,-23,-23,-7,-3,27,56
1501927223891356,13,6,-2,-3,1,2,21,-16
1501927223891356,31,-1,4,0,-2,-6,-8,62
1501927223893318,-50,-2,10,4,1,-1,-15,-52
1501927223893318,-15,-3,0,3,1,-5,-11,53
1501927223914330,-14,-2,-7,-3,-4,0,-3,51
1501927223914330,32,-2,-3,0,0,4,5,16
1501927223915322,10,-2,-12,-9,-5,-10,-23,17
1501927223915322,-30,-1,6,6,0,0,5,10
1501927223936384,-12,0,4,-5,-2,-2,-10,-28
1501927223936384,-6,-3,-13,-4,-2,3,34,-22
1501927223938322,-5,1,6,0,0,-2,-24,-1
1501927223938322,0,-3,5,-1,-3,0,1,1
1501927223951363,0,-3,-5,1,2,1,5,20
1501927223951363,-17,0,-5,-1,-2,0,12,8
1501927223953321,-1,-1,-3,-5,-1,-3,-10,-8
1501927223953321,7,-1,0,6,-1,1,5,4
1501927223974381,15,-1,2,1,-2,-4,-18,-34
1501927223974381,-6,1,4,0,-1,3,5,-62
1501927223975324,10,0,-3,1,-2,0,-2,47
1501927223975324,6,0,1,5,-1,-5,-46,-47
1501927223996387,-13,-3,-5,-11,-2,-1,12,9
1501927223996387,-12,-6,0,1,-3,-10,-37,23
1501927223998325,-5,1,5,-3,0,4,15,-4
1501927223998325,-19,-2,4,7,1,-2,-28,-41
1501927224010390,-3,1,-2,-3,1,-4,-14,-12
1501927224010390,-3,-2,6,0,-1,-3,5,-25
1501927224017369,21,0,2,-7,-2,-3,-17,22
1501927224017369,-5,-3,-10,-3,-3,0,-1,-7
1501927224034342,1,-7,-13,-5,-1,-1,1,16
1501927224034342,-13,2,9,5,3,3,21,-13
1501927224035329,-4,-4,-10,-4,-3,-4,-15,-20
1501927224035329,5,-1,-2,-2,2,-3,-10,-16
1501927224056406,-1,2,9,5,-4,-1,-1,-37
1501927224056406,-1,-2,0,1,-1,-4,-11,22
1501927224058338,6,-3,-10,-3,-2,-5,-7,-18
1501927224058338,38,3,3,-6,-4,2,21,-18
1501927224070395,10,-1,6,8,2,4,14,43
1501927224070395,8,-2,-5,-6,2,0,-8,-7
1501927224077372,-9,-3,1,3,-1,0,11,-26
1501927224077372,7,3,7,5,5,3,17,3
1501927224094345,2,-2,-3,-6,-4,-1,-4,3
1501927224094345,-14,-1,-5,-3,1,-10,-30,2
1501927224095331,-6,0,-4,3,2,7,4,-19
1501927224095331,16,-2,2,-2,-4,-4,-7,24
1501927224124343,-5,-3,2,9,-2,-6,-25,-47
1501927224124343,-8,-4,-9,-14,-2,0,0,-11
1501927224125333,-13,-2,-7,-1,0,-2,4,-23
1501927224125333,3,0,-4,-4,-2,-5,-7,12
1501927224130399,5,4,9,6,-2,-3,-3,-1
1501927224130399,0,-4,-1,2,-6,-6,-29,38
1501927224137343,5,-2,10,3,1,0,7,4
1501927224137343,-3,-4,-9,-4,0,0,-1,-4
1501927224154334,2,-2,-6,-2,0,-1,-1,31
1501927224154334,-2,3,-5,-10,-4,-1,11,-16
1501927224155338,-8,-2,2,4,3,4,10,13
1501927224155338,-15,-4,0,-4,-6,-3,0,0
1501927224176373,-11,4,-5,-4,3,11,25,32
1501927224176373,-3,-1,-7,-10,-3,-2,6,-63
1501927224178336,2,-3,-3,-10,-3,-7,-10,-20
1501927224178336,-8,0,5,-6,-1,-3,-16,-15
1501927224190353,7,-3,3,8,-3,-2,9,-6
1501927224190353,-1,1,5,3,4,7,12,19
1501927224197379,-8,1,-3,-6,-3,-3,-1,10
1501927224197379,-4,-1,-4,3,3,-1,-1,-17
1501927224214356,3,-2,-6,-7,-5,-3,-23,7
1501927224214356,2,0,9,12,4,2,22,14
1501927224215349,-3,-3,0,-1,-2,-3,-2,-5
1501927224215349,10,0,-15,-11,-2,-1,-4,43
1501927224236368,-18,-5,-1,0,-2,-4,-17,-35
1501927224236368,-10,1,2,-1,-1,4,11,67
1501927224238339,2,1,2,1,-3,-2,6,16
1501927224238339,-17,0,1,-4,2,1,-11,-14
1501927224250411,11,2,-9,-5,-1,4,8,14
1501927224250411,33,-3,2,14,1,-4,-18,58
1501927224257378,19,-2,-6,-8,-4,-5,-7,12
1501927224257378,-1,6,4,-2,3,4,15,5
1501927224274355,-4,-1,-1,-6,-3,-2,4,-25
1501927224274355,2,0,5,1,-2,1,7,-28
1501927224275342,-24,0,-2,4,1,2,-3,-70
1501927224275342,3,-5,-9,-2,-3,-5,2,-19
1501927224296354,-10,0,3,2,-1,-2,-10,-22
1501927224296354,14,-2,-5,-2,-3,-4,-6,35
1501927224298341,-5,-4,-6,-1,-1,-1,0,103
1501927224298341,-6,1,3,-2,-2,-3,-7,-43
1501927224319353,-18,0,5,1,3,2,7,-8
1501927224319353,7,1,-3,-4,-2,-2,-13,-32
1501927224320344,-2,-1,5,9,4,1,3,26
1501927224320344,4,0,-3,-2,-1,4,-1,-14
1501927224334359,-1,-4,-1,-2,-5,-4,-1,13
1501927224334359,-14,1,0,0,-1,0,-6,-48
1501927224335345,10,0,-1,-11,-2,-4,-6,-27
1501927224335345,-1,-2,-8,1,-4,-1,4,-11
1501927224364352,-3,0,0,7,3,-1,-6,-1
1501927224364352,-31,-2,-1,-12,-5,0,1,17
1501927224365346,28,1,4,1,-4,-3,0,-5
1501927224365346,-39,-4,1,-1,-4,-7,-10,-6
1501927224370387,12,-2,-1,-2,0,-4,-5,28
1501927224370387,1,-2,-1,3,2,6,2,32
1501927224379356,-4,-6,-14,-8,-3,0,6,-15
1501927224379356,24,4,10,10,2,-1,-4,22
1501927224393348,3,-1,-5,-2,-3,-5,0,-42
1501927224393348,-7,-6,-7,-9,-3,-4,8,-12
1501927224400347,-1,2,3,2,-4,-5,-18,13
1501927224400347,17,-3,-3,-1,2,2,7,-34
1501927224416389,-17,0,-4,2,-1,0,7,63
1501927224416389,-9,0,10,10,0,-3,-3,-34
1501927224418349,-3,-2,-7,-7,-5,2,1,-8
1501927224418349,2,1,5,0,1,-3,-3,16
1501927224430421,13,-2,2,-2,-2,-2,-6,-1
1501927224430421,1,1,-2,-4,1,-1,0,-11
1501927224439356,-6,-1,1,4,2,0,8,2
1501927224439356,-11,2,0,-5,-1,3,7,15
1501927224454353,55,-6,-5,-7,-4,-5,-14,-10
1501927224454353,-4,2,-3,3,2,3,15,-17
1501927224455352,-10,1,1,3,2,0,-2,20
1501927224455352,-5,0,3,3,1,0,3,-52
1501927224476413,-18,-1,2,-1,-3,1,2,-14
1501927224476413,-4,-5,-5,-3,-3,-4,-9,18
1501927224478354,0,-4,-2,-2,-2,1,6,-14
1501927224478354,-17,-3,-3,0,0,-1,-4,31
1501927224490393,-8,0,2,2,0,-3,-4,-19
1501927224490393,-7,3,2,1,3,0,-9,-21
1501927224499355,8,-2,4,-4,-2,-1,-2,-6
1501927224499355,-8,-1,-10,-9,-5,-5,-7,72
1501927224514369,-15,-1,2,0,5,5,16,-23
1501927224514369,26,2,1,-1,1,2,-9,-18
1501927224515354,-16,3,7,4,-5,-3,6,9
1501927224515354,8,-1,-2,-3,-3,-3,-10,8
1501927224536422,4,3,4,3,-1,-2,-2,-2
1501927224536422,18,-1,2,-1,-4,-5,-19,58
1501927224538356,-1,3,4,2,5,7,26,-13
1501927224538356,1,-5,-10,-6,-3,0,2,-26
1501927224550355,-18,1,0,-2,-4,-1,-1,6
1501927224550355,31,-1,1,3,-5,-3,-2,48
1501927224559364,22,-5,-8,-6,-1,-6,-20,6
1501927224559364,6,-2,6,7,4,2,8,3
1501927224574357,-4,3,-3,-5,0,0,-14,-45
1501927224574357,-11,0,-1,1,1,2,10,-28
1501927224575369,15,-3,-5,-3,-4,-4,-16,4
1501927224575369,11,-1,-3,0,-1,-2,5,11
1501927224596424,17,-1,4,-2,2,2,-3,53
1501927224596424,-3,0,-3,1,0,-1,8,6
1501927224598360,-46,1,-5,0,2,-1,-19,-86
1501927224598360,-1,-4,0,-1,-4,-1,3,-33
1501927224610431,-23,-2,-4,2,-2,-1,0,-52
1501927224610431,1,-4,-7,-14,-2,-1,5,10
1501927224619361,5,-5,0,2,0,-2,3,-11
1501927224619361,-30,0,-1,-4,-3,0,-9,11
1501927224634364,-4,0,-2,0,2,-1,-14,-30
1501927224634364,-13,-2,-4,4,-1,0,8,-22
1501927224635363,-6,-1,0,1,0,0,-9,29
1501927224635363,2,1,7,9,0,1,10,47
1501927224656391,1,0,-2,-2,-1,-1,12,-5
1501927224656391,-20,-2,-1,4,1,5,-2,-27
1501927224658363,12,2,0,-4,-1,-4,-5,-1
1501927224658363,12,-2,3,1,2,0,-3,-22
1501927224670426,8,-2,-8,-5,-4,-2,3,7
1501927224670426,15,-1,3,-3,-2,-2,-4,10
1501927224679365,-10,-1,-3,0,2,1,5,10
1501927224679365,11,2,1,0,-2,-6,-30,-27
1501927224694381,1,0,1,5,-1,-1,12,51
1501927224694381,-9,-3,-6,-11,-4,-5,-7,-50
1501927224695366,5,0,-2,-1,1,0,2,17
1501927224695366,2,-3,0,0,1,1,-5,-2
1501927224715399,-5,-1,-3,0,-2,-2,-10,-4
1501927224715399,-7,1,4,7,3,3,17,21
1501927224722365,-6,1,-1,-1,-2,1,0,-21
1501927224722365,-10,0,0,-2,0,-2,0,-3
1501927224739377,1,-2,0,-4,-3,-5,1,5
1501927224739377,-4,1,-5,-2,1,0,0,-3
1501927224740367,-4,-1,6,7,2,1,2,16
1501927224740367,9,-3,-4,-2,-3,3,10,-8
1501927224761409,1,-4,-9,-8,-5,-3,-1,5
1501927224761409,3,0,-1,-5,-3,-2,-14,48
1501927224763370,31,-4,1,8,-4,-5,7,-11
1501927224763370,-5,-3,2,0,1,-1,-13,-1
1501927224775410,-2,0,-3,-2,1,1,12,-4
1501927224775410,-1,-1,4,2,-1,-2,2,7
1501927224782436,-2,2,-5,-5,-3,-7,-35,-34
1501927224782436,6,-3,-4,-4,-3,4,18,4
1501927224798410,-7,-3,-3,0,-2,0,2,-25
1501927224798410,-10,1,2,-6,-3,-1,4,-3
1501927224805420,-4,0,3,-1,-2,-2,-5,-6
1501927224805420,6,0,0,-1,-2,-6,-8,-25
1501927224821414,7,-1,1,3,4,2,-5,30
1501927224821414,19,-2,0,1,-6,-14,-7,44
1501927224823371,-6,-1,-6,-7,-1,9,14,0
1501927224823371,-4,-2,-3,1,1,-6,-1,9
1501927224835375,-5,1,0,-2,1,8,7,0
1501927224835375,-14,-3,-1,-2,-2,-2,-6,-39
1501927224844375,-9,-2,-5,-4,-3,-4,2,16
1501927224844375,0,0,-3,0,-2,-6,4,16
1501927224859386,-16,-3,-7,0,-3,2,-9,-10
1501927224859386,-10,0,-3,-2,2,0,-1,-61
1501927224860374,2,1,4,0,-2,2,10,14
1501927224860374,-10,-2,-5,-3,-1,1,-8,-62
1501927224881416,-6,0,-2,1,2,-5,3,-5
1501927224881416,-10,-2,-1,1,-1,3,7,-7
1501927224883395,5,-2,-6,-11,0,-3,4,-1
1501927224883395,0,-1,3,5,1,3,7,33
1501927224895423,2,-2,-6,-6,-3,1,3,47
1501927224895423,-7,-2,-3,-1,1,1,-5,-20
1501927224911382,-2,1,1,5,-1,0,-2,6
1501927224911382,-3,-1,-8,-1,-1,-4,-4,-6
1501927224919388,2,-2,-2,-10,-5,-8,-7,3
1501927224919388,-13,1,-3,2,1,13,4,-7
1501927224920387,9,-1,-3,-2,0,-3,4,12
1501927224920387,-3,4,3,2,-2,-2,-3,-7
1501927224941438,0,-1,1,3,2,0,-3,-29
1501927224941438,-14,1,-2,-3,-3,-8,-8,24
1501927224943417,-6,-2,1,-1,0,0,2,-15
1501927224943417,-1,-1,0,-6,-2,5,1,2
1501927224955391,-5,-3,-1,1,-2,-4,-5,-1
1501927224955391,3,-4,-9,-6,-6,-2,-1,30
1501927224964388,1,-2,0,4,0,2,3,8
1501927224964388,-2,3,-3,-3,-3,-3,-5,-2
1501927224979406,3,2,6,5,2,2,-1,1
1501927224979406,7,-4,-9,-3,-1,-1,-9,-18
1501927224980383,-5,2,1,3,1,0,-1,-13
1501927224980383,1,0,5,-1,-3,-1,4,22
1501927225001421,7,3,5,6,-2,0,-1,17
1501927225001421,5,1,1,-1,0,-5,-3,-25
1501927225003420,-3,-2,-1,-1,2,3,2,4
1501927225003420,1,-2,-4,1,1,-3,-2,5
1501927225015436,-5,-2,-4,-4,-2,-1,0,-4
1501927225015436,0,-1,0,2,2,3,1,35
1501927225024385,-7,-4,-7,-6,-5,-1,2,-14
1501927225024385,0,-2,4,2,0,-1,-6,2
1501927225039386,-1,-1,-2,-4,-3,-1,4,-5
1501927225039386,15,-1,-4,-1,1,-1,-2,-11
1501927225040384,-1,-2,3,0,-5,-10,-6,29
1501927225040384,-16,-4,0,0,2,9,2,-18
1501927225061435,-4,2,4,-2,-2,-3,-2,2
1501927225061435,13,-2,-4,-3,-1,-1,-2,-14
1501927225063388,-5,0,-3,0,3,0,-1,-6
1501927225063388,1,-3,2,-3,-5,-2,-1,8
1501927225075414,4,-2,-2,-1,-2,-4,-6,-6
1501927225075414,-11,-1,-2,5,1,-6,-1,-4
1501927225084390,-2,3,5,-1,4,10,2,29
1501927225084390,26,-2,-9,-5,-5,-4,-2,-6
1501927225099402,-40,-4,-2,-10,0,0,3,31
1501927225099402,-6,4,5,3,1,1,-1,-34
1501927225100388,-1,-1,-5,-3,-2,-2,-5,-43
1501927225100388,-2,-1,0,1,1,0,-1,19
1501927225121429,6,-2,1,-1,-2,-3,-3,0
1501927225121429,-6,-2,3,0,1,1,6,17
1501927225123398,-6,-1,-1,0,-2,-1,-2,4
1501927225123398,3,-1,-3,-5,-2,2,-6,-12
1501927225135414,16,0,6,10,2,-2,2,-9
1501927225135414,-1,-1,-4,-5,-4,-3,0,4
1501927225144393,9,-3,-6,-7,-4,-4,-5,-20
1501927225144393,-4,1,-3,0,0,0,-2,-16
1501927225159411,3,0,7,1,-1,-1,-3,-5
1501927225159411,-11,-2,0,2,0,2,4,4
1501927225160392,6,-3,-5,-9,-3,1,-3,9
1501927225160392,3,-1,-1,-3,0,-3,-6,0
1501927225181431,0,1,-2,0,-2,-1,0,-10
1501927225181431,2,0,4,0,0,3,-6,-17
1501927225183430,4,-1,-2,3,-3,-7,-2,17
1501927225183430,-6,-2,0,-7,-4,1,2,-1
1501927225195440,0,-5,-18,-8,-1,1,0,-2
1501927225195440,2,-1,2,-3,-5,-6,-4,13
1501927225204396,3,0,-2,-2,0,-2,1,-2
1501927225204396,-2,0,1,-1,0,2,0,13
1501927225219406,-2,0,-1,1,-5,-1,-3,-19
1501927225219406,-1,-1,-5,-3,-2,-3,0,4
1501927225220400,-2,1,5,6,3,4,1,-3
1501927225220400,-1,-1,-2,1,0,-5,0,-2
1501927225241409,3,-1,-1,1,3,5,5,14
1501927225241409,-1,-2,-12,-4,-5,-5,1,3
1501927225243432,-3,0,0,0,-2,1,-4,-11
1501927225243432,0,-2,-2,0,-1,-4,0,10
1501927225255441,5,-1,1,6,-1,-2,-7,-10
1501927225255441,-3,-1,2,0,1,1,2,2
1501927225264401,2,-1,7,4,-2,-11,5,24
1501927225264401,1,-1,-9,-9,2,8,-1,-12
1501927225279425,-5,-2,3,5,0,-3,-4,-9
1501927225279425,0,3,-3,-3,-1,1,0,0
1501927225280398,-6,-3,1,-6,-1,-1,2,-8
1501927225280398,-2,-1,2,6,-2,-2,1,6
1501927225302410,1,-1,-3,-4,-1,-1,0,-4
1501927225302410,-1,-2,3,0,-2,-4,-3,-8
1501927225304401,-9,-1,3,1,4,4,-3,-8
1501927225304401,11,0,-1,-1,-4,-5,-1,38
1501927225324426,-13,-3,-5,-7,-2,1,-7,-43
1501927225324426,2,1,5,3,1,-1,-1,5
1501927225325402,0,-1,-6,0,-3,-2,0,-7
1501927225325402,-7,-2,-4,-7,-6,-6,-6,-13
1501927225339424,1,-1,-1,0,1,3,2,17
1501927225339424,-2,-1,7,0,-2,-1,-3,-14
1501927225340405,0,-3,-9,-8,-3,-4,-7,0
1501927225340405,2,0,7,6,3,1,3,-4
1501927225361440,-3,-3,-9,-3,1,-4,-1,9
1501927225361440,-2,1,-3,-3,0,2,0,-9
1501927225363404,-4,-2,0,-1,-2,-1,-1,6
1501927225363404,-1,1,0,1,-3,-5,0,-26
1501927225384403,-1,1,7,3,3,3,-2,-11
1501927225384403,2,1,1,-3,4,6,4,15
1501927225385405,-3,-2,-8,-4,-5,-8,-6,-5
1501927225385405,-2,0,-2,1,1,2,3,3
1501927225399412,1,2,0,-1,-6,-5,0,11
1501927225399412,4,-3,-1,3,1,-1,-6,-14
1501927225400406,3,-1,-2,-3,-3,2,1,13
1501927225400406,-8,-1,3,-3,-4,-4,-3,-26
1501927225421446,5,-1,-8,-10,-4,-2,1,23
1501927225421446,-4,0,-4,2,-1,-1,-1,-7
1501927225423406,-18,1,4,-4,0,2,6,-30
1501927225423406,1,-4,-10,-4,2,1,3,2
1501927225444427,3,4,0,-4,-1,-1,-4,6
1501927225444427,-4,-1,4,-5,-2,-2,0,-4
1501927225445409,2,0,-1,7,2,2,1,11
1501927225445409,4,0,3,0,-1,-2,-2,7
1501927225458452,1,-1,5,5,0,-6,0,8
1501927225458452,1,-1,-5,-2,1,4,5,21
1501927225472455,-1,4,14,-1,0,1,-2,-5
1501927225472455,-3,-3,-4,6,-1,2,1,8
1501927225481450,-2,0,0,-4,3,2,2,4
1501927225481450,15,-2,-3,-3,-4,-6,-3,34
1501927225483417,-3,-2,3,0,-4,-2,-1,-20
1501927225483417,4,0,-3,-2,-2,-2,-3,15
1501927225504416,-11,-4,-2,8,1,4,-2,-11
1501927225504416,10,-4,-4,-5,-2,-2,-2,2
1501927225505416,-21,-3,-10,-5,-1,-1,-3,-2
1501927225505416,-3,4,4,3,0,-1,-1,-6
1501927225518420,-1,-4,-1,-8,-6,-6,-4,-15
1501927225518420,-15,-7,-8,0,1,3,5,-4
1501927225525459,11,0,-1,3,1,-3,-7,-8
1501927225525459,-3,1,2,-1,-1,0,2,-13
1501927225541451,-5,0,-1,0,-1,3,-3,-9
1501927225541451,6,0,1,-3,-2,-4,0,-5
1501927225543415,5,-2,-4,0,-2,-1,-1,11
1501927225543415,-8,-3,-1,-1,0,-1,-5,-8
1501927225564428,1,1,0,-4,-4,-2,-1,-1
1501927225564428,-10,0,6,5,1,0,0,-7
1501927225565425,5,-1,-3,1,-2,-7,0,8
1501927225565425,-8,-2,-3,-3,2,8,0,-1
1501927225578481,-1,-1,-6,0,-3,-1,2,17
1501927225578481,-4,2,-1,-2,-3,-3,-6,-23
1501927225585460,0,0,7,2,0,-5,-3,3
1501927225585460,1,-1,-4,-2,-4,-2,-4,-12
1501927225600479,6,0,4,1,0,1,1,8
1501927225600479,-9,-4,-14,-8,0,1,-5,-21
1501927225601448,0,-2,-1,3,0,0,-1,-4
1501927225601448,-6,0,-8,-7,-6,-4,-3,4
1501927225623481,2,1,6,8,3,1,3,3
1501927225623481,-4,3,-4,-16,-5,-5,-3,-3
1501927225624444,1,-2,-1,-3,0,3,0,10
1501927225624444,1,-2,-1,-1,-3,-4,-2,6
1501927225637484,-7,1,-1,3,3,1,0,-6
1501927225637484,2,-1,3,8,1,0,-1,1
1501927225645465,4,1,-2,-5,2,6,5,6
1501927225645465,-4,-3,2,-2,-3,-6,-2,12
1501927225660486,0,-1,-12,-10,-1,0,-5,-16
1501927225660486,1,0,0,0,-1,-3,-4,10
1501927225661440,0,-3,-4,-2,1,8,1,-13
1501927225661440,-4,-3,2,10,1,0,0,-1
1501927225683424,1,-1,2,-3,-1,-4,-1,-4
1501927225683424,-5,-3,-4,-9,-6,-6,-1,5
1501927225684423,1,-2,-8,0,0,1,0,-5
1501927225684423,1,1,4,1,2,0,2,2
1501927225697465,3,-1,-3,-1,3,0,-3,-2
1501927225697465,-2,2,3,4,2,1,4,4
1501927225705466,-4,-1,3,-2,-4,-4,-1,-4
1501927225705466,6,-3,8,6,1,2,2,0
1501927225720490,-4,3,3,3,-3,-1,0,6
1501927225720490,0,-3,-14,-8,-1,0,-4,-5
1501927225721434,0,0,5,1,0,-4,-2,0
1501927225721434,1,-2,-3,-3,0,2,-3,19
1501927225743493,1,-3,-1,0,-2,-1,0,-6
1501927225743493,-2,0,-1,2,-2,1,0,-7
1501927225744427,-4,-1,1,2,1,-4,-3,3
1501927225744427,-4,2,1,-4,-2,-2,0,-12
1501927225757464,-2,-2,-4,-9,-2,1,3,-1
1501927225757464,7,-1,1,2,-1,-4,-2,2
1501927225765467,-6,-1,-9,-5,-4,3,2,0
1501927225765467,5,2,5,4,3,-1,0,-14
1501927225780492,0,-2,0,2,0,-1,-2,-3
1501927225780492,-6,-2,4,3,-2,-7,-2,-7
1501927225781439,4,1,0,-4,0,2,-1,16
1501927225781439,-3,-1,3,1,1,-1,0,-20
1501927225803470,-1,-1,-12,-9,-3,-1,-4,-7
1501927225803470,3,1,8,5,3,1,-1,3
1501927225804442,0,-5,-8,-1,-3,-4,-6,-11
1501927225804442,-1,-1,-6,-8,-4,-2,1,20
1501927225817474,4,-1,2,0,0,-1,-2,-9
1501927225817474,-7,0,6,-1,-2,2,1,6
1501927225825443,-9,-2,-2,1,-2,-1,1,3
1501927225825443,2,2,-4,-4,-1,-1,1,-13
1501927225840489,0,-3,-2,-1,0,3,1,0
1501927225840489,5,-1,2,6,2,-1,-1,6
1501927225841460,1,1,7,-1,0,-2,0,4
1501927225841460,-4,-2,0,2,-2,-3,1,0
1501927225863475,-4,-2,-3,-18,-5,-3,2,18
1501927225863475,1,-1,-2,0,1,4,1,-7
1501927225864444,1,-1,1,-1,-2,-2,-3,-17
1501927225864444,0,0,-3,3,-3,-4,-3,1
1501927225877476,-1,1,3,5,-2,-3,-2,0
1501927225877476,-5,-2,-3,-6,-1,1,0,1
1501927225885469,2,2,5,-5,-1,-3,-1,10
1501927225885469,-1,-3,-8,-4,1,4,4,1
1501927225900497,0,1,3,5,0,1,1,2
1501927225900497,-7,-5,-3,-7,-6,-3,-8,-25
1501927225901434,3,-3,-3,-1,-2,-1,3,-3
1501927225901434,-11,-4,-6,-6,-2,2,-4,0
1501927225923505,2,-1,3,6,1,0,3,-2
1501927225923505,4,0,-7,-3,-1,-5,0,-4
1501927225924436,-2,-4,-4,1,-1,-3,0,2
1501927225924436,-3,-2,-1,-5,-1,-4,-9,1
1501927225937469,-2,1,1,-3,-2,-3,-1,4
1501927225937469,4,0,0,0,-2,1,3,-24
1501927225945479,-1,1,0,3,0,2,-1,-8
1501927225945479,0,1,3,1,0,-1,2,3
1501927225960450,-3,0,-1,-3,-3,-1,-3,-2
1501927225960450,-6,-1,1,-2,0,-4,-5,3
1501927225961440,4,-2,-8,-6,-2,1,2,7
1501927225961440,2,-4,2,-2,-2,-4,-2,-7
1501927225983451,-4,-4,-7,-2,0,-3,-4,-8
1501927225983451,-3,-2,-4,-1,-1,3,4,-1
1501927225984440,-10,0,-4,-5,-4,-8,-4,-5
1501927225984440,0,1,-1,-2,-3,3,-3,9
1501927225997452,2,-4,5,3,1,-1,1,-1
1501927225997452,-2,-3,-1,0,0,-2,-2,6
1501927226005473,2,-1,2,4,1,4,-2,1
1501927226005473,2,1,-3,-3,-2,-2,1,-1
1501927226020448,-2,1,0,0,0,-1,-2,-4
1501927226020448,-6,0,0,0,1,2,4,13
1501927226021443,2,0,-2,-3,-2,1,-1,-2
1501927226021443,8,-4,-4,0,0,-3,-3,7
1501927226043477,2,-2,-2,-8,-5,-6,-4,1
1501927226043477,-2,0,3,2,1,0,1,8
1501927226044443,7,1,-1,1,0,-1,-1,4
1501927226044443,-7,-1,-4,-3,-2,0,1,2
1501927226057456,-2,0,-2,3,0,0,3,2
1501927226057456,0,-3,-3,-3,2,3,-1,21
1501927226065478,-1,-1,0,-1,0,0,0,-9
1501927226065478,13,-1,0,1,2,-2,-4,-8
1501927226080474,-4,0,0,-5,-2,-2,0,0
1501927226080474,-2,-1,3,3,-3,-1,-1,4
1501927226081445,-6,-4,-2,1,0,-2,-2,-5
1501927226081445,-1,1,-5,-4,-3,-9,-2,-25
1501927226103502,27,2,0,3,4,11,10,90
1501927226103502,-28,1,2,-2,0,-3,-3,-12
1501927226104449,-2,-4,-8,-6,-2,-3,-2,-1
1501927226104449,-9,-1,2,9,2,0,-1,-6
1501927226126482,-3,-3,-6,-6,-4,-1,2,-7
1501927226126482,11,-1,-1,1,-3,0,-2,-1
1501927226127448,0,0,12,5,1,-2,1,7
1501927226127448,-17,-3,-7,-6,-1,2,5,48
1501927226140486,-6,-2,-3,1,0,1,-4,-39
1501927226140486,9,-1,0,1,0,1,-6,5
1501927226141452,6,0,2,2,1,-2,-1,4
1501927226141452,-3,-1,-2,-3,-4,-2,-3,-12
1501927226163489,-5,-2,0,-1,-4,-2,-2,-5
1501927226163489,-10,-1,-1,0,2,-1,1,-17
1501927226164451,-20,-4,0,5,4,0,0,-1
1501927226164451,-5,3,8,0,0,2,-4,-44
1501927226186512,0,-3,-1,1,1,-2,-3,-5
1501927226186512,5,-1,-1,-1,-4,0,2,24
1501927226187480,-3,0,2,-4,-5,-1,0,-23
1501927226187480,-9,-2,-2,1,2,2,-1,-1
1501927226200462,-20,-1,7,1,-2,-11,-7,-60
1501927226200462,9,-3,0,-1,2,4,4,4
1501927226201493,-15,-3,-7,-2,-1,2,-1,11
1501927226201493,15,-1,-4,-5,-1,0,-2,-21
1501927226223523,5,2,6,4,2,4,-1,14
1501927226223523,6,-1,-1,-1,-2,-3,0,48
1501927226224455,-7,0,2,-3,-2,-3,-1,-22
1501927226224455,6,-1,-4,3,1,2,5,24
1501927226246522,-9,-2,-6,-5,-3,-2,-8,13
1501927226246522,8,-1,-1,-3,-3,-4,-3,-7
1501927226247454,14,0,2,-2,-1,0,0,25
1501927226247454,-3,0,-1,-1,-1,-3,-7,13
1501927226260502,7,-1,2,-2,-5,-3,1,-2
1501927226260502,-9,0,-7,-6,-3,-4,-2,-13
1501927226261461,-5,-3,-1,-2,-3,-2,-4,-39
1501927226261461,13,-5,-7,-7,-4,-2,-1,4
1501927226283490,1,-1,0,5,-1,-2,-4,-10
1501927226283490,19,1,3,1,3,1,1,45
1501927226284469,13,0,-11,-6,-3,2,-2,3
1501927226284469,-12,0,7,5,3,2,8,33
1501927226306528,-9,-3,-7,-6,-2,-2,-5,-31
1501927226306528,-4,0,-3,-3,-2,-3,-1,-3
1501927226307459,-9,-1,3,2,2,-1,1,24
1501927226307459,-3,-2,-2,-2,-1,0,-1,-5
1501927226320463,2,1,3,2,2,3,3,19
1501927226320463,-20,1,5,6,0,-1,1,-31
1501927226321459,4,-1,2,-4,-2,1,1,3
1501927226321459,-4,-2,-1,-1,-4,-4,-4,5
1501927226343459,3,-2,-4,-5,-3,-10,-7,-11
1501927226343459,-1,-1,1,-1,2,8,1,-23
1501927226344465,8,-1,-3,-1,-2,-3,-2,-5
1501927226344465,5,3,6,-2,1,-2,-1,0
1501927226366532,-1,-3,-5,3,-1,2,-1,7
1501927226366532,-11,-5,-7,-6,-5,-4,-5,-40
1501927226367463,5,3,1,1,1,-1,0,3
1501927226367463,-9,-3,-2,-3,-1,1,-7,-33
1501927226380533,16,0,-3,-5,-3,-2,0,8
1501927226380533,1,-5,-3,-2,1,0,-2,-14
1501927226381472,-3,-3,3,2,-3,-4,-3,2
1501927226381472,7,-1,1,-2,-4,-4,-4,-25
1501927226403462,-4,-2,-11,-7,0,1,3,7
1501927226403462,6,0,4,3,0,-1,-3,-6
1501927226404465,1,2,2,2,-2,0,-1,12
1501927226404465,4,-2,5,1,0,0,4,32
1501927226426478,-17,-1,0,-2,-3,-1,-2,-6
1501927226426478,1,1,-2,-3,0,0,-1,-4
1501927226427464,2,-1,-9,-2,-1,0,-1,-2
1501927226427464,-2,-1,-6,-4,-1,-1,-3,-3
1501927226440522,-3,2,5,1,3,1,2,-1
1501927226440522,2,-2,-3,-1,-3,-4,1,3
1501927226441465,1,1,3,4,3,8,1,-2
1501927226441465,-7,-1,5,3,-1,-5,-6,-19
1501927226463506,-5,-2,-8,1,0,1,3,-11
1501927226463506,-2,-1,1,1,-2,-4,-1,-5
1501927226464468,-1,-3,-5,-6,-4,-3,-1,3
1501927226464468,-2,-2,0,-2,0,1,3,2
1501927226485507,-4,0,4,0,-1,-1,-2,-6
1501927226485507,5,-5,-3,-3,-2,-2,-1,2
1501927226486480,2,1,1,0,-2,0,-1,-29
1501927226486480,0,0,-8,-10,-4,-2,-2,14
1501927226500510,1,-1,-2,3,-1,-2,-4,-13
1501927226500510,-13,-1,1,1,0,0,1,-7
1501927226501483,-2,-4,-2,-3,-1,-4,-1,-3
1501927226501483,-2,-2,-5,1,0,0,1,4
1501927226523513,-8,1,5,-1,0,-3,0,-1
1501927226523513,0,0,-2,-3,-2,3,1,5
1501927226524476,-4,0,2,0,-2,1,-3,-3
1501927226524476,-3,0,3,2,-1,1,3,-9
1501927226545512,-5,-3,-6,-6,-3,1,-3,-3
1501927226545512,0,0,2,0,-3,-4,-3,-1
1501927226546472,-2,-2,-2,-1,-1,-3,-2,8
1501927226546472,2,0,-3,3,2,0,-1,-5
1501927226560485,3,0,3,1,0,2,3,0
1501927226560485,0,0,-5,-5,-1,-3,-3,-17
1501927226561508,-2,-1,-3,-1,-2,-2,-1,2
1501927226561508,-1,1,4,1,1,-8,1,-6
1501927226583514,7,-2,-4,1,2,7,1,12
1501927226583514,-2,1,1,0,0,-1,-3,7
1501927226584479,-5,-2,-7,-7,-1,-1,-1,-16
1501927226584479,-10,-1,2,2,-3,-3,-3,-19
1501927226605524,-1,-1,5,-1,0,-2,-1,1
1501927226605524,8,1,-2,-1,-2,-1,1,-1
1501927226606511,0,-1,0,2,1,0,1,6
1501927226606511,-2,-1,1,-1,1,3,-2,7
1501927226620521,7,-2,-7,-5,-4,-3,-3,-8
1501927226620521,-2,-3,0,-2,-2,0,-2,15
1501927226621477,2,-1,-2,3,1,-3,-2,-15
1501927226621477,3,1,-1,2,3,5,2,-11
1501927226643516,-3,0,8,3,-1,-3,-3,8
1501927226643516,0,-1,-5,0,0,-2,0,8
1501927226643516,-1,-4,-14,-9,-7,1,-1,9
1501927226643516,-1,-1,2,-2,-1,-2,0,9
1501927226665549,-2,1,0,1,0,-1,2,-5
1501927226665549,0,-1,2,1,-2,-1,0,-18
1501927226666514,2,4,6,2,0,0,3,-11
1501927226666514,-1,-4,-12,-8,-2,0,-2,-3
1501927226680549,-1,-3,-4,0,-3,-3,-1,0
1501927226680549,-8,-4,-4,-5,-2,-1,-4,2
1501927226681492,1,1,2,2,-1,-8,2,8
1501927226681492,0,-3,1,1,0,4,0,0
1501927226703525,1,-2,-2,1,2,-1,2,4
1501927226703525,3,0,0,-1,1,2,-2,9
1501927226704481,-3,-2,-2,-4,-2,-3,-2,5
1501927226704481,34,1,0,0,-3,1,2,8
1501927226725542,-68,-1,-3,-2,-2,-4,-4,-7
1501927226725542,0,-2,3,3,1,0,0,0
1501927226726498,1,-2,0,-1,1,2,-1,-4
1501927226726498,-11,-2,0,0,-1,-3,-6,0
1501927226740543,16,-5,-4,0,1,1,-1,-1
1501927226740543,12,0,-3,-5,-3,-3,0,-2
1501927226741485,-16,-2,0,-2,-1,-2,-2,4
1501927226741485,3,-3,-8,-5,-5,-2,1,8
1501927226763562,4,3,11,2,2,-1,-7,-19
1501927226763562,-11,0,3,4,-1,-1,0,-7
1501927226763562,12,-2,-2,3,-2,1,0,9
1501927226763562,-3,0,7,6,0,-4,-1,6
1501927226785526,1,0,-2,-1,1,0,4,-8
1501927226785526,-11,-4,-8,-4,-3,1,-3,-12
1501927226786514,0,2,4,0,0,2,0,4
1501927226786514,0,0,-4,-2,-1,-1,1,8
1501927226800543,3,-1,3,0,-3,-3,-3,-8
1501927226800543,8,2,-1,3,-3,-3,-2,4
1501927226801499,0,-2,-5,-2,0,-4,-2,6
1501927226801499,-8,-2,0,-1,1,7,-3,-24
1501927226823537,18,1,2,2,0,-2,0,14
1501927226823537,-2,-3,-12,-5,-3,-2,-2,1
1501927226823537,2,-2,-1,-1,-1,-3,-5,-10
1501927226823537,-6,-2,-7,-3,-3,-2,3,3
1501927226845533,5,-2,-3,-6,1,2,-3,7
1501927226845533,0,0,2,-4,-1,1,3,-11
1501927226846504,4,-2,4,2,-2,-2,-1,16
1501927226846504,-2,-2,-4,-5,-1,-1,-4,-16
1501927226860499,6,1,-4,-5,-4,-2,0,-19
1501927226860499,-5,0,2,1,3,-1,0,0
1501927226868532,-2,-1,-2,-2,-1,1,-1,-4
1501927226868532,1,1,4,3,-1,-3,0,14
1501927226883542,-4,-1,-1,0,-2,-1,-5,-7
1501927226883542,-1,-2,0,-2,-3,-3,-6,3
1501927226883542,-2,1,5,6,2,0,1,-6
1501927226883542,-8,-3,-6,-4,0,3,1,5
1501927226905536,-1,-3,-5,-2,-2,0,1,9
1501927226905536,-3,-1,2,1,2,1,1,-11
1501927226906501,-8,-4,-5,-4,-3,-2,-2,-1
1501927226906501,0,0,4,-1,0,-3,-1,4
1501927226920515,0,-3,-3,-4,-2,-1,1,4
1501927226920515,0,-2,1,2,-1,-2,-3,-13
1501927226928527,-2,-2,-5,-4,-1,0,-1,-2
1501927226928527,-4,-2,-5,-4,-4,-3,0,2
1501927226943545,6,1,8,6,2,0,3,3
1501927226943545,-1,-1,-2,0,0,1,0,2
1501927226943545,-1,0,-2,-5,-4,-4,-3,-11
1501927226943545,-1,-1,3,0,0,5,-1,4
1501927226965543,3,1,-3,1,-2,-3,-5,-9
1501927226965543,0,-2,3,2,0,-1,0,5
1501927226966528,-2,0,-5,0,1,2,0,-4
1501927226966528,2,-2,-4,-2,-1,-3,-3,-7
1501927226980520,-2,1,2,1,0,0,3,-4
1501927226980520,-1,1,7,-1,2,-2,-2,6
1501927226988537,-3,1,-5,-2,-3,2,-3,-5
1501927226988537,4,2,5,4,3,-2,0,-13
1501927227003539,1,-2,-6,-9,-3,0,3,26
1501927227003539,-7,0,-3,0,-4,-2,1,-26
1501927227004499,0,1,8,3,1,1,0,6
1501927227004499,-4,-2,-1,-3,-1,-1,-1,-4
1501927227025507,-2,2,10,2,2,-2,-2,1
1501927227025507,3,-3,-12,-9,-4,-1,-1,8
1501927227026509,-2,0,-2,-1,-1,-3,-1,5
1501927227026509,-1,1,-1,1,-3,0,2,0
1501927227040518,-6,-4,-1,2,-1,-2,-3,-4
1501927227040518,-3,-2,-1,0,-2,0,2,12
1501927227048571,0,-1,2,1,-1,-2,-4,-8
1501927227048571,-3,-4,-8,-2,1,-1,1,-5
1501927227063534,1,-3,-3,0,-4,-4,-4,1
1501927227063534,-7,-1,-2,-3,1,1,0,-16
1501927227063534,-1,-4,-3,-4,-2,0,3,-4
1501927227063534,4,2,3,1,0,-5,-4,4
1501927227086549,-2,-3,-10,-6,0,2,-1,3
1501927227086549,1,-4,0,-3,-4,-3,-4,8
1501927227087507,-2,0,-1,-1,-1,0,2,8
1501927227087507,-5,0,4,3,0,-1,-3,-20
1501927227100519,1,0,0,4,0,-1,-1,-5
1501927227100519,4,0,-3,-6,-3,-2,-4,7
1501927227108566,-2,-2,0,-5,0,0,-1,-11
1501927227108566,4,2,0,-1,-1,-1,-1,11
1501927227123549,7,-4,3,-2,-2,-3,-4,12
1501927227123549,3,1,-9,-2,1,-6,2,20
1501927227123549,-1,-1,5,3,-1,4,-5,-25
1501927227123549,-4,-2,-4,-2,-2,-2,-3,-3
1501927227145551,-6,0,-2,-4,0,2,2,-6
1501927227145551,3,0,-4,-2,-2,0,0,1
1501927227146543,2,-1,-3,1,-2,-4,-2,9
1501927227146543,-3,-2,-3,-3,-1,0,-1,7
1501927227168548,-2,1,0,2,0,1,-2,0
1501927227168548,2,-1,5,4,0,-1,0,-6
1501927227169526,-1,1,2,0,1,-1,-1,-1
1501927227169526,-2,-4,-8,-10,-9,0,-1,-4
1501927227183552,1,2,-1,-3,-1,-4,0,7
1501927227183552,-5,-2,1,-1,0,4,-1,-5
1501927227183552,6,1,-3,-7,-2,-1,0,-1
1501927227183552,-1,0,0,0,1,-1,-2,6
1501927227205549,3,-1,1,3,1,0,1,-8
1501927227205549,-4,-1,-2,-1,0,-1,-2,-3
1501927227206510,-1,-2,-3,0,0,1,6,10
1501927227206510,-3,-2,2,2,-1,-1,0,-11
1501927227228554,2,0,0,-3,-1,1,1,6
1501927227228554,-3,-1,1,3,3,3,0,-6
1501927227229552,-3,-1,-2,-2,0,-3,-3,3
1501927227229552,2,1,-1,-2,-3,-3,-1,12
1501927227243578,-3,0,-2,0,-1,0,-3,-16
1501927227243578,2,-1,-1,0,2,-1,0,-6
1501927227243578,-2,-1,2,1,0,1,3,8
1501927227243578,-2,-1,1,-3,-4,-3,-3,-6
1501927227265513,3,0,2,-1,-3,-1,-3,-4
1501927227265513,-3,-5,2,1,-2,-1,-2,-5
1501927227266525,-6,0,-9,-3,-3,-2,-4,4
1501927227266525,1,1,2,3,3,2,3,-15
1501927227288552,2,1,-2,-3,-1,-1,0,3
1501927227288552,-3,-2,-3,0,0,-3,-4,-3
1501927227289547,0,4,10,4,-1,1,3,6
1501927227289547,-4,-3,-5,-5,-2,-1,-3,5
1501927227303557,1,-2,1,2,-1,-2,-1,7
1501927227303557,-2,0,1,-1,-2,-1,0,-12
1501927227303557,2,-5,-11,-6,-4,-5,-2,-2
1501927227303557,-6,0,-1,3,-1,-2,-3,-13
1501927227325557,-1,-2,-3,-3,-1,-1,-5,-10
1501927227325557,2,0,-1,-1,-1,1,2,17
1501927227326526,2,-3,-2,-1,1,0,-2,-6
1501927227326526,2,0,1,-2,-2,1,2,8
1501927227348558,-5,-2,0,2,0,-1,1,-4
1501927227348558,4,0,-2,-6,-4,0,0,2
1501927227349560,-2,-2,-2,-2,-1,-1,-1,-20
1501927227349560,1,2,3,3,2,0,2,10
1501927227363564,-3,-5,-7,-3,-2,-4,-3,-4
1501927227363564,1,-1,-2,-4,-2,-1,0,3
1501927227363564,0,-4,-9,-7,-2,-5,-3,-4
1501927227363564,1,-4,-11,-5,-2,2,0,3
1501927227385565,-1,1,1,1,2,0,-1,-10
1501927227385565,-3,2,-1,1,-1,-1,5,14
1501927227386561,-4,-1,0,-1,-3,-6,-8,-11
1501927227386561,-2,-1,1,-1,2,-1,-7,-11
1501927227408585,0,-1,1,-2,0,-1,-4,10
1501927227408585,-1,-1,1,0,1,-5,1,0
1501927227409528,0,-1,-2,2,-1,-2,-31,13
1501927227409528,1,-3,-2,-1,1,7,30,9
1501927227423565,0,-2,-1,-1,-2,0,-6,5
1501927227423565,0,1,6,6,0,2,3,-2
1501927227423565,-3,-2,-2,-3,-4,-3,3,-3
1501927227423565,-3,-5,-3,-4,-2,-4,-22,-4
1501927227445564,-2,-1,-5,-3,-2,-1,8,-3
1501927227445564,2,2,8,9,3,1,1,-2
1501927227446540,0,0,5,1,3,7,5,3
1501927227446540,0,-2,-13,-6,-3,-3,1,4
1501927227468565,0,-2,-7,-6,-2,-5,-16,19
1501927227468565,-1,-1,-5,-3,0,0,-1,-8
1501927227469552,1,-1,6,3,-1,-9,2,0
1501927227469552,0,1,4,4,3,6,-2,1
1501927227483545,-1,-1,2,1,-1,-2,-2,1
1501927227483545,-1,-3,-1,1,-3,-2,-9,2
1501927227483545,-1,-3,-7,-5,-1,1,9,10
1501927227483545,1,0,1,-3,-5,-4,-1,-15
1501927227505566,-1,0,-1,2,4,3,6,2
1501927227505566,-2,-1,2,1,0,1,-1,-2
1501927227506528,-1,0,1,-2,-3,1,8,-3
1501927227506528,-2,1,2,2,-3,-2,-1,2
1501927227528572,-3,-1,7,0,-1,-3,-2,-5
1501927227528572,-7,-3,-18,-7,-4,-3,-7,-21
1501927227529535,7,0,-3,2,0,4,10,17
1501927227529535,-5,0,5,1,2,-5,-5,-14
1501927227543565,0,0,-2,0,-1,5,5,-9
1501927227543565,-4,0,4,-2,-2,-2,-4,1
1501927227543565,-4,-3,-9,-6,-2,0,-2,2
1501927227543565,0,0,2,2,1,-1,1,0
1501927227565573,1,-1,-3,-7,-4,-4,1,-4
1501927227565573,-1,1,2,-2,2,2,-2,2
1501927227566544,-4,-1,2,2,0,1,4,-3
1501927227566544,1,-2,0,3,0,0,2,6
1501927227588545,-2,-1,-8,-4,-4,-4,-1,-2
1501927227588545,3,0,1,-2,-1,-3,-2,10
1501927227589531,0,2,6,4,3,2,-1,-10
1501927227589531,0,-2,-2,-4,-3,0,-5,5
1501927227603534,-1,-1,-1,-1,-1,-3,-5,-6
1501927227603534,-2,-3,-12,-9,-7,-9,8,0
1501927227603534,-4,-1,-6,-2,0,2,-10,-19
1501927227603534,-1,0,-1,0,2,6,10,-1
1501927227625575,2,-1,3,0,-2,-1,4,11
1501927227625575,4,0,3,3,0,-1,-4,-11
1501927227626535,2,-2,1,-2,-5,-7,1,6
1501927227626535,-1,-1,2,-2,-1,-4,-2,5
1501927227648596,-9,-8,-10,-5,-2,1,-2,-10
1501927227648596,7,1,6,2,0,2,4,7
1501927227649542,-2,-2,1,0,-2,-5,-4,2
1501927227649542,-1,0,4,2,-1,-2,-9,0
1501927227663581,0,-3,-8,-2,-1,-3,7,-7
1501927227663581,-3,-3,-9,-5,-2,-1,-4,-5
1501927227663581,0,-2,1,0,1,0,-2,0
1501927227663581,-2,0,5,-1,-2,-2,-5,-4
1501927227685548,-1,1,-3,3,2,0,-1,-3
1501927227685548,-1,1,0,-2,-1,1,2,15
1501927227686551,-3,0,1,2,0,0,-6,-11
1501927227686551,2,0,1,0,-1,-4,7,3
1501927227708580,-6,-1,-3,-5,-2,1,-4,-16
1501927227708580,0,-1,-2,2,2,-1,-8,22
1501927227709581,1,1,2,-2,-2,0,4,6
1501927227709581,-2,-4,2,3,-1,-3,-7,-6
1501927227731579,3,2,3,2,1,7,3,-1
1501927227731579,-4,1,5,2,1,3,-1,-19
1501927227732541,-4,-4,-8,-3,-4,-6,-4,1
1501927227732541,6,0,-6,-1,0,-1,1,3
1501927227745586,-4,-3,2,2,-1,-3,0,6
1501927227745586,1,2,4,-1,0,1,1,5
1501927227746568,-3,-1,1,-2,-1,1,1,-2
1501927227746568,-2,-1,-1,-2,-3,-5,-2,-10
1501927227768613,1,0,-1,0,1,0,1,9
1501927227768613,1,-3,-1,-2,-5,-1,1,2
1501927227769541,-6,1,2,0,-2,-1,-7,-43
1501927227769541,-5,-3,-6,-4,-1,-3,-4,4
1501927227782608,-1,1,4,1,1,-2,1,1
1501927227782608,6,1,4,3,-1,-3,-7,2
1501927227790583,3,-3,-20,-11,-4,0,4,-14
1501927227790583,-2,2,1,0,3,0,-2,-1
1501927227805595,5,-2,3,1,0,2,1,6
1501927227805595,-3,-3,-2,-1,-2,-4,-9,-1
1501927227806545,0,-1,7,1,1,-2,7,11
1501927227806545,0,-3,-7,-3,0,-1,-5,-2
1501927227828616,-4,0,3,0,-1,0,4,-4
1501927227828616,-2,1,-1,1,1,0,0,-1
1501927227829545,0,-4,-6,0,0,-3,-5,8
1501927227829545,-2,1,1,-2,0,1,1,1
1501927227842613,1,1,-4,-2,-1,-4,-5,2
1501927227842613,-2,-2,-3,-4,-2,0,2,-6
1501927227850612,0,2,7,1,1,1,1,13
1501927227850612,-4,-1,4,1,-1,-2,-3,-11
1501927227865586,-6,-1,-3,-2,-1,-4,-5,-16
1501927227865586,4,0,-2,1,-1,-1,3,7
1501927227866580,1,0,-1,2,1,1,-15,-17
1501927227866580,7,1,-6,-5,-2,-2,5,6
1501927227888561,3,0,-2,0,-1,0,13,-10
1501927227888561,-9,0,7,4,1,0,0,-10
1501927227889549,11,1,6,0,-3,-4,-1,16
1501927227889549,-12,-1,-10,-6,-2,1,-4,7
1501927227902599,6,-1,2,0,-2,0,-6,4
1501927227902599,-1,-2,-3,-1,1,1,6,0
1501927227910578,6,2,3,4,2,-2,0,26
1501927227910578,-8,-3,-5,-4,-1,0,-11,-36
1501927227925592,-1,-5,1,-3,-4,-4,-3,21
1501927227925592,-6,0,-2,-1,-1,-5,-4,-9
1501927227926562,-3,-2,2,1,-1,3,10,6
1501927227926562,3,-2,2,2,1,0,2,3
1501927227948616,-5,2,3,3,3,-1,-9,2
1501927227948616,1,-3,-7,-6,-2,0,-3,4
1501927227949552,-4,-2,-6,-7,-2,-6,-10,-36
1501927227949552,2,-1,4,-1,0,0,5,15
1501927227962591,0,-1,-1,1,0,1,-5,-6
1501927227962591,-1,-2,2,1,-2,-2,-1,-2
1501927227970619,-1,0,-2,-4,-2,-2,4,-1
1501927227970619,-1,-2,3,1,-1,0,-2,7
1501927227985599,0,1,-1,-1,-1,2,0,10
1501927227985599,-2,-7,-14,-6,-7,-5,-14,-17
1501927227986555,7,-2,-9,-4,-2,2,18,2
1501927227986555,-11,-2,-2,-5,-4,-3,0,-5
1501927228008619,5,0,-2,-2,0,-1,2,3
1501927228008619,0,0,2,0,1,4,4,6
1501927228009555,-5,-1,4,5,0,-3,-5,3
1501927228009555,1,-4,-10,-6,-5,0,3,7
1501927228031601,-5,-3,-6,-4,-2,-3,-8,-18
1501927228031601,3,1,7,2,0,1,-1,5
1501927228032560,-3,-2,-7,-1,0,-1,-6,-11
1501927228032560,7,3,5,1,1,3,7,14
1501927228045601,-3,-2,-1,-2,0,-2,-4,-7
1501927228045601,1,0,2,0,-1,-2,-3,-7
1501927228046559,-5,-1,-3,-2,-1,-2,-2,6
1501927228046559,0,-1,3,4,2,0,-2,3
1501927228068581,1,-3,-9,-5,-4,-3,0,-17
1501927228068581,-2,0,-2,-5,-1,2,7,5
1501927228069568,-4,-2,6,3,2,0,-1,-1
1501927228069568,1,0,-1,1,-1,-2,-3,-1
1501927228082568,-2,-1,5,3,0,0,1,3
1501927228082568,0,-1,0,3,0,-1,4,-11
1501927228090628,-1,-2,-7,-9,-3,0,-6,6
1501927228090628,1,0,1,2,-2,-1,-5,-1
1501927228105605,-3,-2,4,0,-4,-4,8,-6
1501927228105605,-3,-1,-7,-3,5,5,2,2
1501927228106562,-4,-1,1,0,0,2,-3,2
1501927228106562,13,2,4,1,-1,-1,2,-4
1501927228128605,1,1,-2,-3,-3,-6,-8,22
1501927228128605,-2,-6,-11,-7,-2,-2,-2,-4
1501927228129563,-5,-2,3,1,1,1,3,-3
1501927228129563,-3,0,-4,-8,-5,-3,-1,-6
1501927228151603,0,1,0,2,0,1,3,13
1501927228151603,3,0,-4,-4,-3,-5,-5,-7
1501927228152571,-3,-4,5,6,0,2,-3,-5
1501927228152571,-5,-4,-5,-5,-2,-2,-3,-3
1501927228165597,0,-2,0,-2,-2,-1,-2,-8
1501927228165597,-2,0,5,2,0,-2,-1,6
1501927228166570,2,1,0,-5,-1,-1,0,2
1501927228166570,-3,-4,-7,-2,1,-2,-2,-2
1501927228188581,-9,-3,-2,-1,1,2,2,-3
1501927228188581,31,-2,2,1,-4,0,-3,-3
1501927228189566,-37,6,2,4,1,-3,-1,-3
1501927228189566,-1,-1,-3,-2,-1,-1,-1,12
1501927228211610,-2,-5,-10,-4,-2,-1,-3,-15
1501927228211610,-8,0,1,2,-3,0,-1,-8
1501927228212570,11,-1,1,-2,-3,0,-1,6
1501927228212570,-2,-4,1,-1,-1,-1,1,11
1501927228225576,-2,1,-2,-2,0,2,1,-4
1501927228225576,-6,-2,-4,1,0,-1,-1,-1
1501927228226600,3,0,-6,-6,-2,-7,-3,3
1501927228226600,-2,-2,-4,-3,-2,-4,-2,5
1501927228248612,5,-1,6,4,4,1,-4,-20
1501927228248612,-5,0,1,-1,-1,1,2,2
1501927228249577,3,-2,-6,-5,0,-3,0,-12
1501927228249577,1,2,5,4,0,3,-4,-8
1501927228271610,1,0,-12,-8,-1,-3,-1,5
1501927228271610,-3,2,0,-2,1,1,0,2
1501927228272573,2,-2,0,2,3,2,3,18
1501927228272573,1,0,1,1,-1,-2,-2,-14
1501927228285616,-2,-1,1,-2,-5,-3,-3,7
1501927228285616,-7,1,-1,5,0,-3,2,3
1501927228286580,3,-1,-2,-6,-5,-3,0,-5
1501927228286580,-1,-2,3,1,0,-1,-3,12
1501927228308636,5,0,-1,-1,-2,1,0,11
1501927228308636,-5,-2,-3,-1,-1,-2,-4,-3
1501927228309575,-6,-1,5,4,-2,-1,-1,1
1501927228309575,5,0,-2,-6,-1,0,3,-2
1501927228331616,-8,-2,-2,-2,-2,0,0,9
1501927228331616,3,-1,0,0,2,-1,2,0
1501927228332576,-1,0,-2,-3,1,-2,-9,-8
1501927228332576,-4,-2,-12,-4,-3,-2,-4,-9
1501927228345585,3,0,-4,-1,0,3,1,4
1501927228345585,-2,-1,-2,-2,-2,1,0,2
1501927228346577,4,-4,-6,-3,-4,-3,-2,7
1501927228346577,3,2,5,1,-1,-1,4,-1
1501927228368644,0,2,5,4,1,-2,-4,-22
1501927228368644,-4,-5,-3,-6,-3,-1,-2,7
1501927228369576,3,1,7,5,-1,-1,0,-12
1501927228369576,-2,-2,-7,-4,-1,-1,0,7
1501927228391622,-2,-1,0,-1,2,2,3,2
1501927228391622,-3,-2,0,-4,-4,-5,-4,-8
1501927228392579,-1,-3,-9,-7,-6,-1,-2,2
1501927228392579,-5,1,1,1,-1,1,0,-3
1501927228405622,-1,3,5,4,1,2,1,-5
1501927228405622,1,-3,-5,-1,0,-2,-5,-3
1501927228406613,3,-4,-5,-1,-1,-1,5,8
1501927228406613,-4,-1,-1,2,-1,-2,-2,3
1501927228429623,2,-1,1,-1,-1,-1,-6,1
1501927228429623,-13,1,2,-4,-2,1,0,-36
1501927228430581,-2,0,2,1,1,0,3,-9
1501927228430581,1,-1,0,1,-1,-1,0,3
1501927228451620,-1,-1,2,1,0,-1,1,10
1501927228451620,-2,-1,-1,0,0,2,1,12
1501927228452583,-2,-3,-5,0,-3,-2,-4,-17
1501927228452583,-3,-3,0,-2,-1,-2,-2,-8
1501927228465623,4,1,-2,-2,-3,-1,-2,5
1501927228465623,2,1,5,-2,-1,-2,-3,10
1501927228466596,1,1,3,0,0,1,-1,-8
1501927228466596,2,-1,5,2,3,-1,1,0
1501927228488588,-4,-4,-5,4,-4,-2,2,-9
1501927228488588,-1,-2,-10,-8,-1,-1,-4,4
1501927228489597,4,0,-1,0,-1,-1,0,8
1501927228489597,-2,1,1,4,2,2,-4,-9
1501927228518595,-2,-1,11,2,-1,-4,2,-1
1501927228518595,0,-2,-6,2,3,4,0,-1
1501927228519599,-1,-1,-5,-4,-4,-3,-5,0
1501927228519599,-6,0,-1,-4,-2,1,3,-13
1501927228525625,4,-2,-7,-5,-2,-1,-4,-16
1501927228525625,0,-1,0,5,0,-3,-9,-12
1501927228526596,-1,0,3,-4,0,-1,13,0
1501927228526596,4,-1,0,1,-2,-1,-6,4
1501927228548629,2,-4,-3,-5,-1,0,5,7
1501927228548629,-1,3,3,0,-2,-3,1,-1
1501927228549588,-1,-1,1,-2,0,2,-3,4
1501927228549588,0,1,2,-1,-2,-4,1,-8
1501927228571627,-3,2,-3,-1,-1,0,1,5
1501927228571627,1,0,2,0,-1,1,0,-7
1501927228572590,-1,0,-5,2,1,-4,-4,0
1501927228572590,-3,-3,3,-2,1,1,-1,1
1501927228585632,-3,-1,3,-1,-1,-3,-5,-7
1501927228585632,-2,1,-1,4,-3,-5,1,1
1501927228586591,1,0,-2,-4,1,6,-4,3
1501927228586591,1,-2,-5,-2,1,3,4,5
1501927228608662,-4,-2,-1,3,-1,-1,-6,-4
1501927228608662,-2,0,-3,-4,-1,-1,1,1
1501927228609626,0,-2,1,2,-3,-6,-2,6
1501927228609626,0,-3,-7,-4,0,-2,0,1
1501927228631630,-8,-2,3,-2,1,0,-3,5
1501927228631630,3,-1,4,3,1,2,6,9
1501927228632594,-3,-1,-2,2,2,2,-6,-28
1501927228632594,0,1,-3,-3,-5,-8,-10,-18
1501927228645634,-1,1,-10,-8,-2,4,1,15
1501927228645634,-5,-2,4,0,-1,-4,-1,-3
1501927228646594,3,-3,-3,1,2,-1,-3,14
1501927228646594,-2,-5,-2,1,-3,-8,1,0
1501927228668634,-2,-2,-1,-2,-2,2,-6,-4
1501927228668634,4,-1,-4,-2,-2,-2,-3,5
1501927228669594,-1,-1,5,1,-2,5,2,2
1501927228669594,-1,0,1,2,1,-2,-1,-2
1501927228691657,27,-2,-6,-2,-3,-5,-5,4
1501927228691657,-36,-2,-3,-1,-1,-1,0,-5
1501927228692608,-5,1,-8,-5,-4,-8,-7,-11
1501927228692608,-2,0,4,-2,-2,3,-2,0
1501927228705627,-4,-1,-1,0,-2,-1,5,-5
1501927228705627,13,-1,-2,-4,-1,3,1,24
1501927228706624,-4,1,3,0,0,-1,-3,-18
1501927228706624,-4,0,-5,-3,-4,-2,0,2
1501927228728647,1,-4,-3,-1,-1,-4,0,4
1501927228728647,3,-2,-1,-2,-2,1,-2,-5
1501927228729597,-7,0,4,2,0,0,2,14
1501927228729597,16,-3,-12,0,0,1,-2,-6
1501927228751638,1,4,4,1,-1,-4,-1,5
1501927228751638,3,-1,-1,2,0,0,2,1
1501927228751638,23,3,4,4,0,-6,-2,12
1501927228751638,-13,-3,-1,5,0,5,1,1
1501927228764668,-12,-5,-10,-8,-4,-5,-3,-2
1501927228764668,-4,-1,6,2,-3,-4,-5,-3
1501927228773615,9,-1,-2,3,6,5,2,-13
1501927228773615,2,-1,1,0,0,3,0,2
1501927228788640,-7,1,1,0,4,5,4,4
1501927228788640,11,-2,-7,-8,-4,-4,-1,0
1501927228789612,-9,-2,-1,0,-1,-1,0,5
1501927228789612,-4,0,2,-1,-1,-6,-1,2
1501927228811665,-9,-2,-1,0,0,-1,-4,-9
1501927228811665,-1,-1,0,-6,-2,-1,-3,-7
1501927228812604,-5,-1,0,0,-4,-2,-2,-1
1501927228812604,-5,-1,-2,-3,0,-1,-3,-6
1501927228824674,7,-1,3,3,-3,0,0,-7
1501927228824674,0,-1,-3,0,-1,-7,-2,4
1501927228833618,-8,-1,-2,-5,0,5,5,5
1501927228833618,6,1,5,4,0,0,1,19
1501927228848646,-5,-1,1,3,-1,-1,-2,-22
1501927228848646,0,-4,-10,-5,-2,-1,2,13
1501927228849622,-5,-1,0,0,-3,-4,-6,-27
1501927228849622,-1,-1,-4,-5,2,3,1,-5
1501927228871651,-3,1,3,1,0,1,0,0
1501927228871651,13,-2,-4,0,0,1,2,-4
1501927228872608,-6,1,4,1,-1,0,1,5
1501927228872608,-1,-1,-4,-6,-4,-4,-3,-3
1501927228884677,-2,-2,-9,-2,-1,-7,-3,-3
1501927228884677,4,1,1,-4,-1,9,-1,-7
1501927228893618,4,1,0,0,0,-5,4,12
1501927228893618,-2,-4,4,1,-3,0,-2,-2
1501927228908659,5,1,3,2,-2,-1,-1,2
1501927228908659,-7,-1,-2,1,1,1,0,12
1501927228909648,-2,-3,-1,0,-2,0,-3,-20
1501927228909648,-6,2,-3,-4,-1,1,1,1
1501927228931652,2,-1,1,-3,-2,-2,0,7
1501927228931652,-3,-1,-1,0,-3,-4,-2,-8
1501927228932611,-6,-3,-3,-6,-1,0,-1,-6
1501927228932611,5,-1,-2,0,-1,-1,1,-6
1501927228944655,-6,-2,0,-1,-3,0,-3,3
1501927228944655,-2,1,3,0,0,1,2,-7
1501927228953640,-1,-3,-5,-3,-2,-4,-3,9
1501927228953640,-2,0,1,8,1,-1,-4,0
1501927228968654,-2,-3,-6,-6,-2,1,-2,1
1501927228968654,-6,-1,-2,-2,-2,-4,0,-15
1501927228969615,3,2,6,0,-1,2,0,2
1501927228969615,0,-3,-7,-7,-3,-4,1,-1
1501927228991656,-5,-3,0,0,-1,-1,0,-11
1501927228991656,-3,1,2,3,1,-2,-7,-5
1501927228991656,31,-1,-5,-3,-4,-7,-3,7
1501927228991656,-38,2,0,-1,-1,6,6,-29
1501927229004651,2,2,0,0,0,-1,1,11
1501927229004651,-2,-1,-3,-5,0,0,-2,-11
1501927229013631,5,-3,-6,-3,-2,-3,-2,2
1501927229013631,8,1,9,-2,-4,-4,-4,8
1501927229028654,-1,-3,-15,-5,-1,0,0,-3
1501927229028654,-3,-2,-2,3,2,1,1,9
1501927229029615,-9,-1,-4,1,0,-2,-1,2
1501927229029615,5,-2,-2,-2,-2,0,-3,-3
1501927229051656,-3,0,3,1,-1,0,0,0
1501927229051656,3,-1,-2,-4,-2,3,1,-1
1501927229051656,-7,-3,-5,-4,-4,0,-1,0
1501927229051656,3,-1,1,1,0,-2,-1,0
1501927229073657,2,2,9,3,2,-3,1,10
1501927229073657,-6,-1,-8,-3,-2,-4,-4,-21
1501927229074632,-1,0,4,4,0,0,-1,5
1501927229074632,3,-2,-5,-4,0,-3,1,2
1501927229088662,-2,-2,-6,-3,-4,-2,-6,-7
1501927229088662,9,3,9,3,3,7,7,3
1501927229089619,-9,-2,-16,-4,0,-1,4,29
1501927229089619,12,-3,0,1,-1,5,2,14
1501927229111691,-26,2,1,2,1,-4,-1,-21
1501927229111691,0,1,1,2,-3,-5,1,5
1501927229111691,-2,0,1,0,2,4,0,-3
1501927229111691,-4,-3,-3,-2,-2,-2,-1,6
1501927229133663,9,3,2,0,0,3,-2,-5
1501927229133663,0,-1,2,-1,-1,-3,-1,9
1501927229134641,-7,-1,-5,-4,-3,-3,-3,-14
1501927229134641,6,1,3,5,1,-2,1,13
1501927229148687,2,-1,2,-4,0,3,-4,-13
1501927229148687,-5,-2,2,-2,-1,-3,-4,-2
1501927229149635,-4,-2,0,-1,-3,-2,1,-3
1501927229149635,9,2,-2,-3,2,1,-3,-15
1501927229171663,3,-3,0,1,-3,0,1,10
1501927229171663,-1,-2,-8,-5,-4,-1,0,3
1501927229171663,-6,-2,2,-1,-1,-3,-1,-8
1501927229171663,-3,2,-3,-1,-2,-9,-4,0
1501927229193698,0,-1,-1,1,4,10,3,1
1501927229193698,4,1,2,0,-1,-3,-2,-3
1501927229194639,-3,1,2,-3,-5,-1,-3,6
1501927229194639,-5,-5,-2,-3,-3,-5,-2,-15
1501927229207667,3,-3,-2,-3,-1,-6,-4,7
1501927229207667,-8,-3,-4,-3,-2,3,2,-8
1501927229216627,5,2,8,4,0,1,1,23
1501927229216627,-1,-4,-10,-4,-3,-1,-7,-29
1501927229231667,-6,-4,-4,1,-1,-2,-2,2
1501927229231667,11,-1,-1,-4,1,0,3,10
1501927229232627,-1,-1,3,1,2,4,1,2
1501927229232627,27,1,2,0,1,1,4,7
1501927229253694,-34,1,1,0,-1,-3,0,-5
1501927229253694,-7,-3,3,4,1,-4,-3,-22
1501927229255629,1,1,-3,-5,-4,-1,-6,-16
1501927229255629,-4,-3,-2,0,3,1,1,8
1501927229267668,10,0,2,2,1,0,0,0
1501927229267668,-1,1,6,4,-2,-4,0,12
1501927229276643,-3,-1,-9,-6,0,1,0,-4
1501927229276643,-9,-2,1,-1,-2,-1,1,5
1501927229291702,3,0,2,-1,-2,-2,-4,-11
1501927229291702,-6,-1,-7,-5,-3,-1,-1,3
1501927229292638,2,-1,2,2,-2,-5,-3,-13
1501927229292638,-8,0,3,1,2,7,4,1
1501927229313698,9,-2,-14,-5,-3,-2,2,13
1501927229313698,5,0,4,1,-2,0,-4,17
1501927229315643,-11,-2,2,1,2,-4,2,-17
1501927229315643,-2,1,-1,-2,-1,-3,0,-10
1501927229327682,-3,-3,3,1,-4,-2,3,14
1501927229327682,-3,-3,-8,-3,-1,-2,-4,-19
1501927229336646,-3,-2,-1,-1,1,4,1,6
1501927229336646,-1,1,-6,-3,-1,-3,-1,4
1501927229351706,5,-1,0,0,-4,-1,-3,0
1501927229351706,2,-2,-3,-2,-1,-1,0,2
1501927229352634,-3,-3,2,0,-2,-1,1,7
1501927229352634,-5,-2,0,1,-2,1,-2,-5
1501927229374702,1,-1,-3,-4,-1,-4,-4,-18
1501927229374702,-1,0,5,2,0,-1,0,1
1501927229379675,2,-3,-5,-6,-3,0,-2,-4
1501927229379675,-3,-2,-3,-3,-5,-9,-2,3
1501927229387684,2,-1,5,3,3,5,-1,2
1501927229387684,-3,-5,-11,-6,-5,0,1,10
1501927229396637,4,0,-2,-1,0,1,3,3
1501927229396637,-7,-2,2,0,-1,-4,-6,-23
1501927229411687,28,1,-2,-3,-2,3,3,-2
1501927229411687,-41,-2,3,4,2,-3,-2,-2
1501927229412638,-1,-1,-1,1,1,0,2,1
1501927229412638,3,-2,1,1,-4,-1,-4,4
1501927229433639,-2,-2,-1,-3,0,-2,3,10
1501927229433639,8,4,0,1,0,1,-1,5
1501927229435640,1,2,2,0,-2,-1,-3,-5
1501927229435640,-10,-1,0,-1,-1,0,-1,0
1501927229447680,0,1,-1,-1,-1,-3,-3,-9
1501927229447680,6,-3,0,-3,0,1,4,5
1501927229456641,-2,-1,-3,-1,-2,-3,-2,9
1501927229456641,3,-1,-3,-4,0,4,2,-5
1501927229471680,-3,1,-6,-2,-1,-2,2,22
1501927229471680,0,-1,3,1,0,-2,2,-19
1501927229472654,3,-2,-7,-7,-3,0,-6,-15
1501927229472654,3,-1,2,2,1,3,0,12
1501927229493702,-4,0,0,-1,0,0,1,-3
1501927229493702,0,-2,-1,-3,-3,-2,-2,0
1501927229495642,-5,-1,2,4,1,-1,-2,-1
1501927229495642,6,1,1,-2,-2,0,3,4
1501927229507682,-9,-2,1,-3,-5,-3,-3,-1
1501927229507682,7,0,-4,-1,-2,-2,-6,-11
1501927229516644,0,0,-1,1,0,-2,1,-1
1501927229516644,-3,-1,-2,-3,-3,-4,-2,15
1501927229531682,-3,0,6,5,3,1,1,-2
1501927229531682,-1,0,0,1,0,-3,-4,-1
1501927229532645,0,-3,0,2,2,0,-1,-6
1501927229532645,-1,0,-1,1,-1,1,2,11
1501927229553715,-2,-2,-2,-2,-2,-3,-2,-1
1501927229553715,-4,0,4,1,0,-1,-5,-12
1501927229555650,-2,-3,-3,-4,-3,-6,-3,-1
1501927229555650,-5,-3,1,-1,-2,1,-5,-6
1501927229567684,-3,-4,-8,-5,-1,-3,0,-3
1501927229567684,0,0,-1,-1,-1,0,3,5
1501927229576648,2,-1,2,2,-2,2,0,9
1501927229576648,-8,-2,-3,-2,0,-2,-3,-16
1501927229591666,0,-1,0,0,1,-4,-6,-3
1501927229591666,3,0,0,-3,-1,-7,-2,0
1501927229592649,-1,-2,-4,-2,2,9,0,8
1501927229592649,-6,-1,0,3,1,0,1,-4
1501927229613695,6,1,1,-3,-3,-2,-4,-8
1501927229613695,1,0,-4,-1,0,-1,-2,-4
1501927229615650,1,1,-1,1,-3,-2,0,8
1501927229615650,1,-1,-1,1,0,-1,-2,6
1501927229627696,-6,-2,-6,-5,-2,-2,-2,2
1501927229627696,0,1,-1,-1,0,0,0,-2
1501927229636652,-1,1,0,0,1,-2,-1,-7
1501927229636652,3,-1,2,0,0,2,1,6
1501927229651687,-3,0,1,1,-3,-2,5,-1
1501927229651687,4,0,-2,-4,-5,-3,-7,-14
1501927229652659,14,-1,-2,-4,0,0,-3,-2
1501927229652659,-10,0,0,0,0,-2,-1,-3
1501927229673655,-1,0,1,1,-3,0,-5,-3
1501927229673655,-6,-2,4,3,2,2,1,1
1501927229675665,3,-2,-3,-3,-4,-3,-2,-9
1501927229675665,4,-3,-1,-2,-4,-3,-4,0
1501927229687696,-4,-4,-3,0,2,2,3,1
1501927229687696,3,-2,-1,0,1,4,2,4
1501927229696654,-4,2,1,-2,1,-1,-1,9
1501927229696654,3,1,2,-2,-2,-8,-4,0
1501927229711655,-4,-2,2,-1,0,9,1,-6
1501927229711655,-3,-2,-4,-4,-1,0,-1,-4
1501927229712657,-6,-3,-1,1,0,-4,-1,1
1501927229712657,-5,-2,-3,-1,0,2,-1,-1
1501927229733667,4,-1,-6,-4,-3,-6,-3,-7
1501927229733667,1,-1,1,0,-5,-1,2,5
1501927229735657,-4,-2,-7,-5,-2,0,1,8
1501927229735657,2,0,1,0,-2,-3,3,10
1501927229756703,0,-1,-2,-1,1,0,-2,-17
1501927229756703,-1,-1,-3,-1,0,1,-4,2
1501927229757669,-2,1,0,1,1,0,3,-6
1501927229757669,-3,-3,-5,-3,-5,-4,-6,-2
1501927229771700,-2,-1,-2,-4,0,-1,0,9
1501927229771700,-1,1,0,0,-2,-3,1,10
1501927229772668,-5,-4,2,0,-1,2,1,-13
1501927229772668,7,-2,-4,-1,0,2,1,2
1501927229793699,-4,-3,-5,-3,-2,-3,-7,-14
1501927229793699,-2,2,1,3,-1,0,0,-3
1501927229795660,0,-2,6,2,-2,-2,-2,1
1501927229795660,-1,-1,-6,-3,-2,1,1,-4
1501927229807725,-5,-2,-2,1,-2,-7,-2,3
1501927229807725,0,0,0,1,2,6,-1,0
1501927229816662,-1,-1,-2,-1,4,1,0,-2
1501927229816662,-1,-1,1,-1,-2,4,-1,-4
1501927229831709,4,2,6,0,1,1,4,9
1501927229831709,-5,-3,-1,0,-3,-3,-1,-2
1501927229832665,-2,-1,-5,-7,-4,-5,-5,-15
1501927229832665,-5,-3,-5,-2,-2,2,-4,-6
1501927229853709,7,-1,-1,0,2,0,3,13
1501927229853709,4,1,1,-2,-1,-5,-1,5
1501927229855663,-5,-2,3,3,2,6,3,-3
1501927229855663,12,0,-6,-2,-4,-6,-3,-2
1501927229867675,-1,1,-6,-4,-3,0,-1,6
1501927229867675,0,-1,5,1,-1,-2,-3,0
1501927229876665,-2,-4,-10,-7,-4,-3,-4,1
1501927229876665,-7,-1,0,-2,-3,0,1,-4
1501927229891715,-3,-2,3,0,0,2,3,3
1501927229891715,-2,-4,-7,-6,-2,1,0,-3
1501927229892703,2,3,1,2,2,-1,1,-2
1501927229892703,-1,0,5,1,2,2,2,1
1501927229913734,-5,-6,-12,-7,-6,-6,-7,-3
1501927229913734,5,-1,-1,-1,-1,-1,0,0
1501927229915666,-1,-2,1,1,-2,-2,-1,7
1501927229915666,-3,0,0,0,-1,-1,-3,-21
1501927229927715,2,0,3,2,1,1,-2,-8
1501927229927715,-3,-2,-4,-6,-7,-3,-1,-2
1501927229936671,14,-4,-2,-2,-4,-2,0,4
1501927229936671,-34,3,1,0,3,-2,1,-12
1501927229951709,-2,-2,1,1,1,-2,-2,-2
1501927229951709,2,0,2,3,2,1,1,5
1501927229952669,-9,0,-5,-3,-3,-4,-5,-18
1501927229952669,12,1,4,4,0,2,-1,6
1501927229973734,0,-2,-3,-2,-2,2,1,0
1501927229973734,-6,0,1,1,3,-1,3,1
1501927229975679,2,-2,0,-3,-3,-3,-2,6
1501927229975679,2,-2,2,0,-1,-3,-1,-2
1501927229987710,-3,1,2,3,-1,-6,-4,-4
1501927229987710,2,-1,-2,0,2,5,2,5
1501927229996673,-3,1,2,-1,-1,0,-1,10
1501927229996673,4,-2,-2,-3,-2,-5,-6,-7
1501927230011707,-6,0,3,2,1,-1,-1,-4
1501927230011707,3,-8,-12,-9,-4,-4,-3,-7
1501927230012680,2,0,2,0,-1,0,-1,-1
1501927230012680,-5,-2,1,-2,0,0,4,4
1501927230034735,0,0,-1,0,-2,0,0,-2
1501927230034735,-4,-1,1,0,1,0,-2,-3
1501927230035710,-5,-2,-4,0,-1,0,-2,-3
1501927230035710,7,-2,-3,-2,-1,-3,-2,5
1501927230056698,1,-3,-5,-2,-2,1,1,-1
1501927230056698,-3,-1,-3,-5,-4,-1,-1,-4
1501927230057676,-1,0,0,-1,-1,-3,0,-2
1501927230057676,1,0,-1,2,2,0,1,5
1501927230071712,-4,-3,-1,-3,-2,1,0,4
1501927230071712,-4,1,1,2,0,-1,-1,-20
1501927230072678,-3,0,-2,-4,-2,-3,-4,-6
1501927230072678,1,-4,-3,-1,-4,-7,-1,7
1501927230093722,0,1,-1,-2,1,9,1,8
1501927230093722,2,-2,-2,-1,0,1,2,6
1501927230095679,-4,-2,0,-1,-2,-2,-1,-3
1501927230095679,2,-2,-3,-2,-4,-1,-4,-4
1501927230116748,1,0,-2,-5,-4,-5,-2,-3
1501927230116748,-4,-2,-5,-1,-4,-3,-3,2
1501927230117689,0,-1,-1,1,1,3,0,0
1501927230117689,-4,-2,-3,-1,1,2,1,-2
1501927230131722,0,-2,-3,-4,-3,-7,-1,-3
1501927230131722,0,1,1,-2,-2,-2,-2,-6
1501927230132713,-1,-2,2,0,-1,-3,-3,3
1501927230132713,1,0,-2,-1,-2,1,3,21
1501927230153720,-4,-1,5,0,-1,3,-2,-28
1501927230153720,-3,1,-2,1,3,1,1,1
1501927230155681,-3,-3,0,2,-1,-2,-2,-7
1501927230155681,-1,-1,0,-3,-1,0,-1,-4
1501927230176745,2,1,0,2,0,-1,0,10
1501927230176745,1,-1,-1,-1,-1,0,2,8
1501927230177682,-3,1,2,1,-1,1,-2,-13
1501927230177682,2,-2,-2,-3,-1,-3,-2,-2
1501927230190730,-2,0,0,-3,-5,-10,-2,2
1501927230190730,-1,-2,-2,-1,-1,5,-1,1
1501927230197722,-1,1,-1,-2,-2,0,-2,4
1501927230197722,-1,-1,0,-1,-2,-1,1,-6
1501927230214736,2,0,-1,1,1,0,0,4
1501927230214736,0,-2,2,1,-4,-2,-4,-4
1501927230215695,0,-1,-3,-3,-2,-2,-2,7
1501927230215695,-4,0,1,2,1,4,1,-2
1501927230236756,0,-2,3,0,0,3,1,3
1501927230236756,3,-1,0,0,-1,-3,0,4
1501927230237699,-1,-1,-4,-3,-3,1,1,3
1501927230237699,-1,-2,-3,-3,-3,-5,-4,0
1501927230250694,-3,0,-1,-2,-1,-3,-4,1
1501927230250694,-5,-2,0,-2,2,-1,-2,-5
1501927230257730,0,0,-1,-5,-2,-1,1,1
1501927230257730,0,1,0,1,-3,-1,1,-2
1501927230273729,-1,-2,-1,1,1,2,-1,-4
1501927230273729,0,0,3,2,4,-1,0,-1
1501927230275687,-1,0,-2,-1,-1,-6,-4,-4
1501927230275687,-2,-3,0,1,1,6,10,1
1501927230296760,2,0,-1,-3,0,-4,-2,-14
1501927230296760,-1,-1,-2,-2,-5,-6,0,1
1501927230297691,-2,-3,0,0,0,-3,-1,-1
1501927230297691,-2,-1,0,-1,0,-1,-5,-3
1501927230310733,-2,-3,-5,-5,-1,1,-1,1
1501927230310733,-1,-1,-2,-2,-1,-1,-4,-1
1501927230317730,-1,1,2,0,1,5,6,0
1501927230317730,1,-1,0,1,2,-3,-5,-4
1501927230333728,-1,-3,-6,-4,-3,-1,-1,0
1501927230333728,-1,2,4,5,2,3,0,0
1501927230335693,-1,-3,-2,-3,-3,-1,1,1
1501927230335693,0,-1,-1,0,1,0,-2,-1
1501927230356758,0,-2,-8,-8,-4,3,3,3
1501927230356758,-4,-2,-6,-20,-1,-7,-7,-4
1501927230357692,2,4,7,22,6,5,4,2
1501927230357692,0,0,4,25,1,-4,7,-7
1501927230369756,-2,-2,-4,-14,-7,-9,-9,-8
1501927230369756,0,0,8,5,-4,1,-8,0
1501927230378730,0,-2,-18,-25,1,2,21,6
1501927230378730,0,0,5,15,3,1,0,4
1501927230393735,0,1,-10,-13,5,7,12,2
1501927230393735,2,0,2,-1,-7,0,16,-2
1501927230395694,-3,-1,0,7,-2,-8,-20,-2
1501927230395694,-3,-1,11,46,-6,-7,-8,-2
