timestamp,emg1,emg2,emg3,emg4,emg5,emg6,emg7,emg8
1501933199223610,16,7,-1,2,-1,15,45,5
1501933199223610,110,-3,3,-9,-7,-9,-32,-36
1501933199224610,-94,20,3,-5,-9,-5,86,-63
1501933199224610,-37,-18,-5,-3,-3,6,70,-43
1501933199225618,11,-35,-8,-1,2,-8,64,8
1501933199225618,17,38,22,23,12,7,-20,83
1501933199226653,-15,0,-12,18,-2,1,-4,56
1501933199226653,-23,-21,-23,-71,-15,-18,-59,-85
1501933199236682,-58,11,19,7,1,-3,-45,33
1501933199236682,-5,-21,-15,-20,-8,-4,-1,-57
1501933199245653,48,-33,23,16,8,9,12,86
1501933199245653,-82,64,20,24,8,14,78,-24
1501933199253617,-47,7,-9,-2,3,-5,-75,-5
1501933199253617,-83,-17,9,-4,-4,-2,54,31
1501933199267637,3,9,5,-5,-2,-6,-99,-15
1501933199267637,5,-15,-20,9,2,-5,-13,74
1501933199275637,-45,-7,2,-12,-4,11,76,-73
1501933199275637,17,-27,-9,11,4,7,17,40
1501933199290657,54,-9,-13,-7,5,0,13,14
1501933199290657,-13,-3,3,0,-3,-9,-59,3
1501933199298638,1,7,-2,1,0,-5,-54,59
1501933199298638,-63,-14,-5,1,-8,-17,-72,1
1501933199311664,-16,8,-14,-25,-8,24,96,58
1501933199311664,24,-13,1,0,-2,-10,-83,-24
1501933199352666,25,11,-1,-6,-1,1,0,-9
1501933199352666,-16,-1,8,-1,-4,-5,-4,-18
1501933199354621,25,-18,-13,-1,-1,-9,-23,-37
1501933199354621,-16,10,13,0,-2,-3,-74,-24
1501933199357660,25,-14,-9,0,3,-2,-41,-28
1501933199357660,19,5,-1,3,4,7,4,-64
1501933199358657,-1,-7,-1,-11,-5,-9,-12,-14
1501933199358657,-16,-5,16,5,6,28,75,34
1501933199364620,25,6,-11,-9,-7,-5,15,39
1501933199364620,33,8,9,4,3,3,16,0
1501933199373622,-9,1,3,-1,-4,-18,-79,11
1501933199373622,31,-22,-7,-4,-5,1,34,-32
1501933199379669,-21,10,4,3,2,2,-2,13
1501933199379669,-13,2,-9,0,-2,-12,-22,25
1501933199394672,-88,8,2,0,0,11,59,10
1501933199394672,-14,-10,-9,-1,-6,-15,-42,-28
1501933199401691,-51,-3,-8,-2,-2,4,21,-1
1501933199401691,-24,-3,14,0,-1,0,-13,51
1501933199424665,0,-14,11,-8,-4,-9,-66,-53
1501933199424665,33,15,-9,2,1,-3,23,-73
1501933199425639,-38,1,6,3,1,1,13,35
1501933199425639,-46,-10,4,-3,-4,-17,-43,40
1501933199439694,0,-34,-24,-8,-5,4,-14,27
1501933199439694,-32,6,5,-1,-1,3,61,30
1501933199440644,68,-3,-15,-4,-1,1,25,-26
1501933199440644,-39,-2,6,-5,-5,-3,9,-10
1501933199462638,29,30,18,12,9,11,18,27
1501933199462638,-11,5,-10,-5,-4,-13,13,-65
1501933199463627,32,-13,-4,3,0,-5,-25,47
1501933199463627,17,-12,-6,0,0,7,9,7
1501933199484692,68,6,2,1,0,2,13,19
1501933199484692,1,0,-6,1,2,9,67,74
1501933199485636,-32,-3,10,3,5,4,9,-105
1501933199485636,42,-4,-9,-7,-2,4,10,17
1501933199499681,-76,9,29,9,5,9,74,6
1501933199499681,-36,0,-10,-4,-2,-3,6,70
1501933199507691,0,-22,11,-2,-1,-1,-34,-16
1501933199507691,-29,12,-35,-3,3,11,19,-22
1501933199522693,2,5,0,0,-2,-9,-30,-5
1501933199522693,14,7,6,1,-1,2,9,47
1501933199523634,-50,-17,-3,-1,-4,-11,-23,-22
1501933199523634,19,-6,0,0,1,-1,-28,38
1501933199544691,-23,11,-14,1,1,1,-24,99
1501933199544691,-33,8,15,1,-1,2,-42,-60
1501933199545633,-30,-4,9,-5,-10,-8,-22,-11
1501933199545633,69,-12,-7,-1,2,-6,-43,16
1501933199559696,-26,22,11,3,3,6,52,-5
1501933199559696,69,-8,-20,-2,2,-8,-72,2
1501933199560640,46,9,19,6,1,2,33,5
1501933199560640,-30,-19,-5,-6,-6,-5,-27,6
1501933199582697,27,-3,-2,-4,-5,-1,52,-55
1501933199582697,-13,-11,-7,6,3,4,-7,-9
1501933199583635,-68,-19,-12,-7,1,-6,-83,-6
1501933199583635,16,2,0,4,3,8,52,-41
1501933199604701,-5,5,-3,-2,-4,-9,-4,-27
1501933199604701,6,6,11,-1,2,1,2,-49
1501933199605643,6,-5,-14,0,-5,-12,-31,17
1501933199605643,-43,7,11,-1,-1,3,-24,-13
1501933199619701,55,-23,3,-3,-1,3,-36,-9
1501933199619701,9,12,-14,-7,-3,-2,9,14
1501933199620644,3,10,-7,-1,1,-1,12,73
1501933199620644,70,-8,7,-1,-4,-5,2,-42
1501933199642680,36,6,-5,2,4,8,29,-5
1501933199642680,-21,-2,-3,-2,-3,-8,-47,14
1501933199643639,29,2,2,-3,-1,6,35,32
1501933199643639,6,31,12,2,1,-1,2,-46
1501933199664707,-36,-11,1,-3,-6,-18,-44,-17
1501933199664707,78,-9,24,1,2,20,104,-3
1501933199665646,-7,5,-28,-2,2,12,25,-25
1501933199665646,24,-8,-1,-3,-3,-9,-58,38
1501933199679678,14,-1,-9,-1,5,7,5,25
1501933199679678,5,-10,4,-4,-1,-8,-55,16
1501933199680647,3,13,11,6,-1,-6,-35,-8
1501933199680647,-35,-8,-3,-5,0,7,42,14
1501933199702684,14,-5,-22,-3,-2,-8,-85,-19
1501933199702684,-26,2,-16,0,4,6,27,7
1501933199703650,2,-15,1,-11,-9,-1,27,-24
1501933199703650,-36,9,8,3,-3,-9,-10,-8
1501933199724708,-105,6,12,5,0,0,-5,-45
1501933199724708,-20,5,-5,-3,-1,-2,-18,44
1501933199725649,29,21,4,6,3,15,90,-38
1501933199725649,71,3,13,3,0,-2,22,-47
1501933199739647,-1,-3,-42,-13,-7,-5,8,19
1501933199739647,3,-5,7,1,-6,-10,-17,-6
1501933199747686,-12,-9,-9,-4,-2,2,43,-5
1501933199747686,-26,-13,-2,-1,3,4,28,23
1501933199762689,45,13,11,5,3,6,12,27
1501933199762689,-13,-1,-2,-2,-4,-11,-5,5
1501933199763646,3,3,-1,1,2,3,-22,18
1501933199763646,-19,1,6,1,0,-4,-22,-51
1501933199784688,52,-19,-13,-5,-5,4,6,-34
1501933199784688,29,11,8,-1,2,-3,-32,-39
1501933199785647,-23,9,8,3,0,-3,-25,-17
1501933199785647,-7,14,4,1,-1,1,17,3
1501933199807713,17,-6,3,3,0,-3,-13,4
1501933199807713,-31,-9,3,-3,-5,-18,-105,-19
1501933199808682,18,-1,4,-1,-1,-2,52,23
1501933199808682,-9,1,-13,-2,-1,2,-23,-37
1501933199822704,38,-3,4,0,0,-3,-59,-21
1501933199822704,1,2,-4,-3,-3,2,-6,-1
1501933199823649,8,1,15,1,-1,-8,-58,2
1501933199823649,-45,-4,-21,-5,-5,-9,-4,-5
1501933199844691,-61,-2,14,1,0,9,50,61
1501933199844691,-2,4,3,4,3,-2,-22,-47
1501933199845658,-100,-1,-8,-4,-3,-2,4,22
1501933199845658,3,-8,-20,-2,0,-1,11,37
1501933199859669,-24,-12,2,-2,-1,-2,-9,32
1501933199859669,-6,3,-12,2,1,4,7,-23
1501933199867716,43,2,-19,1,0,-2,21,-9
1501933199867716,-10,-7,27,1,-1,-1,0,-9
1501933199882708,-14,-2,-2,-3,-7,-4,22,-4
1501933199882708,4,-9,-4,-5,-3,-3,-3,12
1501933199883652,14,-2,6,2,2,3,12,-6
1501933199883652,-3,-15,-16,-1,2,0,-2,20
1501933199904715,5,6,14,-2,-1,0,31,-30
1501933199904715,-3,-5,8,-1,-4,-3,2,74
1501933199905661,-36,5,3,0,-1,1,-42,19
1501933199905661,32,-13,0,1,1,10,54,23
1501933199919722,66,0,-22,-4,-3,-6,-42,-54
1501933199919722,-1,3,-11,-4,-5,-4,-3,-8
1501933199927691,-31,-6,-11,-5,-3,-2,3,5
1501933199927691,23,-7,8,1,-3,2,23,30
1501933199942666,-7,-2,-13,0,2,1,9,14
1501933199942666,-33,-28,-2,-7,-5,-3,22,-30
1501933199943656,43,7,7,1,-1,0,-14,-20
1501933199943656,-5,-4,-6,-6,-8,-11,-3,-16
1501933199964728,25,2,0,-1,-1,-1,11,13
1501933199964728,-31,-2,7,2,4,1,3,43
1501933199965664,4,-2,8,2,-2,-9,-26,-20
1501933199965664,-23,2,-2,2,-1,-6,-53,-7
1501933199979722,-26,-2,-13,-5,-2,-2,-6,-43
1501933199979722,82,1,6,0,2,4,-1,-13
1501933199987698,-25,-19,-3,-2,-2,-4,-1,-44
1501933199987698,0,16,1,0,0,1,-21,-21
1501933200002691,-34,0,5,2,1,2,13,0
1501933200002691,-28,-18,-15,-5,-4,-8,-32,1
1501933200003658,28,2,-3,-1,0,1,-50,-13
1501933200003658,-9,-2,-14,-1,0,-2,-26,19
1501933200024725,1,-9,2,-2,-2,2,29,21
1501933200024725,-26,-2,-2,-2,-1,-7,-49,-20
1501933200025681,-23,1,4,-2,-3,-4,-5,12
1501933200025681,-10,1,5,2,-3,-4,-9,29
1501933200039661,-15,0,12,4,0,-1,6,-16
1501933200039661,18,5,-2,-1,-3,-2,-20,12
1501933200047703,25,-7,-11,-2,1,-2,2,22
1501933200047703,-47,15,3,1,1,3,38,-43
1501933200062730,10,10,12,5,3,6,-14,-6
1501933200062730,-10,2,-20,-3,-4,0,15,9
1501933200063663,-2,1,27,2,3,8,90,-1
1501933200063663,-2,-14,-23,-7,-4,2,52,11
1501933200084696,9,9,-5,-2,2,-1,2,8
1501933200084696,12,-13,-7,-1,-4,-4,15,15
1501933200085675,41,-12,-15,-3,-3,-5,-8,-24
1501933200085675,-30,-1,8,-3,2,0,-15,-9
1501933200108686,45,-9,1,-3,-3,-4,-18,21
1501933200108686,-61,3,-16,1,0,4,39,-5
1501933200108686,21,-18,-6,-4,-2,-3,-17,33
1501933200108686,73,5,6,-1,-2,-3,-32,-11
1501933200122721,19,0,-17,-4,-4,0,-4,-27
1501933200122721,39,-19,8,1,1,-3,10,9
1501933200123667,-2,20,-4,2,3,5,14,8
1501933200123667,-106,4,9,-2,-2,-5,-21,1
1501933200144731,-35,2,-4,2,1,0,27,28
1501933200144731,11,5,-16,4,0,1,12,1
1501933200145679,-1,7,16,-4,-3,-1,-1,12
1501933200145679,57,-8,-8,-3,1,1,3,13
1501933200168689,-21,7,19,4,0,-2,4,-26
1501933200168689,-16,8,22,2,1,2,19,-9
1501933200168689,-28,-8,-38,-6,-3,-9,-7,6
1501933200168689,32,1,-3,0,0,0,-12,-49
1501933200182707,19,2,11,-3,0,-6,-3,4
1501933200182707,-30,11,4,-2,-2,8,39,0
1501933200183669,6,-3,4,4,0,2,-6,-6
1501933200183669,23,-4,-3,0,0,-4,0,8
1501933200204730,-92,-5,-8,-1,1,2,-6,-1
1501933200204730,46,7,17,4,0,-3,-11,-28
1501933200205672,-16,1,11,0,0,4,29,3
1501933200205672,10,3,-20,-4,-2,-4,-4,10
1501933200228687,3,-4,2,2,1,-4,-19,46
1501933200228687,16,-4,-14,-6,0,1,23,-8
1501933200228687,16,8,11,3,-1,-1,11,15
1501933200228687,-18,9,19,2,-1,0,-10,-3
1501933200242719,-17,5,-2,-1,-1,6,24,-1
1501933200242719,-31,-7,4,-3,-2,-2,-38,-13
1501933200243674,6,10,-14,2,1,-2,-16,6
1501933200243674,-20,-10,-8,-3,-1,4,21,6
1501933200264741,-7,-7,-2,-2,-6,-10,-39,5
1501933200264741,35,2,5,5,1,0,-20,22
1501933200265682,-45,1,3,2,2,0,-4,-45
1501933200265682,27,-2,0,1,2,3,12,-16
1501933200288685,-17,-1,0,-2,-1,0,-6,-36
1501933200288685,-25,-2,-1,-3,-1,7,33,-10
1501933200288685,-10,-8,9,-1,-2,-8,-27,-15
1501933200288685,43,2,-15,-5,-1,0,-23,19
1501933200302736,-9,-4,-6,-1,-3,2,32,9
1501933200302736,4,3,3,-1,-1,-3,-15,10
1501933200303676,45,-11,3,-1,-3,-2,12,-3
1501933200303676,-9,3,7,-2,-3,0,1,-42
1501933200324697,20,-13,-8,-5,-3,-6,-27,10
1501933200324697,-36,5,4,2,2,4,9,34
1501933200332743,-61,5,1,-2,-2,-1,-11,5
1501933200332743,-3,-3,3,0,-2,-3,-6,-2
1501933200348713,24,-8,-14,-4,-1,-3,11,-16
1501933200348713,-1,-2,0,-3,-1,-1,-43,-45
1501933200348713,5,-11,1,2,2,6,53,8
1501933200348713,31,9,-4,0,1,-2,-6,-16
1501933200370681,-5,8,5,1,1,-1,15,-2
1501933200370681,40,10,1,-2,1,0,13,-2
1501933200371680,-3,-3,-6,-1,-2,0,-15,11
1501933200371680,-10,-5,6,3,0,-1,0,13
1501933200384723,4,-9,-6,-4,-2,-2,12,0
1501933200384723,26,11,-1,-1,-1,-3,-3,3
1501933200392742,-10,-2,-8,-5,-4,-5,-19,13
1501933200392742,-8,-3,-1,1,-1,-2,1,13
1501933200407723,-5,-10,3,-1,0,3,-2,1
1501933200407723,-25,16,-3,1,1,-3,-13,-1
1501933200408721,-70,5,3,-2,-1,1,-51,-18
1501933200408721,11,-2,-4,0,-3,-3,-46,-12
1501933200430739,-25,2,-3,-2,0,0,-17,-3
1501933200430739,6,-1,4,2,-2,-4,0,-8
1501933200431684,36,-4,-14,-2,-2,-4,14,2
1501933200431684,20,-17,3,-3,-3,-4,-26,20
1501933200453687,-17,-1,5,1,2,3,14,-12
1501933200453687,-3,-2,-9,0,-2,-3,-7,4
1501933200453687,41,2,-15,-9,-4,-1,-24,25
1501933200453687,-33,0,7,3,2,5,47,4
1501933200468711,21,3,-7,1,-1,1,21,-8
1501933200468711,1,-13,4,-4,-5,-4,2,2
1501933200468711,-25,-11,1,-2,-1,-1,-9,13
1501933200468711,13,4,6,0,2,2,5,-1
1501933200490720,22,9,8,-2,-4,-5,-35,62
1501933200490720,-13,1,-2,0,1,5,58,-6
1501933200491723,-52,-3,-5,-5,-6,-6,-19,-13
1501933200491723,-12,6,1,1,1,3,30,2
1501933200504701,-11,-2,-2,-3,-5,-12,-55,-34
1501933200504701,28,-5,-3,-1,0,2,10,21
1501933200512731,40,2,0,0,0,1,12,-9
1501933200512731,-32,2,0,-1,-2,0,-4,0
1501933200528706,29,7,8,3,2,5,8,-21
1501933200528706,-29,-7,-6,-3,-1,-1,-5,-12
1501933200528706,28,7,10,2,0,1,25,16
1501933200528706,-25,-6,-3,-5,-2,-5,-16,-23
1501933200550702,1,-1,-12,-4,-1,-3,-20,3
1501933200550702,12,-7,-4,-5,-2,-3,6,4
1501933200551700,11,4,0,2,0,-1,-7,-15
1501933200551700,-26,2,-1,1,1,0,-18,4
1501933200564689,74,-5,-6,-4,-5,-2,1,-1
1501933200564689,-13,-5,2,1,2,-3,-25,5
1501933200572695,17,2,15,1,1,0,13,-17
1501933200572695,2,-3,-6,-1,-4,-5,8,4
1501933200587725,-4,-5,4,-1,-1,-1,-1,-19
1501933200587725,3,-3,-1,3,2,1,13,-11
1501933200588692,-78,7,-6,-5,0,9,45,14
1501933200588692,-16,4,1,-3,-1,2,-2,30
1501933200610707,9,1,-7,1,1,0,24,-16
1501933200610707,-6,8,2,1,-2,-2,-8,5
1501933200611695,11,1,-3,-1,-1,-3,25,-13
1501933200611695,-1,-5,5,4,-1,-2,-5,-7
1501933200632765,-15,-12,-3,2,-1,2,11,56
1501933200632765,-44,3,2,-4,-3,-1,21,-21
1501933200633696,85,8,3,5,3,4,-5,0
1501933200633696,-7,-2,-14,-4,-1,-5,-25,-12
1501933200648735,8,0,2,1,1,2,21,0
1501933200648735,-29,-12,6,0,0,5,20,0
1501933200648735,3,-10,-18,-4,-4,-7,-7,-13
1501933200648735,87,-4,2,2,4,4,30,9
1501933200670698,-77,1,4,1,-1,-5,-36,-16
1501933200670698,-10,3,-4,0,-2,0,-5,17
1501933200671701,9,-1,12,-1,1,0,-35,-17
1501933200671701,12,-1,1,-1,1,-2,-3,-19
1501933200693735,8,0,-6,-1,1,2,26,-16
1501933200693735,-17,-4,-8,-3,-5,-7,-19,13
1501933200693735,46,-2,19,0,0,-8,-37,-11
1501933200693735,-29,-8,3,-1,-2,-4,-9,9
1501933200706766,23,1,-14,1,1,5,5,9
1501933200706766,26,-2,-5,-1,-3,-6,-40,4
1501933200715710,2,10,-3,3,-2,1,49,30
1501933200715710,-11,13,-13,-1,-4,-9,-9,-5
1501933200730759,-3,0,5,1,2,6,51,15
1501933200730759,-41,-2,-11,-8,-3,1,16,-9
1501933200731700,6,-8,-10,-2,-3,-1,-14,3
1501933200731700,-9,-1,13,3,-2,1,7,3
1501933200752770,3,0,0,-5,-4,-10,-59,-6
1501933200752770,-4,-4,-6,2,2,2,4,-22
1501933200753701,-61,-1,2,-1,4,6,1,7
1501933200753701,-43,-12,-6,-6,-4,0,-3,-20
1501933200768737,-59,-2,-3,-5,-4,-5,-3,-21
1501933200768737,55,2,15,1,1,2,-12,20
1501933200768737,-30,-1,-5,1,-4,-6,6,4
1501933200768737,17,-11,-14,0,3,5,12,6
1501933200790767,0,15,6,0,-2,-2,-27,-16
1501933200790767,15,-3,6,-1,-2,2,53,-5
1501933200791704,-21,-7,-7,-4,-1,-4,-27,0
1501933200791704,11,3,4,0,-1,-1,1,7
1501933200812747,5,-5,-4,4,1,-1,-2,-10
1501933200812747,-7,-1,2,1,1,-2,-19,1
1501933200814708,-56,-3,-16,-1,-1,1,18,8
1501933200814708,-10,12,7,1,2,5,29,1
1501933200826739,-10,-16,-1,-3,0,4,-24,8
1501933200826739,31,3,3,1,-1,-6,-10,6
1501933200835714,9,5,-1,3,2,0,15,-26
1501933200835714,-8,-2,12,2,-2,-1,-3,-12
1501933200850758,13,-2,-9,-1,-1,-3,-14,-5
1501933200850758,11,-1,5,1,0,0,7,1
1501933200852708,34,-4,1,-3,-1,-2,-8,2
1501933200852708,-14,-7,-3,-1,-1,-3,-14,22
1501933200872748,32,10,6,0,-1,5,25,14
1501933200872748,-19,1,-10,0,-2,-2,-21,-10
1501933200874709,22,-5,3,-5,-3,-2,-14,5
1501933200874709,-6,8,-10,-1,1,1,2,39
1501933200886775,-9,-9,-2,-7,-5,-7,-6,-13
1501933200886775,23,-5,-4,-3,-3,0,7,3
1501933200895723,-3,1,2,4,3,3,-20,-10
1501933200895723,19,-2,-5,-2,-4,-7,-30,0
1501933200910777,-15,-3,-1,-1,1,1,12,0
1501933200910777,0,4,-2,0,-2,0,5,-2
1501933200912733,48,-14,-5,-5,-8,-10,-36,8
1501933200912733,5,3,3,-1,-3,6,35,-7
1501933200932777,9,10,3,2,-1,-3,0,7
1501933200932777,-31,-10,-3,-3,-2,-3,-3,-19
1501933200934712,47,0,6,3,-1,-1,-13,3
1501933200934712,-75,17,2,-3,-2,-1,-6,-10
1501933200946781,-2,-4,-7,-2,0,-3,-6,5
1501933200946781,8,0,-5,-2,-2,3,18,5
1501933200955721,-17,0,2,0,1,1,5,-13
1501933200955721,31,-5,-3,-1,-1,0,8,-7
1501933200970754,-11,-4,2,3,1,3,12,-8
1501933200970754,-32,1,-6,-6,-3,-5,-2,9
1501933200971715,-35,2,2,1,0,3,43,13
1501933200971715,-12,-3,-2,-5,-3,-5,-11,-25
1501933200992753,-26,-1,8,4,2,6,12,0
1501933200992753,22,-1,2,2,-1,-3,-33,-2
1501933200994716,40,2,-4,0,-2,-3,0,-3
1501933200994716,-1,3,-2,-3,0,-1,8,-7
1501933201006749,-8,1,0,-3,0,1,2,-2
1501933201006749,9,6,9,5,2,1,5,-14
1501933201015743,-41,-1,10,5,-1,-2,0,2
1501933201015743,15,-13,-25,-8,-1,-2,5,7
1501933201030763,-18,1,-2,-2,-3,-2,1,-8
1501933201030763,0,-3,-6,-2,-1,-1,-1,13
1501933201032731,4,0,3,-1,-2,-4,-36,9
1501933201032731,1,-8,3,2,-1,3,22,-2
1501933201053725,88,-1,-1,-2,-3,-3,7,15
1501933201053725,-24,-6,-1,-4,0,-2,-6,-1
1501933201054720,-7,0,-3,-2,0,4,16,0
1501933201054720,-21,-12,0,-2,-1,1,0,-6
1501933201066763,18,10,4,-2,-1,-3,-4,-7
1501933201066763,-3,2,-1,1,-2,-2,-8,3
1501933201075728,33,3,-7,-8,-4,-3,-1,-2
1501933201075728,19,8,0,0,5,6,22,8
1501933201089792,-25,-7,24,6,-1,-1,-5,-6
1501933201089792,0,-2,-7,-3,-1,-3,-33,-15
1501933201098723,-32,-14,-4,-2,-2,-2,-10,5
1501933201098723,23,6,3,1,0,-1,-7,9
1501933201112788,-8,1,-8,-6,-4,-4,-1,5
1501933201112788,2,-2,-4,-2,0,-1,-13,-14
1501933201114723,14,2,9,-1,-2,-4,-9,-2
1501933201114723,3,-3,-14,0,-2,-8,-61,-25
1501933201126763,-33,0,-6,-1,0,0,9,4
1501933201126763,-8,-3,3,4,3,2,8,-13
1501933201135722,-1,14,-6,-1,2,6,55,-9
1501933201135722,52,-16,3,-2,-3,-3,-12,5
1501933201150770,-26,-2,-6,-4,-3,1,18,-14
1501933201150770,-9,-5,-7,-3,-5,-6,14,-11
1501933201152726,-14,1,8,2,2,0,-2,-1
1501933201152726,-1,-1,12,0,-2,2,20,22
1501933201172766,1,9,-2,-3,0,1,-3,-27
1501933201172766,28,0,3,-2,-5,0,19,2
1501933201174726,5,-6,-17,-4,-2,-1,-33,-19
1501933201174726,-13,3,8,1,-1,-2,8,-2
1501933201186736,11,-14,-8,-1,0,0,-4,0
1501933201186736,-8,-1,2,-1,-2,1,1,6
1501933201195759,-16,-3,0,-2,-2,-6,-25,5
1501933201195759,10,-5,2,1,2,5,36,-13
1501933201210770,43,-5,-11,-3,-2,-3,-1,-1
1501933201210770,7,8,2,3,2,-3,-10,1
1501933201212729,-6,-2,-5,-2,-1,2,9,2
1501933201212729,2,2,-4,-3,-5,-3,2,-1
1501933201232770,-11,-5,0,-2,-1,-6,-16,17
1501933201232770,-9,-4,1,-2,-2,-6,-28,-30
1501933201234739,4,-3,-4,-1,0,0,12,12
1501933201234739,-14,1,2,2,0,-2,-13,7
1501933201246769,-7,-2,2,-1,-2,0,-10,-12
1501933201246769,21,8,-3,-1,-3,-2,-10,16
1501933201255745,-1,-4,-1,-1,0,-6,29,14
1501933201255745,-24,1,20,7,3,2,-7,-14
1501933201270772,-22,-8,-20,-3,3,4,8,10
1501933201270772,5,-4,-2,-2,-1,2,-9,4
1501933201272732,1,-5,-13,-6,-4,-5,-9,-22
1501933201272732,-2,4,3,3,1,1,13,-16
1501933201292775,25,-4,4,-2,-3,-7,-20,-29
1501933201292775,-61,-5,-3,-5,-1,-1,8,13
1501933201294735,0,-3,3,0,0,1,-9,-3
1501933201294735,-8,1,-4,-3,-1,-6,-20,0
1501933201306737,-3,4,9,7,0,4,0,8
1501933201306737,23,-6,-5,-3,-5,-2,-12,1
1501933201315743,-8,3,5,0,0,-1,-5,-5
1501933201315743,-14,0,-7,-6,-2,-7,-41,-16
1501933201330804,-14,-8,-1,-2,1,1,25,14
1501933201330804,12,-7,-2,-1,0,-4,3,15
1501933201332743,0,10,4,5,1,2,-6,-13
1501933201332743,-3,8,-2,1,-4,0,-3,7
1501933201352769,-9,-4,-1,-4,-5,-10,-15,9
1501933201352769,3,-3,-17,-7,-2,0,16,-15
1501933201354747,29,-5,-1,-3,-1,-1,-5,4
1501933201354747,-1,-4,-3,-2,-3,-1,10,9
1501933201366803,-50,0,-1,-2,-1,0,0,1
1501933201366803,36,-2,5,1,-2,0,-16,-2
1501933201375766,20,-4,3,-2,-3,-7,-14,-16
1501933201375766,-72,-2,-4,0,-2,2,24,-1
1501933201390786,25,9,0,3,0,0,-7,7
1501933201390786,-21,4,11,1,3,5,31,-7
1501933201391778,-27,-9,1,-2,-2,2,9,0
1501933201391778,23,4,-2,-3,1,0,-10,5
1501933201412782,22,4,-1,0,-2,-2,-6,-14
1501933201412782,-23,-4,-2,0,0,0,-17,-3
1501933201414742,45,5,-1,2,0,-2,2,22
1501933201414742,-5,6,-4,-6,0,3,-16,-12
1501933201426797,7,5,1,0,1,3,6,11
1501933201426797,3,-5,-8,-1,-3,-6,-11,-11
1501933201435748,-47,1,12,2,1,1,-4,-3
1501933201435748,48,-2,-13,-2,-2,-5,-42,6
1501933201450786,-11,0,3,1,2,4,23,-19
1501933201450786,-5,1,-5,-1,-1,2,16,5
1501933201452741,-9,-3,-13,-3,-3,0,5,1
1501933201452741,6,1,6,2,0,-2,9,0
1501933201472784,-24,-7,-3,-1,-1,-4,-13,-8
1501933201472784,7,2,0,0,-1,-2,2,7
1501933201474742,-33,-13,-2,-1,-2,-5,-17,-5
1501933201474742,53,4,-2,0,1,4,21,15
1501933201486805,13,3,-2,-2,-2,-4,-6,10
1501933201486805,-11,2,5,1,0,0,17,-1
1501933201495759,-7,-1,-4,1,0,-2,-11,-9
1501933201495759,-14,-10,-2,-5,-4,-5,-5,17
1501933201510779,-28,-9,0,-2,-1,-5,10,-1
1501933201510779,39,7,4,2,5,9,0,12
1501933201512754,-51,6,1,-1,0,3,5,1
1501933201512754,24,-8,-6,-1,-3,-3,9,14
1501933201532788,-3,5,3,-4,-4,-4,-18,-3
1501933201532788,-11,1,0,1,0,-1,-3,7
1501933201534747,22,-7,-1,-1,0,-1,2,2
1501933201534747,-25,4,-4,-3,1,-2,-19,-9
1501933201546760,0,-7,-6,-3,-1,-2,10,-1
1501933201546760,-25,2,6,-1,-1,4,12,4
1501933201555759,8,10,-9,-4,-1,0,-4,-12
1501933201555759,2,-17,0,3,-1,-4,9,-2
1501933201570751,7,3,0,-1,-1,2,2,-2
1501933201570751,-2,0,1,-3,-3,-10,-12,15
1501933201571750,5,-1,-3,-1,-1,3,22,11
1501933201571750,-7,-2,-5,-2,-1,1,9,-21
1501933201592783,-26,-7,-4,2,-1,-1,-9,-7
1501933201592783,-1,-7,4,-4,-5,-6,-52,6
1501933201594751,-2,-21,2,-1,-5,-2,22,-14
1501933201594751,17,9,-19,-9,-5,-5,4,-7
1501933201615751,5,1,-1,-1,0,0,-6,-11
1501933201615751,-1,0,-3,1,2,1,5,-25
1501933201617753,-12,2,1,-5,-1,-2,-5,25
1501933201617753,-77,6,2,-1,-2,-4,-3,-10
1501933201630754,23,0,4,0,-1,0,3,2
1501933201630754,-3,0,-1,-4,-2,1,30,-5
1501933201631753,-2,5,2,2,1,-2,-21,-14
1501933201631753,-8,-6,-1,-1,-2,-1,0,2
1501933201652752,6,4,-1,-2,-1,-5,19,12
1501933201652752,-22,-9,4,3,-1,2,-8,-8
1501933201654756,24,5,-4,-2,-2,-4,-28,-6
1501933201654756,7,-6,1,0,2,4,13,-2
1501933201675795,-7,8,3,1,1,2,-8,7
1501933201675795,8,-1,-5,-1,0,-1,2,3
1501933201677755,15,9,1,1,-1,1,8,9
1501933201677755,-48,-3,1,0,1,4,12,-10
1501933201690799,-12,2,2,1,0,2,1,5
1501933201690799,-14,2,-8,0,1,0,4,3
1501933201691756,29,1,14,0,1,3,43,3
1501933201691756,-14,-3,-10,-3,-2,-2,-15,28
1501933201712800,10,-8,-14,-6,-2,2,3,-9
1501933201712800,-27,8,7,1,-1,2,16,-7
1501933201714763,-64,0,1,-1,1,-1,-3,-10
1501933201714763,24,-10,-1,-2,-4,-2,2,11
1501933201735774,4,-4,6,3,1,0,3,-12
1501933201735774,21,-3,-8,-5,-5,-11,-30,-1
1501933201736762,15,-2,-5,1,-1,1,-17,-17
1501933201736762,-15,6,9,2,0,2,34,2
1501933201749824,1,10,-4,-2,-1,-1,-24,-11
1501933201749824,-17,-3,0,-2,-5,-3,-1,0
1501933201756802,-2,-3,-4,0,-4,-5,-22,2
1501933201756802,44,1,-3,0,0,-2,-11,-10
1501933201772800,12,-5,3,1,0,-1,-6,7
1501933201772800,17,-3,-1,0,-1,1,18,8
1501933201774761,12,-4,0,-3,-2,-3,-1,-7
1501933201774761,0,-9,-12,-4,0,2,-7,31
1501933201795806,-1,2,3,0,0,0,38,-1
1501933201795806,11,1,0,4,5,3,-1,-11
1501933201797763,-2,-2,-9,-5,-2,-2,-7,-4
1501933201797763,45,19,12,2,0,-1,-2,-17
1501933201809806,-20,-5,14,1,0,-3,-77,8
1501933201809806,11,-4,-21,-3,1,4,9,29
1501933201816829,-6,-1,-2,-4,-4,-2,1,-9
1501933201816829,18,-4,3,0,-2,-6,-35,-5
1501933201832806,6,2,-4,1,-1,0,-8,-15
1501933201832806,-5,-3,-4,-3,-1,-2,-5,-6
1501933201834799,8,-2,0,4,4,0,-10,11
1501933201834799,-16,-7,-1,-4,-1,-3,-2,-7
1501933201855807,2,-2,-1,3,-1,-1,40,-3
1501933201855807,7,-2,2,0,0,-4,9,28
1501933201856777,-4,1,-1,0,4,8,16,18
1501933201856777,-29,-1,-4,-1,1,-2,-13,-8
1501933201869826,57,2,0,-2,0,3,50,22
1501933201869826,2,-2,0,0,0,1,-19,-4
1501933201876836,12,8,-4,-3,-3,-1,-19,-7
1501933201876836,15,-2,6,2,-1,-3,22,-6
1501933201892810,-22,0,2,-1,-3,-2,-21,7
1501933201892810,7,-5,-8,-3,-1,-2,10,-2
1501933201894777,11,1,7,4,0,0,9,6
1501933201894777,-1,1,-1,-1,-1,0,-15,-23
1501933201915809,0,4,-6,-2,0,-1,-11,-19
1501933201915809,-5,-2,1,-2,-2,-2,-10,-32
1501933201916805,10,-1,-2,1,0,1,54,-10
1501933201916805,7,-5,2,1,-1,-1,7,26
1501933201929802,-13,-3,-1,-2,-1,-3,-7,-1
1501933201929802,-44,-7,-5,-4,-2,-3,-36,-8
1501933201936835,-22,-5,7,-1,-1,0,-3,-2
1501933201936835,20,2,-9,-2,-1,1,2,1
1501933201953773,23,-6,-3,-4,-1,-3,-27,8
1501933201953773,-6,6,4,4,3,6,31,-4
1501933201954771,-1,-6,-11,-5,-1,-2,-16,24
1501933201954771,3,-10,12,-1,-3,-3,-16,-6
1501933201975842,5,12,-9,4,4,10,28,9
1501933201975842,1,1,-1,-5,-6,-8,-2,1
1501933201976781,-34,-13,-5,-4,-2,-3,-13,-19
1501933201976781,-1,3,3,1,1,2,52,13
1501933201989773,-2,-5,-3,-4,-3,0,-2,-16
1501933201989773,-6,4,2,1,1,0,10,3
1501933201997824,3,1,-6,-1,-4,-4,-11,-1
1501933201997824,-6,-1,-1,2,1,-3,-20,-8
1501933202012815,-21,-8,-5,-8,-5,-7,-10,13
1501933202012815,19,2,0,2,0,2,21,-34
1501933202014807,2,-1,3,-1,1,-6,-66,-21
1501933202014807,-25,2,-1,1,0,8,42,3
1501933202035842,32,2,-5,-3,-1,-2,26,-22
1501933202035842,59,10,6,0,-2,-1,-3,25
1501933202036801,-62,0,2,0,0,-2,8,-1
1501933202036801,-2,-7,-9,-4,-1,-2,4,-30
1501933202049817,-22,-7,-5,0,2,1,1,4
1501933202049817,-8,-5,5,2,1,3,25,14
1501933202056821,29,5,-5,-1,0,4,13,5
1501933202056821,-9,-2,-3,-3,-2,-4,-51,-2
1501933202072821,-8,-8,3,-1,-4,-4,-27,6
1501933202072821,-9,0,3,1,0,4,-12,-15
1501933202074800,28,-2,5,4,0,-2,19,16
1501933202074800,-58,2,4,-5,-3,-2,-5,9
1501933202095845,28,1,-8,-4,-2,-5,-19,-9
1501933202095845,2,0,-1,-1,-2,-2,-9,-11
1501933202096814,13,-2,-4,-3,-3,-3,-6,-18
1501933202096814,8,8,-2,-5,-3,-4,-22,-7
1501933202109803,-32,-3,0,2,2,0,1,-20
1501933202109803,-6,-3,13,-4,-2,-4,3,2
1501933202118781,3,-2,-16,-3,-2,-2,-4,-7
1501933202118781,2,-5,12,2,1,-2,16,2
1501933202132821,-16,-8,-17,-6,-6,-6,-24,-4
1501933202132821,29,0,-7,-3,-1,-1,-4,7
1501933202134815,-5,-4,5,3,0,2,-8,3
1501933202134815,30,-1,-4,-1,-1,-4,-11,1
1501933202155848,5,-2,3,3,-1,-6,-11,14
1501933202155848,-11,3,-1,-2,-1,0,-21,-16
1501933202156812,-25,0,18,1,-2,-4,3,8
1501933202156812,-3,1,-22,-2,1,5,9,-19
1501933202169804,-6,-1,6,0,-1,0,20,-3
1501933202169804,-10,-5,-8,-3,0,-3,-3,4
1501933202178785,-16,3,5,2,-2,-1,-6,1
1501933202178785,35,-1,2,-1,-3,-5,-29,-16
1501933202192814,-46,4,5,2,0,1,25,25
1501933202192814,2,-3,0,-1,0,-2,-18,7
1501933202194784,20,2,-6,-4,-2,2,20,5
1501933202194784,-25,-1,2,1,-2,-1,-7,0
1501933202215834,2,-2,0,-1,-2,-1,-8,-2
1501933202215834,-6,-4,-5,-2,-2,-3,-19,3
1501933202216817,11,-3,-3,0,2,6,18,-6
1501933202216817,-16,4,-3,-2,-2,2,-4,-18
1501933202229819,17,-10,1,-2,-3,0,5,-23
1501933202229819,-11,5,-1,2,1,1,0,-9
1501933202237831,24,3,2,-2,1,5,23,4
1501933202237831,-9,-6,-1,-1,-2,-5,7,13
1501933202252830,-14,1,1,-1,0,2,-4,-4
1501933202252830,-5,-13,-1,0,-2,-9,-57,-6
1501933202254798,38,3,-6,-2,-2,-2,20,9
1501933202254798,-2,-12,-1,-2,0,1,-11,8
1501933202275848,-4,-6,-1,-1,1,2,31,-15
1501933202275848,16,4,5,0,0,1,8,-9
1501933202276799,-34,12,-19,-5,-2,-5,-1,-1
1501933202276799,-2,0,2,0,-1,-2,4,5
1501933202288855,-1,-2,-4,-3,-5,-3,-20,4
1501933202288855,-16,-3,-1,-1,2,2,-3,-4
1501933202297857,2,-6,7,2,-2,-5,-23,-7
1501933202297857,-36,-3,-5,0,1,6,27,18
1501933202312831,6,10,0,1,1,-1,-22,-1
1501933202312831,1,0,-12,-2,-3,2,44,13
1501933202314819,-2,-2,8,-1,-2,-1,0,6
1501933202314819,9,0,1,0,2,3,0,-3
1501933202335862,6,1,0,2,1,-2,-7,3
1501933202335862,-7,-2,-3,-2,-2,3,21,6
1501933202336795,-11,-1,-4,-2,-2,-6,-47,-27
1501933202336795,9,3,0,-4,-3,-3,-6,14
1501933202348857,-33,-7,-2,-1,-1,0,18,-1
1501933202348857,37,7,1,-2,-2,-1,5,-3
1501933202357860,9,3,-1,1,2,2,-15,-16
1501933202357860,55,-2,-3,-3,-1,-2,26,-5
1501933202372834,8,0,-1,-2,-2,-1,15,2
1501933202372834,-16,-10,-2,-2,-2,-4,-18,2
1501933202374797,-4,-3,4,1,-2,2,5,-1
1501933202374797,-14,-2,2,3,1,-3,-25,-2
1501933202395842,28,8,-1,1,-1,0,10,9
1501933202395842,-7,0,3,-1,3,2,17,-2
1501933202396807,0,-4,0,-1,-2,-1,0,-2
1501933202396807,-22,0,1,0,-1,-1,16,-13
1501933202408872,25,-5,-3,-2,-1,-2,1,-7
1501933202408872,0,2,0,0,-3,-4,-11,9
1501933202417840,-12,0,-3,-1,-1,-2,0,1
1501933202417840,-2,-3,-1,-3,0,0,19,5
1501933202432847,-24,-9,2,1,1,-4,-26,-17
1501933202432847,-8,0,-6,-1,0,0,18,7
1501933202434835,10,-7,-4,-1,2,3,11,12
1501933202434835,9,1,0,1,-3,-5,-26,-39
1501933202455840,-23,-5,9,-1,1,2,15,20
1501933202455840,0,-6,-14,-2,1,-3,-15,-9
1501933202456805,-40,-7,-5,-4,-4,-5,15,-4
1501933202456805,-5,3,1,-2,0,-4,-37,10
1501933202469819,-9,-1,1,1,-2,3,24,18
1501933202469819,-18,2,7,4,-1,0,1,11
1501933202477850,30,6,0,-1,-1,-3,20,3
1501933202477850,3,0,-3,-2,1,3,14,0
1501933202492828,15,-8,-4,-3,-2,-3,-23,-13
1501933202492828,11,-5,-2,-5,-5,-1,1,-4
1501933202499818,26,12,1,3,1,-2,8,13
1501933202499818,-9,-1,-3,0,-1,-4,-18,-5
1501933202515845,12,4,3,0,1,-2,-11,5
1501933202515845,-8,-4,-4,2,0,-3,-22,-31
1501933202516817,-19,-3,2,-1,1,3,29,-10
1501933202516817,11,1,2,3,2,0,4,12
1501933202537843,-16,4,-2,-5,-6,-5,-48,-6
1501933202537843,37,-7,-3,1,-1,-3,-7,21
1501933202539816,-3,-1,-4,-2,-2,-1,-14,-18
1501933202539816,9,6,0,-2,0,2,24,0
1501933202552874,-17,3,-3,1,-2,1,7,-3
1501933202552874,-23,-1,5,-1,-2,-3,-7,-12
1501933202554818,13,-6,-1,0,0,-1,-6,9
1501933202554818,-8,-6,-1,0,0,2,1,-2
1501933202575849,36,-4,-4,-4,-3,-2,3,-10
1501933202575849,-11,14,4,1,1,8,27,6
1501933202576807,-15,-9,-2,-2,-1,-4,-27,-2
1501933202576807,2,-3,-3,-2,1,1,23,0
1501933202597852,-12,-3,-4,-4,-2,-5,0,7
1501933202597852,4,-1,-2,-2,-3,0,-2,7
1501933202599825,6,-2,1,-2,0,-2,-10,1
1501933202599825,-20,-3,1,0,-3,0,19,5
1501933202612834,17,0,-3,-1,1,-1,-24,10
1501933202612834,-38,5,0,-1,-1,-2,10,-10
1501933202614810,-20,-4,-6,-2,-1,0,4,-1
1501933202614810,1,-2,4,-2,-4,-6,-22,0
1501933202635856,7,3,1,2,-1,2,10,3
1501933202635856,6,-6,-3,-4,-3,-7,-24,3
1501933202636811,-4,-4,-2,0,-2,0,-7,-12
1501933202636811,6,9,2,1,4,8,9,-2
1501933202657853,3,-5,-3,0,2,0,5,-5
1501933202657853,-2,-5,0,-2,-2,-1,2,-5
1501933202659813,-4,1,-2,-4,-1,-3,-9,-1
1501933202659813,9,-1,-6,0,-2,-4,-8,-2
1501933202672884,-6,2,5,-3,-2,-1,-7,-2
1501933202672884,1,-3,-4,-1,-2,-4,-14,-5
1501933202678877,-10,-5,0,-1,-1,1,12,-5
1501933202678877,23,-14,-2,-3,-3,-2,9,17
1501933202695846,-4,12,3,3,5,3,20,-18
1501933202695846,-5,-2,1,-1,2,0,4,-6
1501933202696815,13,-6,-3,-3,-4,-3,9,7
1501933202696815,-17,-1,-2,-3,-1,-3,-3,-13
1501933202717857,22,-2,-8,-4,-5,-5,-7,-11
1501933202717857,3,0,-2,-1,-2,-3,-26,-3
1501933202719820,4,4,0,-1,0,2,4,14
1501933202719820,7,2,-1,0,-2,1,2,1
1501933202732853,2,-7,4,6,-1,-2,13,18
1501933202732853,6,3,0,1,0,1,9,6
1501933202738883,-21,-6,-10,-4,-1,-6,-31,-15
1501933202738883,-1,1,-1,-2,-1,1,0,6
1501933202755831,1,0,6,1,-1,1,22,-7
1501933202755831,-9,-10,-8,-3,-3,0,2,-12
1501933202756817,11,8,1,2,-1,-1,-13,6
1501933202756817,-22,-3,-8,-1,1,-1,0,-8
1501933202777875,-18,-1,3,-1,-1,4,13,4
1501933202777875,3,0,20,-1,-1,-5,-3,-3
1501933202779826,10,7,-35,-1,-1,1,2,13
1501933202779826,-4,0,33,-1,-3,-2,4,-16
1501933202792874,-4,-5,-10,-3,-1,-1,-5,6
1501933202792874,-9,3,-20,-3,-2,3,6,-4
1501933202798877,-2,-4,5,0,-2,-4,-33,6
1501933202798877,-9,-3,3,2,-2,-4,-24,-16
1501933202815860,-2,1,-12,-4,-1,-2,-17,-5
1501933202815860,10,-3,8,2,1,-3,-16,-6
1501933202816820,-44,1,9,-1,-2,-1,10,-5
1501933202816820,34,1,-12,-1,0,2,-6,6
1501933202837866,0,-4,6,-2,-2,-2,6,-3
1501933202837866,5,1,-11,-1,-1,-5,-18,7
1501933202839822,-3,-4,2,0,0,0,-1,-15
1501933202839822,10,-1,0,-1,-3,0,-1,17
1501933202852891,15,3,-5,-2,-2,-2,-3,-8
1501933202852891,-34,-5,0,0,0,4,25,2
1501933202858895,2,-2,17,2,-1,-2,4,-1
1501933202858895,-10,0,22,1,-3,1,26,14
1501933202875838,-12,-6,-28,-7,-2,-6,-27,-17
1501933202875838,2,-1,-4,-3,-3,-2,-13,-14
1501933202876824,-6,-5,6,7,5,1,23,21
1501933202876824,7,2,-7,-1,-1,-2,-7,8
1501933202897828,-23,5,6,0,0,3,5,3
1501933202897828,8,-4,0,0,-2,-2,-5,-6
1501933202899825,7,-1,-6,-4,-1,2,15,-7
1501933202899825,-12,-10,-11,-3,-1,-7,-19,6
1501933202912898,11,5,0,0,1,0,-7,-18
1501933202912898,44,3,4,1,3,2,10,12
1501933202918858,-9,2,4,-4,-4,-3,-1,-27
1501933202918858,-7,-5,-14,-3,-1,-2,-10,-4
1501933202935868,-6,-1,8,1,-2,1,9,5
1501933202935868,16,2,-7,-7,-2,0,8,5
1501933202936871,9,4,1,-1,-3,1,7,-2
1501933202936871,-2,7,12,4,1,1,16,-26
1501933202957839,1,-4,-11,-1,0,-4,-21,0
1501933202957839,-28,1,9,3,-1,0,0,8
1501933202959829,11,0,-2,-5,-6,-5,4,22
1501933202959829,-32,-5,-6,-2,-3,-3,-27,-12
1501933202972898,-21,4,4,0,-1,0,1,7
1501933202972898,-27,-6,-5,0,1,0,-17,-10
1501933202979857,1,-9,-4,1,0,1,-19,-8
1501933202979857,22,10,2,1,1,0,-5,5
1501933202995897,0,1,8,2,1,0,8,20
1501933202995897,-8,2,-5,-1,-1,-4,-12,7
1501933202996832,-1,-4,2,1,3,4,-9,-9
1501933202996832,12,-1,-8,-1,-1,-2,12,18
1501933203017870,-4,0,3,1,-1,0,-7,1
1501933203017870,8,1,-4,-4,-1,-2,10,2
1501933203019833,1,1,6,-1,-2,-4,-9,11
1501933203019833,8,-11,-15,-6,-5,-4,5,-7
1501933203031902,0,-3,1,-1,-1,4,19,-8
1501933203031902,-8,-2,3,-1,-2,0,3,-5
1501933203040846,6,-1,-6,-2,-1,-4,3,-3
1501933203040846,-2,0,-4,-3,-2,-5,-22,9
1501933203055835,7,-3,4,-3,-4,-3,11,-11
1501933203055835,8,-2,-12,-1,-1,0,5,1
1501933203056835,-3,-4,-2,2,1,0,-16,-8
1501933203056835,-19,2,-2,1,2,3,4,-9
1501933203077877,11,-6,11,0,-1,-3,-18,-1
1501933203077877,1,-3,-11,-3,1,1,18,9
1501933203079858,18,1,-5,-2,-2,2,9,-10
1501933203079858,21,-5,-9,-6,-5,-3,-5,-6
1501933203091905,4,6,5,-3,-3,-4,10,19
1501933203091905,-32,-2,5,-2,-2,1,-11,-8
1501933203100850,27,0,3,0,-3,-5,-2,18
1501933203100850,-1,-2,-5,-3,0,-2,-44,-19
1501933203115881,-6,-1,4,2,-1,3,23,13
1501933203115881,25,-4,1,-4,-2,-3,-7,6
1501933203116839,-4,3,-4,-3,2,1,3,-9
1501933203116839,-22,3,7,3,1,-1,-10,5
1501933203137878,-5,-6,-10,-4,-3,-3,-6,3
1501933203137878,13,5,4,4,1,2,-8,-14
1501933203139876,-16,-2,0,-1,-1,-3,-10,-6
1501933203139876,5,-2,-5,-1,-1,-1,13,-7
1501933203151883,-5,0,-5,-2,0,0,-2,-6
1501933203151883,-8,-5,5,-2,-1,1,40,7
1501933203160853,4,-2,-4,-2,0,-3,7,-5
1501933203160853,-7,4,0,1,3,6,15,1
1501933203175883,6,-3,-2,2,2,1,0,-6
1501933203175883,-7,2,3,0,-2,-2,-13,-4
1501933203176843,-6,-1,-1,-3,-2,1,-18,-2
1501933203176843,-7,-4,-1,3,-2,0,7,4
1501933203197885,-33,2,5,0,1,3,9,-6
1501933203197885,61,-1,-1,1,-1,-1,-9,4
1501933203199850,-12,-7,3,-1,-2,-5,-23,11
1501933203199850,7,-3,-15,-6,-2,0,25,-2
1501933203211851,-3,-3,3,-7,-5,-4,-36,-12
1501933203211851,-15,-3,1,-3,-7,-10,10,-13
1501933203220845,0,2,-2,-2,-3,1,7,-7
1501933203220845,6,-1,2,1,3,6,11,4
1501933203235885,11,-6,-9,-3,-3,-3,0,11
1501933203235885,-21,-3,-6,-3,-1,-4,1,10
1501933203236864,15,3,-1,-1,-1,2,23,-1
1501933203236864,-14,3,0,-1,-3,-5,-19,-6
1501933203257885,-14,-11,-8,-2,-2,0,-3,-9
1501933203257885,-6,-15,-1,-3,-1,-4,-5,17
1501933203259859,-4,10,-1,2,2,5,11,-5
1501933203259859,-5,-3,7,1,0,-3,-6,-6
1501933203271908,-20,5,0,1,-1,-1,2,1
1501933203271908,50,1,4,3,1,4,-4,4
1501933203280882,-2,-8,-8,0,-3,-2,3,1
1501933203280882,5,1,-1,-6,-2,-1,7,11
1501933203296003,3,1,2,-1,2,-2,-7,0
1501933203296003,-20,7,-17,-3,-1,1,0,-9
1501933203296957,-27,3,7,5,1,-1,15,0
1501933203296957,41,-7,-2,-2,-3,0,9,4
1501933203318006,37,-1,12,1,0,-4,-17,7
1501933203318006,-20,1,-10,-5,-2,1,-4,-4
1501933203319959,-19,-2,0,0,1,0,6,-15
1501933203319959,-15,-5,-12,-5,-2,-4,-14,-3
1501933203332026,7,-1,0,-1,-1,-1,-17,21
1501933203332026,-11,-1,9,1,0,2,9,1
1501933203340984,4,-6,-7,-4,-4,-5,-17,-7
1501933203340984,12,6,8,2,-1,-1,9,2
1501933203355994,4,0,-6,0,0,0,0,-5
1501933203355994,-7,2,3,0,0,-5,-42,-7
1501933203356968,-45,-8,-4,-2,-3,-3,13,-5
1501933203356968,-37,-5,1,0,0,5,6,9
1501933203378001,47,3,-5,-4,-1,0,21,-19
1501933203378001,-10,3,1,3,0,0,23,-2
1501933203379971,7,-1,-1,-2,-3,-8,-44,7
1501933203379971,-20,-8,-3,0,-2,0,0,-6
1501933203392008,21,-2,-4,0,-1,3,24,-9
1501933203392008,-14,2,10,1,0,-1,-6,-11
1501933203400979,12,-8,-13,-4,-1,0,-21,4
1501933203400979,1,1,0,1,0,-3,9,-2
1501933203416007,-16,-1,-1,0,-2,-2,-7,1
1501933203416007,3,-1,-1,-1,-2,0,7,-1
1501933203416965,13,3,1,1,1,2,7,8
1501933203416965,7,2,8,0,-2,-5,0,0
1501933203438008,5,-3,-4,-3,1,1,-1,-13
1501933203438008,1,-1,-10,-7,-3,-3,-9,-9
1501933203439963,15,8,2,0,3,6,33,14
1501933203439963,0,0,-3,0,1,2,-12,-6
1501933203452034,-12,-1,5,0,-3,-2,-2,-1
1501933203452034,-2,-1,3,0,-1,0,5,0
1501933203461001,19,-1,2,0,-2,-1,-20,4
1501933203461001,-7,-8,-3,-2,0,4,54,1
1501933203476014,-13,2,0,1,-1,-3,-15,10
1501933203476014,2,-2,-1,-3,-2,0,-4,-3
1501933203476968,-20,-4,2,2,-1,-5,-28,-12
1501933203476968,21,-4,-3,-4,-2,1,9,-6
1501933203498011,-4,-2,-7,-3,0,-4,-6,1
1501933203498011,-8,-4,1,0,-1,3,12,3
1501933203499968,-3,-6,3,-1,-1,-5,-37,-9
1501933203499968,8,9,0,-1,0,2,15,9
1501933203521003,-5,-1,-8,-5,-5,-2,15,-2
1501933203521003,8,1,0,0,1,-2,-7,-4
1501933203521977,2,-1,3,-1,0,-2,-9,14
1501933203521977,-2,-4,-1,0,2,2,30,2
1501933203536046,7,1,-4,-2,-4,-3,2,0
1501933203536046,-20,0,2,3,1,-2,-3,10
1501933203536977,5,-3,-1,-2,-1,1,26,-8
1501933203536977,-53,-3,-2,-3,-3,-3,-14,-9
1501933203557974,29,0,3,1,2,0,-6,-3
1501933203557974,10,-3,-7,-4,-4,-5,-3,-4
1501933203559983,-8,-2,-7,-4,-1,-1,7,-1
1501933203559983,6,2,5,2,1,-4,-38,2
1501933203581037,-24,-10,-6,-3,-3,-6,-52,-15
1501933203581037,23,-8,-4,-2,-3,0,14,13
1501933203581973,4,3,0,1,0,0,9,-6
1501933203581973,5,3,-1,-2,-2,-2,-6,6
1501933203596035,-19,-1,-2,1,-3,-2,-20,-8
1501933203596035,-36,-6,-2,-2,-3,-9,-30,-14
1501933203596974,-8,-1,2,1,-3,1,19,-3
1501933203596974,19,-1,1,-1,1,-1,-15,0
1501933203617975,-26,-3,-2,-2,-1,-2,8,2
1501933203617975,5,1,0,4,4,2,-3,-2
1501933203619974,5,1,4,-3,-2,2,24,-1
1501933203619974,3,5,-16,-4,-2,-5,-33,-4
1501933203641019,-5,-3,-1,0,1,3,6,1
1501933203641019,31,0,5,4,0,1,4,1
1501933203641976,3,2,1,0,-1,-1,-11,-2
1501933203641976,10,-10,3,0,0,-2,-3,-1
1501933203655047,-47,-2,-4,0,-1,0,16,1
1501933203655047,13,2,-4,-4,-2,3,12,-7
1501933203662019,-9,-5,-1,0,2,3,21,1
1501933203662019,6,1,0,0,-1,-3,-7,0
1501933203678019,16,3,0,-1,-1,-1,0,17
1501933203678019,-7,5,2,-1,1,1,-12,14
1501933203679978,-6,-9,-3,-5,-3,-6,-16,-22
1501933203679978,-8,-5,-1,-2,4,4,-6,-11
1501933203701024,22,5,4,3,0,-2,1,9
1501933203701024,-2,1,-4,-1,-1,2,24,3
1501933203701989,3,5,0,0,-1,-2,-27,-2
1501933203701989,-42,2,-6,-5,-4,2,21,2
1501933203715045,38,3,8,0,1,5,6,-4
1501933203715045,-31,-7,-2,-1,-2,-2,-21,-14
1501933203721990,-19,0,-4,0,-2,0,7,1
1501933203721990,-9,1,3,2,-2,-2,-6,-14
1501933203738041,5,0,3,0,1,-1,4,-3
1501933203738041,-13,2,-5,-1,-2,-1,2,-12
1501933203740013,12,-1,-4,0,0,0,25,9
1501933203740013,2,-2,3,1,-3,-2,-6,-3
1501933203761029,-15,-1,-4,-5,-1,1,-17,-11
1501933203761029,6,-2,4,0,2,-4,1,7
1501933203761982,-11,-6,0,-1,-3,1,12,6
1501933203761982,-8,3,-2,-3,-5,-5,2,1
1501933203774993,17,4,-1,2,-2,-5,-16,-20
1501933203774993,-29,-4,2,2,1,6,22,9
1501933203782046,14,5,-10,-4,0,1,25,-1
1501933203782046,6,1,0,0,1,-2,1,13
1501933203797989,-7,-4,-3,-1,1,-2,-15,-4
1501933203797989,-20,3,-1,-2,-2,-5,-1,-14
1501933203800017,12,-5,-2,-1,-4,-1,-2,1
1501933203800017,-1,-2,-1,-1,-2,-3,-12,-15
1501933203820998,-13,-1,-2,-2,0,0,5,8
1501933203820998,35,1,0,0,1,1,-4,6
1501933203821990,-32,0,3,6,4,5,24,10
1501933203821990,5,-2,-4,-1,-2,-3,-35,3
1501933203835028,-10,-5,-3,-2,-3,-3,7,4
1501933203835028,22,-4,3,0,-3,-4,4,14
1501933203842030,-5,-12,5,0,1,-3,-26,-9
1501933203842030,15,2,-14,-2,-3,-2,-12,0
1501933203858029,-15,0,1,-1,1,4,13,3
1501933203858029,2,-2,-2,-3,-3,-1,11,6
1501933203859999,-1,8,-3,-3,-4,-8,-30,-4
1501933203859999,-1,-4,5,2,0,0,7,-6
1501933203881003,14,-5,-9,-5,-4,-5,-3,-1
1501933203881003,-20,-1,4,-3,-1,1,-3,-5
1501933203881996,1,1,-1,-1,-3,-6,-15,-2
1501933203881996,1,-1,1,0,-4,-2,-14,2
1501933203895048,21,1,-3,3,1,2,14,3
1501933203895048,-42,-4,0,1,-3,-1,-7,-1
1501933203902031,27,4,0,3,2,0,-19,14
1501933203902031,46,-1,0,-2,3,4,32,-6
1501933203917991,-34,-4,-8,-5,-4,-1,-9,-15
1501933203917991,11,-7,0,0,-1,-1,25,-4
1501933203919991,16,-2,-2,-1,-3,-3,7,9
1501933203919991,-6,1,-4,-2,-3,-3,-2,-3
1501933203941030,-12,-4,4,2,-1,0,9,-4
1501933203941030,23,1,-11,-5,-4,-2,-11,-14
1501933203942006,5,-6,-2,-4,-3,-2,-6,3
1501933203942006,-1,3,2,-1,-2,-4,-4,12
1501933203955040,-9,1,3,0,-2,-1,-9,-2
1501933203955040,3,-3,3,0,-2,-5,-33,-10
1501933203962060,4,-2,-12,-5,-4,1,3,-12
1501933203962060,-10,-1,0,-2,0,-1,-1,1
1501933203978036,4,2,2,1,0,1,11,-4
1501933203978036,6,-2,-1,-4,-2,0,2,-19
1501933203979995,-6,0,5,-1,0,0,2,-1
1501933203979995,-11,-1,-7,4,2,0,-10,6
1501933204001021,-14,-3,-2,-2,0,-3,-12,-1
1501933204001021,55,-1,-3,0,-3,-1,11,12
1501933204002007,-53,-6,0,-1,-4,-2,-4,-16
1501933204002007,-4,-3,2,1,0,-1,-2,-20
1501933204014060,4,5,2,-1,1,1,25,20
1501933204014060,-15,5,-4,-4,-2,-3,-3,4
1501933204023015,26,-3,3,-1,1,-4,-40,-11
1501933204023015,-4,3,1,-5,-3,2,-3,-6
1501933204038041,-20,-5,0,-1,-2,-4,-8,-7
1501933204038041,-1,1,1,0,-1,2,-1,4
1501933204039998,-2,4,-1,1,2,1,43,-6
1501933204039998,-13,-6,-5,-5,-5,-1,16,11
1501933204061007,10,-2,-4,-2,-3,-2,-9,0
1501933204061007,-7,1,-6,-4,1,0,9,-8
1501933204062009,9,-2,1,-1,-2,-4,-6,2
1501933204062009,10,-3,4,2,1,-4,-19,-4
1501933204074063,1,5,-1,-2,-2,-5,-9,1
1501933204074063,-56,-2,-4,1,-3,-1,1,-7
1501933204083015,18,0,-4,-4,-4,2,-4,14
1501933204083015,3,1,4,0,1,4,-13,-15
1501933204098044,15,2,-6,-2,-3,-3,-27,-5
1501933204098044,-13,-6,2,1,1,-5,-17,-4
1501933204100004,-8,-5,0,1,-1,0,5,12
1501933204100004,-12,2,1,-1,-3,-4,-5,2
1501933204121010,1,0,0,-1,-1,0,21,11
1501933204121010,23,2,3,2,0,0,-4,2
1501933204122004,-13,1,-5,-3,-1,3,9,-3
1501933204122004,10,0,-1,-1,0,2,19,6
1501933204134070,-1,-6,2,2,-1,-1,10,7
1501933204134070,3,1,-5,-3,-2,-1,-8,-6
1501933204143038,3,2,-3,0,-1,-7,-22,2
1501933204143038,-8,-3,-1,-1,0,1,-12,-2
1501933204158005,-18,-1,-5,-3,0,4,27,4
1501933204158005,-18,7,4,2,0,1,-7,5
1501933204160038,6,-4,-6,-3,-2,-7,-45,-12
1501933204160038,0,-5,0,-1,-2,-1,28,8
1501933204181019,6,-1,6,3,2,-1,-3,-2
1501933204181019,12,1,-8,-6,-3,-3,-7,-6
1501933204182009,-29,-8,2,1,0,2,19,7
1501933204182009,37,9,3,2,0,-4,-16,10
1501933204194006,1,-2,1,-4,-1,2,10,-19
1501933204194006,-2,-5,-2,-2,-3,-4,-11,8
1501933204203008,-5,-3,-2,-1,-1,2,14,-3
1501933204203008,-1,1,0,0,-2,0,14,9
1501933204218049,2,-3,-3,-5,-3,-4,6,8
1501933204218049,-1,-2,0,-1,1,-1,-16,4
1501933204220044,23,0,-4,-3,-2,-2,28,4
1501933204220044,-9,-2,-2,0,1,1,-2,-10
1501933204241025,9,0,-3,-3,-1,0,-6,-2
1501933204241025,-1,-3,-1,-1,-1,3,11,3
1501933204242011,-11,6,1,-1,-3,-5,-26,-7
1501933204242011,-11,-4,-3,-2,-4,-4,-5,1
1501933204254018,-2,-5,-2,2,1,0,5,-22
1501933204254018,28,-2,4,1,1,-1,2,12
1501933204263046,-28,1,-3,2,0,2,16,-9
1501933204263046,4,-2,-9,-8,-3,-3,-7,-20
1501933204278053,-3,-1,0,-3,-2,-1,-13,1
1501933204278053,4,-5,-1,0,-3,-5,-21,-7
1501933204280041,1,3,-1,-1,1,2,2,-2
1501933204280041,-10,-2,-2,0,0,1,2,10
1501933204301051,0,4,0,-1,-3,-5,9,16
1501933204301051,-9,1,1,2,3,6,26,13
1501933204302014,24,1,-1,0,1,1,-6,3
1501933204302014,-10,-1,1,-1,1,0,39,5
1501933204314028,0,0,0,-2,0,-1,-11,-3
1501933204314028,-12,-2,0,-1,-2,-6,-12,-17
1501933204323015,24,-1,6,0,-1,0,2,-3
1501933204323015,-3,-8,3,4,2,1,-1,5
1501933204338057,10,5,-10,-4,-4,3,13,31
1501933204338057,2,-6,-4,-2,-4,-4,-4,-20
1501933204340017,4,1,-3,-3,-1,-1,-9,-10
1501933204340017,-6,-3,1,0,0,-2,-6,3
1501933204361080,-8,-5,-7,-4,-2,-2,-2,-16
1501933204361080,-11,4,-3,-3,-3,-5,-24,5
1501933204363018,31,-2,-2,-3,-2,1,20,-13
1501933204363018,5,3,-1,-4,1,0,1,6
1501933204374053,-4,2,3,2,1,3,-4,-6
1501933204374053,8,3,0,-2,0,1,6,1
1501933204383051,-13,-2,2,0,-2,-5,-20,-8
1501933204383051,-13,3,1,-2,-3,-2,-15,-2
1501933204398061,-17,-9,1,-1,-3,-7,-47,0
1501933204398061,-12,-1,-9,-1,1,1,19,-2
1501933204400055,0,6,2,-3,-2,-2,-12,5
1501933204400055,-2,-7,-7,-4,-2,0,-20,-4
1501933204421031,20,1,2,1,-2,-5,-2,-11
1501933204421031,7,-1,3,0,0,-2,15,13
1501933204422047,-21,-6,-5,-5,-4,-4,-17,-3
1501933204422047,38,-3,1,3,0,-2,1,-15
1501933204443064,-7,-2,0,0,1,3,4,-1
1501933204443064,-1,-4,0,0,-2,-5,-28,15
1501933204445054,5,-4,2,1,1,2,39,6
1501933204445054,-25,-13,-3,-1,-3,1,10,9
1501933204458088,-11,1,4,3,4,8,29,5
1501933204458088,3,4,1,0,-1,-1,-9,-7
1501933204460080,-7,-2,2,-1,-3,-4,-8,-14
1501933204460080,-16,-2,-2,-2,-1,-4,2,-4
1501933204481059,-5,4,2,1,-1,-3,-18,-8
1501933204481059,-7,-2,0,1,1,4,24,-7
1501933204482055,-14,3,-4,-3,-3,-4,-5,-2
1501933204482055,0,1,0,2,1,-1,13,8
1501933204503114,8,-12,-2,-2,0,1,15,2
1501933204503114,12,14,3,1,1,2,7,-10
1501933204505052,-6,-3,-2,-1,-2,0,-6,17
1501933204505052,4,3,2,0,-1,1,4,-4
1501933204518097,4,-2,-9,-5,-3,-5,1,5
1501933204518097,9,-5,0,-2,-1,-3,4,1
1501933204520063,-6,-1,0,1,2,0,4,7
1501933204520063,-4,3,-2,0,-2,-3,-8,-7
1501933204541063,-9,1,6,1,1,2,-7,-3
1501933204541063,6,-3,1,1,-1,0,-7,3
1501933204542062,-2,-1,1,1,2,2,-1,-3
1501933204542062,-7,-1,-1,-2,-1,0,-43,-7
1501933204563127,3,2,-4,0,-1,-1,25,3
1501933204563127,-17,-3,-3,-5,-2,-1,5,-7
1501933204565068,36,8,0,0,1,3,18,13
1501933204565068,6,0,-1,-1,-1,-2,-26,-15
1501933204577112,-2,-3,-1,0,-3,-6,-18,-7
1501933204577112,2,0,-3,0,0,-3,-21,9
1501933204584127,-46,-6,-9,-7,-3,2,16,7
1501933204584127,-7,0,-3,-1,-3,-1,22,-4
1501933204601067,18,-8,2,0,-2,-4,-12,-2
1501933204601067,4,4,-4,0,-1,1,13,9
1501933204602067,28,2,3,-2,-1,-3,-26,12
1501933204602067,-21,-1,-5,-2,0,1,20,-2
1501933204623097,-7,-3,0,-4,-3,-2,-7,-3
1501933204623097,-6,-2,-4,-1,0,-3,-10,-3
1501933204625063,-2,-2,-1,0,-2,-4,-9,1
1501933204625063,-4,2,2,-1,0,0,2,3
1501933204637085,11,1,-1,0,-1,-2,-5,1
1501933204637085,7,-4,0,-1,-2,1,7,-12
1501933204644127,-3,1,-2,2,-2,0,0,-11
1501933204644127,7,-2,0,-2,-2,-2,-4,-1
1501933204661077,-4,3,-3,-1,-2,-1,-7,-5
1501933204661077,17,-3,4,-1,-1,-1,-1,4
1501933204662069,-6,-3,0,1,3,1,21,-2
1501933204662069,2,1,-4,-1,-3,-3,-13,0
1501933204683103,-3,2,-4,-2,0,-3,-7,9
1501933204683103,-6,-2,-2,-1,-4,0,9,8
1501933204685093,-9,-5,-4,0,2,0,21,-5
1501933204685093,3,-2,-7,-5,-1,1,3,0
1501933204697125,-2,0,-1,0,-1,2,6,1
1501933204697125,-10,-3,-1,0,-3,-1,2,-1
1501933204704108,-4,1,3,3,-2,-2,-32,-12
1501933204704108,1,-5,-1,1,0,-5,-8,-5
1501933204721073,-16,-1,1,-4,0,5,39,-4
1501933204721073,-4,-1,-2,-3,1,-1,2,-16
1501933204722096,3,0,1,-2,-2,2,-8,9
1501933204722096,-6,3,4,1,1,1,-2,7
1501933204743125,22,-5,1,4,-3,-2,4,0
1501933204743125,-14,-3,-6,0,-2,-1,-5,-32
1501933204745097,44,2,0,0,-3,-4,-6,1
1501933204745097,6,0,2,0,0,3,16,4
1501933204757105,1,1,-2,-2,-1,0,-4,0
1501933204757105,0,-3,-1,-3,-3,-2,6,10
1501933204764130,-17,-6,-3,-2,-4,-3,-11,-3
1501933204764130,0,0,1,1,-1,-1,0,-6
1501933204781084,1,0,1,0,0,-3,-12,0
1501933204781084,-12,-1,0,0,1,5,-1,0
1501933204782068,-14,-3,-3,-2,-2,-2,-1,-6
1501933204782068,0,0,2,-3,-2,-1,-2,-1
1501933204803108,-11,-1,-2,-1,0,0,-3,-1
1501933204803108,1,-2,1,0,-4,-4,-2,3
1501933204805068,-3,0,2,1,1,-1,3,-1
1501933204805068,2,-2,-3,-2,-2,-1,2,0
1501933204817126,-4,-1,-4,-2,-4,-5,-24,0
1501933204817126,4,2,-2,-2,1,-1,3,4
1501933204824135,0,-2,-2,-1,-2,-1,-9,0
1501933204824135,-6,-2,-3,-2,-2,-6,1,-4
1501933204841083,-6,-2,-3,-2,1,1,-6,-1
1501933204841083,1,0,1,-1,-4,1,1,4
1501933204842082,-8,-1,-3,0,-1,-4,-1,-5
1501933204842082,-1,-4,-3,1,5,4,-3,0
1501933204863109,0,-1,-1,-1,-1,-2,1,-1
1501933204863109,-2,-2,-1,-1,-1,1,-6,-7
1501933204865105,-2,2,-1,1,-2,1,3,5
1501933204865105,0,-1,0,-2,-4,0,2,-2
1501933204877119,1,-2,0,-1,-2,1,-2,-1
1501933204877119,-2,0,-1,-1,-1,-5,-3,-3
1501933204884145,-3,-1,0,-1,-1,1,-3,-3
1501933204884145,-1,1,0,-2,-2,-4,0,-2
1501933204901092,-4,0,-1,0,-2,-2,0,-4
1501933204901092,1,0,-1,0,0,-1,-1,4
1501933204902092,-1,-2,-1,-2,0,-2,1,-1
1501933204902092,-3,-1,-1,-1,-2,-4,0,0
1501933204923077,-4,-3,-2,-1,1,3,1,0
1501933204923077,1,-1,0,0,0,-3,-6,2
1501933204925097,0,-2,-2,-1,-2,-8,0,-1
1501933204925097,2,-2,0,0,1,10,-2,-6
1501933204938107,-2,1,0,-1,2,-5,-4,-3
1501933204938107,-3,-2,-2,-3,-2,1,-3,-2
1501933204946098,-2,0,-2,-2,-4,1,16,6
1501933204946098,0,0,-2,0,-8,-17,-6,1
1501933204961088,0,1,2,3,7,24,10,4
1501933204961088,-3,-3,-2,2,9,3,3,0
1501933204962086,-2,-1,-1,-1,-1,2,8,-1
1501933204962086,0,-1,1,0,1,5,3,-1
