timestamp,emg1,emg2,emg3,emg4,emg5,emg6,emg7,emg8
1501930194393594,79,-9,57,37,13,0,-100,-34
1501930194393594,-101,-3,-20,-19,-3,2,-53,83
1501930194394635,-20,24,34,-7,-4,-3,-7,-110
1501930194394635,4,-30,-11,7,3,-1,-1,23
1501930194397603,-31,-11,-15,-4,-8,-12,-37,2
1501930194397603,27,8,36,12,4,5,14,17
1501930194398636,-5,-11,-17,39,2,1,-10,17
1501930194398636,-26,20,-16,-27,-3,-2,-7,20
1501930194403618,-16,3,28,-22,-1,-1,0,15
1501930194403618,22,-19,-35,-16,-1,-2,6,41
1501930194411596,-22,11,-13,26,2,-5,-40,-63
1501930194411596,-65,23,24,38,2,3,46,-66
1501930194418617,-22,-26,-33,-44,-10,-6,7,28
1501930194418617,64,-10,0,-22,1,-10,-46,-81
1501930194436616,104,-13,-71,-14,-17,0,26,50
1501930194436616,31,3,15,-8,7,5,-8,62
1501930194440641,-85,-30,-2,2,-2,15,99,16
1501930194440641,-18,39,33,31,-6,-13,-36,-81
1501930194464619,1,-15,-29,-46,0,1,6,40
1501930194464619,1,3,-7,7,-1,-7,-40,42
1501930194465617,-83,-10,-16,-4,-5,-2,-5,3
1501930194465617,74,1,3,22,8,6,30,25
1501930194504600,7,29,3,-20,-2,8,44,34
1501930194504600,30,-30,-39,-5,1,-2,-1,-7
1501930194505637,-63,18,25,8,3,8,54,-29
1501930194505637,-29,9,3,1,-2,-2,-16,14
1501930194508671,-52,-1,5,14,-1,-2,26,64
1501930194508671,-24,-1,12,-9,0,-2,-19,-41
1501930194509600,43,4,-29,-23,-7,-6,16,-5
1501930194509600,57,-2,-8,15,0,-3,5,-24
1501930194514601,-23,-19,-1,28,0,-8,-33,33
1501930194514601,-22,28,17,-56,-5,5,25,-37
1501930194522649,61,-10,-15,11,5,16,49,-4
1501930194522649,51,5,-11,-11,0,4,61,-15
1501930194531602,51,-6,39,30,-6,-6,-19,6
1501930194531602,-24,-33,2,35,2,0,-46,23
1501930194544671,64,11,-27,-45,-2,0,-23,75
1501930194544671,37,28,-5,-17,1,9,44,14
1501930194553664,3,-7,-4,-19,2,1,-15,-35
1501930194553664,25,-9,11,20,-3,-1,6,68
1501930194576628,-13,-14,26,16,-1,3,-1,-29
1501930194576628,2,0,9,9,-5,-5,-14,34
1501930194582660,56,-9,-19,-8,-3,-9,-3,-10
1501930194582660,25,28,19,-4,1,-1,-31,20
1501930194590675,-49,-4,-27,8,0,-7,3,16
1501930194590675,-68,-38,-2,-16,-7,-7,-11,-75
1501930194597623,-30,8,-26,2,3,-3,-35,-17
1501930194597623,-32,-2,22,0,-2,-3,-23,-20
1501930194613670,3,0,20,-24,-5,-3,2,47
1501930194613670,-50,-17,-11,-2,-2,3,5,64
1501930194615610,-23,29,-3,-9,-1,-4,-35,-37
1501930194615610,-3,-5,9,8,6,10,48,-18
1501930194636651,-67,-4,-7,16,0,-9,-62,-62
1501930194636651,45,-7,6,0,-1,5,32,31
1501930194637612,39,42,10,-6,4,1,-16,-8
1501930194637612,-1,1,-27,-11,-5,-3,12,-8
1501930194650653,40,7,12,4,2,3,-14,-66
1501930194650653,-33,10,1,-5,2,-1,-35,15
1501930194657626,-1,-20,5,36,-1,0,-11,-23
1501930194657626,19,-3,-38,-34,-10,-5,28,11
1501930194673645,-2,11,15,3,-5,-4,-22,79
1501930194673645,-53,-1,-18,-7,-3,-2,-2,-49
1501930194675614,-39,-26,13,23,-1,1,8,81
1501930194675614,-20,4,-15,4,-1,-7,-11,-30
1501930194696642,61,-25,-6,-14,-7,0,-31,-11
1501930194696642,-6,30,-5,5,4,1,3,8
1501930194697616,30,-13,-1,-27,-1,2,34,20
1501930194697616,51,-12,-34,29,-1,-1,23,-1
1501930194710616,-25,11,8,8,-2,0,18,-2
1501930194710616,51,-12,15,0,5,0,-23,-7
1501930194717643,-3,-3,-1,-19,-3,-1,0,-3
1501930194717643,26,-3,24,21,4,0,-5,9
1501930194733616,25,13,-20,15,-2,-4,-9,-13
1501930194733616,-19,-26,-1,-15,-3,-7,-33,-13
1501930194735625,79,0,3,-11,0,-2,-14,-44
1501930194735625,34,24,-25,2,0,-2,-4,27
1501930194756686,48,-19,-15,8,1,-2,-7,-26
1501930194756686,-10,17,37,2,-1,-1,1,17
1501930194757630,24,-11,-37,-8,-1,2,5,-39
1501930194757630,-34,-7,23,-2,-2,-4,-16,-6
1501930194770663,-72,7,12,4,7,5,5,-16
1501930194770663,69,10,-26,9,-3,-8,-5,56
1501930194777658,-62,4,-16,-5,1,3,3,-55
1501930194777658,-4,-14,39,-4,1,-3,-8,22
1501930194793620,-58,-3,-35,-1,-2,6,48,29
1501930194793620,-16,4,38,7,3,1,-18,-37
1501930194795620,-88,-10,-28,-10,-5,-2,-3,19
1501930194795620,19,9,3,1,3,8,6,8
1501930194816678,21,-10,8,-10,-6,-11,-56,21
1501930194816678,-38,-7,4,-9,-3,1,24,71
1501930194817630,-57,14,12,-1,-1,0,33,-25
1501930194817630,-29,-11,11,7,-1,0,-12,78
1501930194831673,44,2,-6,-8,0,-1,9,3
1501930194831673,65,10,12,9,1,11,55,-7
1501930194837659,30,-6,6,4,-1,-1,-8,4
1501930194837659,-128,2,-33,-26,-7,-6,-40,-59
1501930194853660,69,1,12,-7,-4,-4,5,-11
1501930194853660,12,-18,-19,2,-1,-1,-13,22
1501930194855624,87,-15,22,-15,-6,-4,-2,17
1501930194855624,-14,-11,-16,6,6,2,30,-44
1501930194876635,-81,-10,-26,5,-2,4,15,-19
1501930194876635,-32,3,32,-7,-6,-10,-12,-74
1501930194877624,-26,-2,-33,-5,-2,-3,-26,-2
1501930194877624,45,-13,12,9,-6,-9,-18,36
1501930194890643,-33,3,0,-36,-4,-3,12,-41
1501930194890643,-118,-17,-21,6,0,-1,0,5
1501930194898699,-6,-28,13,-5,-4,0,4,7
1501930194898699,101,29,17,16,9,8,13,-18
1501930194913632,60,-19,7,5,1,1,-12,-6
1501930194913632,77,9,-19,2,-1,1,-14,-39
1501930194915664,73,24,19,-21,-1,-1,7,18
1501930194915664,17,8,-11,-9,1,-3,0,-31
1501930194936698,74,-25,24,8,-1,-3,-5,64
1501930194936698,-60,10,-47,1,-2,-4,-26,-14
1501930194937638,64,24,20,18,6,7,25,-1
1501930194937638,-21,-15,-14,-18,-6,-1,18,-11
1501930194950653,-34,23,0,4,1,0,0,7
1501930194950653,87,2,45,-3,10,7,9,3
1501930194958671,-28,3,-38,15,-13,-10,-1,-32
1501930194958671,7,5,35,-6,-2,-4,-10,-5
1501930194973658,-37,-9,-13,-19,-3,-6,-19,-30
1501930194973658,-13,1,13,10,-6,-2,7,-11
1501930194975630,-1,-9,-19,1,4,1,-12,-9
1501930194975630,-11,-2,13,-3,-4,-2,2,1
1501930194996703,-24,15,2,15,3,0,-8,7
1501930194996703,51,-24,-2,-11,-2,-1,5,68
1501930194997631,-41,0,23,8,-3,-6,-13,-6
1501930194997631,-23,-7,7,-8,-3,8,11,-3
1501930195009679,-60,-11,-1,9,-3,-3,15,-1
1501930195009679,65,8,-28,2,0,-4,-25,-17
1501930195019632,-12,-10,12,-4,5,4,16,81
1501930195019632,25,16,39,9,5,0,3,8
1501930195033673,18,-10,10,2,-4,-3,-14,-11
1501930195033673,70,5,-10,-10,-6,-3,-7,-9
1501930195035641,27,0,-1,-6,-2,2,31,3
1501930195035641,-20,-3,-58,21,-3,-2,2,1
1501930195056677,-31,-16,40,2,-6,-10,-16,-19
1501930195056677,10,5,-4,-2,3,2,-8,9
1501930195057672,69,-14,12,-1,4,2,-7,-35
1501930195057672,-128,-6,-2,-16,0,-1,-9,-1
1501930195070655,45,-5,-10,3,-1,1,10,24
1501930195070655,-68,-5,-16,5,-4,-1,-1,-12
1501930195078702,21,-3,9,-7,1,0,-10,-38
1501930195078702,16,4,-4,-10,-4,-3,-13,-8
1501930195093679,27,-8,-45,2,0,2,5,11
1501930195093679,-9,-10,5,-10,-4,-3,-5,-16
1501930195095650,-23,2,-3,0,1,-1,5,-12
1501930195095650,20,-4,-15,1,-4,-4,2,-3
1501930195116638,-16,8,12,0,-1,0,7,3
1501930195116638,-44,4,-3,-4,-2,-3,-8,5
1501930195117641,34,-13,4,-6,-3,-3,-5,-1
1501930195117641,40,10,-19,11,4,1,-5,-2
1501930195130653,-16,4,5,-11,-4,-1,8,-10
1501930195130653,-32,-8,7,4,-3,-6,-18,-9
1501930195138713,8,8,-1,4,-3,-2,-2,-28
1501930195138713,40,-24,-4,4,-2,0,-2,8
1501930195153709,-24,23,7,-7,-2,-5,-8,3
1501930195153709,54,-16,-17,-3,-1,1,6,-31
1501930195155640,-64,14,2,2,0,-1,-17,19
1501930195155640,4,0,9,-2,1,2,10,7
1501930195176661,-75,-19,-19,-6,2,0,-22,22
1501930195176661,11,7,-7,12,2,5,35,-12
1501930195177658,-59,-8,-4,-7,-1,-4,-5,29
1501930195177658,0,-6,-35,-6,-2,-4,-2,-16
1501930195189709,-20,13,7,7,3,0,3,-14
1501930195189709,-14,0,12,3,-2,-3,-16,-12
1501930195198713,10,-24,-31,-27,-7,-1,-4,2
1501930195198713,-25,-1,31,-4,-4,-4,0,-20
1501930195213643,34,8,7,-1,1,-3,2,6
1501930195213643,10,-10,-4,-1,-5,-5,-14,5
1501930195215644,83,-9,-33,9,5,7,45,40
1501930195215644,-51,15,9,-3,0,1,-7,-4
1501930195236650,37,14,34,-3,-7,-4,-3,-2
1501930195236650,-24,5,-8,1,4,1,6,6
1501930195237651,-46,1,0,2,1,-3,-11,-23
1501930195237651,3,10,-7,3,0,1,17,3
1501930195249688,-26,-18,0,4,-2,1,9,-26
1501930195249688,-61,-5,4,-3,-1,-4,-8,-16
1501930195258660,49,7,21,-3,-1,3,12,12
1501930195258660,7,-18,-1,6,0,2,1,11
1501930195272691,19,9,-39,-15,-3,-1,-12,-29
1501930195272691,93,-11,4,2,0,2,27,26
1501930195281648,20,14,-6,-5,3,-2,-9,-28
1501930195281648,78,19,67,8,-2,-2,-2,5
1501930195296716,45,7,-49,13,6,3,-3,20
1501930195296716,-64,-7,17,-10,-5,-5,-10,4
1501930195297649,-25,-27,-15,0,-6,-5,-9,51
1501930195297649,-50,8,3,-5,-1,0,5,-21
1501930195318708,-13,3,30,18,7,4,17,5
1501930195318708,-88,15,-20,-15,-1,0,-22,-47
1501930195320650,-81,10,27,1,-2,0,10,12
1501930195320650,-67,-18,-31,-10,-7,-8,-10,-24
1501930195333689,69,-18,12,0,-5,-5,-6,5
1501930195333689,-50,-16,-13,-9,-3,-5,12,21
1501930195335664,61,16,0,5,-1,1,-14,-4
1501930195335664,127,-37,-19,-15,-7,-3,-9,-10
1501930195356692,44,-13,-25,-3,-2,-2,-12,29
1501930195356692,-1,16,12,3,2,1,-7,4
1501930195358653,-45,3,17,7,2,4,25,-2
1501930195358653,-16,5,-27,-8,5,2,5,18
1501930195378696,-10,1,21,6,3,1,1,-7
1501930195378696,26,3,-2,13,1,1,-17,-2
1501930195380654,-93,-20,-4,-15,-1,0,-12,5
1501930195380654,8,20,24,0,0,0,-20,-8
1501930195393662,-35,2,-9,-12,-4,0,35,10
1501930195393662,109,7,18,-19,-7,-2,3,50
1501930195395691,-75,1,1,30,5,2,-16,-87
1501930195395691,81,-7,7,5,-2,-3,2,25
1501930195416716,-72,15,-25,-21,-6,-3,-18,-10
1501930195416716,-10,7,-4,13,5,2,16,22
1501930195417656,-13,-3,-10,-6,-1,0,24,4
1501930195417656,60,11,-8,21,3,-1,2,-1
1501930195438690,77,-5,19,-36,-7,2,-4,-21
1501930195438690,5,-7,-15,3,-2,2,24,41
1501930195440658,-37,14,-16,-13,-4,-7,-39,-33
1501930195440658,-61,7,0,8,-2,-1,-12,-1
1501930195453669,-18,-8,15,10,-1,1,12,-6
1501930195453669,-59,-17,-13,-8,-2,-6,-22,-26
1501930195455675,110,5,4,-8,-4,-6,-22,37
1501930195455675,27,12,-25,-4,-2,2,16,9
1501930195475689,-3,8,19,23,7,4,-15,-29
1501930195475689,30,-5,10,4,1,5,27,-36
1501930195483703,-25,-23,-13,-4,-2,-2,-3,-4
1501930195483703,7,3,18,-7,1,1,9,10
1501930195498701,-27,-8,-16,1,-2,1,12,27
1501930195498701,-13,25,42,7,1,-5,-15,1
1501930195500664,33,-19,-22,8,3,0,0,-6
1501930195500664,-81,-14,6,-17,-8,-5,-13,33
1501930195521701,-46,6,-16,-5,-2,-3,-7,-13
1501930195521701,-22,5,4,10,7,3,-10,-24
1501930195522672,78,0,9,-5,-7,-4,12,13
1501930195522672,-47,-25,-23,-11,-5,-3,-23,-9
1501930195534723,-14,4,1,14,3,-2,5,8
1501930195534723,-37,-15,-11,-13,-4,-2,-7,-18
1501930195544677,68,2,26,8,0,1,1,-9
1501930195544677,53,14,-24,-5,-4,-5,5,2
1501930195558733,22,-23,5,-2,-2,-2,-8,14
1501930195558733,77,41,-2,3,1,2,12,-11
1501930195560665,-47,-23,24,-2,1,4,6,-2
1501930195560665,13,-7,-16,4,-2,-1,8,-6
1501930195581705,-30,2,-6,-4,-1,-6,-29,1
1501930195581705,-5,1,22,-13,-4,0,6,-3
1501930195582666,17,-9,-64,-2,-1,-5,-9,-6
1501930195582666,34,16,15,8,7,5,8,7
1501930195594714,73,-9,12,6,0,-2,-11,-6
1501930195594714,-73,-26,-46,-10,-2,0,6,3
1501930195603684,14,23,23,-11,-4,-2,-4,-9
1501930195603684,34,-2,19,10,-1,-4,-10,-32
1501930195618673,21,-3,-9,1,3,3,2,6
1501930195618673,-42,-1,-10,1,-1,-4,-17,-19
1501930195620692,-2,-6,20,11,0,-1,-1,12
1501930195620692,-45,-22,-37,-12,-3,2,20,20
1501930195641668,127,23,-6,-4,-1,3,28,31
1501930195641668,41,2,-18,-5,-4,-2,-16,8
1501930195642670,3,5,13,-17,-3,1,34,8
1501930195642670,32,-5,24,3,-5,-4,-13,-13
1501930195654702,-11,-15,-24,-6,-5,-5,-1,-14
1501930195654702,45,-13,-2,1,-2,-6,-3,20
1501930195663668,-15,19,-17,4,0,-1,-19,-21
1501930195663668,-19,-11,0,0,-1,1,-1,3
1501930195678715,-47,-30,7,-10,-6,-7,-9,-9
1501930195678715,95,12,-5,-6,-1,1,-5,21
1501930195680672,-44,-2,-3,10,3,-2,-4,-18
1501930195680672,16,-3,0,-9,-4,-4,-6,-11
1501930195701672,-41,-5,5,-1,-2,-3,-4,-13
1501930195701672,-13,0,11,10,-1,-1,-1,-3
1501930195702672,10,8,-8,-15,-1,5,37,15
1501930195702672,-50,16,11,3,-1,2,4,7
1501930195714709,34,-2,-31,5,-1,1,-10,0
1501930195714709,-61,-47,-6,-7,-3,-3,-6,-21
1501930195723686,-10,27,-9,10,2,0,-11,4
1501930195723686,-31,8,14,-5,-2,1,1,-15
1501930195738675,17,5,13,1,-3,-3,-4,11
1501930195738675,-16,-7,-18,-3,-3,-4,-28,-25
1501930195740676,11,-23,-17,6,-1,-3,-17,19
1501930195740676,52,-29,28,9,1,2,10,-17
1501930195761709,-66,19,39,1,1,1,-2,-23
1501930195761709,26,-5,-46,-5,-5,-5,-5,-5
1501930195762682,-19,-2,24,6,-1,-1,-3,3
1501930195762682,68,3,-10,-2,1,-1,2,10
1501930195774688,-31,10,-8,8,1,1,12,-4
1501930195774688,15,-10,26,-2,-2,-2,4,36
1501930195783695,-15,21,4,-3,-1,2,1,-3
1501930195783695,-18,-1,-20,-2,-1,-3,-9,17
1501930195798734,100,-10,4,-5,-3,-1,-1,-8
1501930195798734,13,20,9,-1,1,2,3,-8
1501930195800679,13,3,1,2,0,1,-4,-6
1501930195800679,-49,5,-16,-10,1,1,-1,18
1501930195821740,-27,-8,7,4,-1,-4,-5,28
1501930195821740,-14,-3,-18,1,0,1,7,-17
1501930195822679,31,-11,11,-8,-8,-8,-7,-19
1501930195822679,-32,3,-10,-3,0,5,21,10
1501930195843718,34,10,-9,-4,-1,-3,3,5
1501930195843718,-17,8,32,1,6,3,5,-22
1501930195845683,82,-30,-56,-7,-8,-7,-5,23
1501930195845683,-70,22,23,0,-2,-2,-17,-20
1501930195858714,48,21,11,0,3,1,-12,26
1501930195858714,30,-9,-8,-1,-2,-2,-7,-23
1501930195860693,23,0,31,11,3,-1,-3,6
1501930195860693,2,-5,-47,-20,-4,-3,5,-27
1501930195881749,-36,-13,-23,-7,-5,-3,-7,-6
1501930195881749,10,-12,27,-2,-2,-6,-3,47
1501930195882683,-52,-3,12,-8,2,2,9,-27
1501930195882683,79,-17,-45,16,0,-4,-12,40
1501930195902722,-108,28,19,-1,8,5,7,-5
1501930195902722,23,-2,-7,28,-3,1,14,16
1501930195911686,-63,-7,13,-43,-10,-6,-35,-12
1501930195911686,28,10,5,-11,-2,-2,-5,6
1501930195918697,96,-11,-21,7,-2,-1,-1,-11
1501930195918697,-99,2,15,-20,1,0,-4,5
1501930195920697,-24,-1,-8,12,6,5,-8,24
1501930195920697,14,-1,4,37,0,-3,-6,-73
1501930195941723,-11,-10,9,-10,1,-2,7,10
1501930195941723,-7,7,12,83,2,0,-5,-33
1501930195942685,4,-6,-48,-95,-12,-3,-9,-8
1501930195942685,-36,4,23,8,-3,-5,-14,-5
1501930195963730,59,-1,21,16,3,-2,8,9
1501930195963730,8,7,-24,-25,0,2,16,-63
1501930195965688,6,7,26,44,1,5,19,13
1501930195965688,8,-16,-46,-43,2,0,-2,19
1501930195978736,-30,2,24,26,-7,-8,-26,-87
1501930195978736,-50,4,-14,-36,-10,-7,-2,-24
1501930195980697,84,-5,13,-8,5,4,12,-7
1501930195980697,16,1,-13,-3,2,-3,-17,31
1501930196001741,-34,-4,44,9,-1,1,10,20
1501930196001741,12,-1,0,-2,7,3,13,25
1501930196002691,0,-4,-9,10,-1,-6,-9,-25
1501930196002691,55,12,9,-10,-4,-2,11,-6
1501930196023756,-22,0,7,24,9,8,1,58
1501930196023756,46,-6,-10,-57,-6,3,3,15
1501930196025693,-32,1,6,12,-5,-6,-16,13
1501930196025693,24,-4,23,5,-2,-1,-3,-27
1501930196038729,-43,-4,-22,9,0,-2,-1,-39
1501930196038729,28,11,27,1,4,1,29,36
1501930196044782,-18,8,4,28,5,4,12,-23
1501930196044782,-11,-16,-11,-14,-2,2,-6,14
1501930196061735,16,16,-56,-27,-4,-3,-17,-24
1501930196061735,-11,11,84,40,4,3,12,-35
1501930196063695,29,-3,-29,-13,-3,1,24,-14
1501930196063695,-67,16,2,15,-4,-3,-4,-48
1501930196084702,44,-3,-13,-6,1,0,-16,-4
1501930196084702,28,-5,-12,-6,0,2,2,11
1501930196085704,-6,12,53,29,-4,-2,-12,24
1501930196085704,-113,-11,10,-12,2,2,2,5
1501930196098695,48,6,-21,-35,-4,2,20,12
1501930196098695,-17,-5,-44,4,-5,-6,-28,26
1501930196104694,-60,3,26,19,0,-3,-18,-33
1501930196104694,-44,-1,-4,17,0,-1,0,24
1501930196121695,-63,-14,3,-29,0,1,12,74
1501930196121695,-16,-16,-12,11,-12,-3,48,-8
1501930196122696,2,-5,-41,5,1,-1,-2,19
1501930196122696,-20,7,33,-3,2,0,12,-21
1501930196143708,-11,-19,-5,9,2,-1,-10,0
1501930196143708,28,-5,-5,0,0,-5,-23,-41
1501930196145733,-16,10,0,-4,0,-1,-10,2
1501930196145733,4,-1,33,3,1,-1,17,-4
1501930196158718,-12,3,-74,29,-6,-8,-26,-24
1501930196158718,-57,-13,-14,-21,0,4,1,67
1501930196164763,51,2,-11,5,-2,-5,-1,29
1501930196164763,-6,-13,-8,10,0,-1,-16,11
1501930196181748,-17,-10,23,-4,-6,-3,10,-33
1501930196181748,16,15,39,12,2,-2,-32,-31
1501930196182725,58,1,-31,-11,2,5,18,5
1501930196182725,35,0,18,9,-1,-2,-10,38
1501930196203763,29,-9,4,-15,-3,-1,17,18
1501930196203763,-98,0,-13,-8,-3,-8,-33,5
1501930196205737,14,-29,-8,-7,-2,3,11,17
1501930196205737,59,29,16,6,5,4,10,47
1501930196218716,-34,-10,-10,-25,-8,-3,-14,-6
1501930196218716,3,-5,1,5,0,-3,-5,4
1501930196224744,-53,4,19,9,0,-3,-22,-30
1501930196224744,1,-10,-17,-9,2,0,-6,2
1501930196241717,-2,6,23,33,4,4,7,-11
1501930196241717,8,2,-2,-81,-7,0,10,10
1501930196242712,5,4,-11,17,1,3,21,17
1501930196242712,-81,-15,-53,-13,-10,-10,-8,-19
1501930196263764,39,21,20,-3,3,-1,-27,4
1501930196263764,-1,-7,-23,9,5,6,33,-44
1501930196265731,-45,12,4,-9,-5,-7,-4,17
1501930196265731,11,3,25,-3,-4,0,1,-77
1501930196278705,-14,-4,-15,-8,1,-1,-27,22
1501930196278705,90,9,-11,24,3,1,-13,-3
1501930196284768,-24,3,-18,-9,-5,1,13,24
1501930196284768,51,15,14,3,-4,-1,10,40
1501930196301771,6,-1,1,6,3,0,3,-37
1501930196301771,26,-8,1,7,-2,-2,-25,-5
1501930196302708,-25,5,9,-4,3,2,3,-13
1501930196302708,-5,-3,-12,11,2,-1,-15,46
1501930196323772,62,1,-6,-29,-8,-5,32,1
1501930196323772,50,8,9,8,2,1,-3,2
1501930196325725,28,1,10,-2,4,0,-3,-9
1501930196325725,-7,-15,-54,2,-5,-5,-16,-10
1501930196337771,-56,3,13,-23,0,2,13,11
1501930196337771,10,-6,5,15,-2,-1,-5,13
1501930196346742,-3,-5,2,-1,-6,-7,-16,19
1501930196346742,33,4,3,-7,3,5,7,-30
1501930196361752,34,-15,-11,5,-2,-4,-22,-11
1501930196361752,-63,-3,4,3,0,-3,-2,-62
1501930196362710,-32,-5,13,-17,-5,-4,8,-4
1501930196362710,107,13,1,-17,1,1,2,13
1501930196383771,15,-4,-8,19,-4,1,-4,-17
1501930196383771,-26,-2,-24,8,-4,-8,-21,2
1501930196385721,-15,7,15,4,4,4,6,3
1501930196385721,-20,-10,8,-7,-3,-1,10,-17
1501930196397768,-50,-5,-5,-3,-5,-4,-1,-7
1501930196397768,15,13,-6,1,6,5,4,32
1501930196406726,-1,-7,-5,4,-7,-3,0,-48
1501930196406726,34,-8,20,-6,0,-1,-6,51
1501930196421747,-33,4,11,5,1,2,15,5
1501930196421747,-7,-19,4,5,-4,-4,-16,29
1501930196422714,-15,3,-21,-6,4,5,15,-24
1501930196422714,28,-13,11,9,-2,-4,-9,-13
1501930196443776,48,-18,1,-6,0,-1,9,8
1501930196443776,-52,0,2,-10,-2,2,3,-2
1501930196445717,-3,2,-18,2,2,0,-10,6
1501930196445717,-8,1,19,7,-2,-2,2,-11
1501930196457780,16,10,8,20,5,4,21,9
1501930196457780,44,-4,0,-20,1,-2,3,-5
1501930196466752,-4,-4,-3,-8,-5,-6,-8,-5
1501930196466752,-43,-9,-29,-4,0,-1,0,-9
1501930196481757,-24,4,58,7,1,0,-1,29
1501930196481757,26,0,-18,1,-5,-7,-12,-9
1501930196482717,-4,-4,-3,-7,1,1,5,-8
1501930196482717,-14,0,2,19,3,0,-2,-3
1501930196503775,-53,-1,-25,5,-4,-1,9,-24
1501930196503775,29,4,-16,-73,-7,-2,2,35
1501930196505723,22,3,15,-4,0,-5,-7,-20
1501930196505723,-14,-6,12,-2,-1,-1,4,-6
1501930196517785,-46,3,-66,-13,-3,-5,-14,-11
1501930196517785,-95,-3,-13,22,0,-3,-14,-11
1501930196526720,24,-10,31,16,1,-2,-14,19
1501930196526720,-29,6,-10,-14,1,3,6,-38
1501930196541734,18,13,38,5,-2,-4,-17,15
1501930196541734,31,1,11,15,-2,2,20,-24
1501930196542736,2,-2,-16,-7,-1,1,12,0
1501930196542736,24,4,2,4,-1,2,3,32
1501930196563752,16,-5,-1,-11,-2,0,-7,-43
1501930196563752,-27,3,26,11,-2,-6,-10,-36
1501930196565723,-8,-10,-41,-6,-3,-1,6,30
1501930196565723,20,-2,-50,-6,-2,-1,-5,-15
1501930196577766,-43,5,38,-16,-3,-5,-3,-9
1501930196577766,108,0,18,15,3,-1,-1,24
1501930196586724,37,6,0,-31,-6,-3,-15,-9
1501930196586724,2,2,-5,2,-4,0,8,29
1501930196601764,-9,-9,10,3,4,5,6,4
1501930196601764,3,10,-44,15,1,4,11,-16
1501930196602725,-16,-13,37,6,-3,-2,-5,-10
1501930196602725,-29,-10,-62,-17,-6,-6,11,-24
1501930196623726,12,4,11,-7,1,2,-10,5
1501930196623726,-11,-8,-10,10,-3,0,5,30
1501930196625728,-20,1,-9,15,0,-1,-6,-6
1501930196625728,-21,8,26,-5,-2,0,1,11
1501930196637769,-78,6,-5,4,2,3,28,4
1501930196637769,3,10,-12,-9,-2,1,-7,-2
1501930196646727,14,-11,0,5,-3,-4,-9,-7
1501930196646727,-16,-4,52,-2,1,-4,-8,-10
1501930196661795,37,-5,-22,-11,-4,-4,-10,6
1501930196661795,86,-9,9,10,5,7,11,7
1501930196662728,-66,-5,7,-13,-4,-6,-3,-53
1501930196662728,6,2,-4,6,-1,-2,-17,-24
1501930196683766,12,3,-22,4,3,2,15,20
1501930196683766,-5,-4,5,-6,0,-1,-9,2
1501930196685731,16,-1,-25,4,0,0,15,8
1501930196685731,32,6,0,-8,3,1,2,5
1501930196697796,-1,7,25,-1,-4,-3,-18,-26
1501930196697796,-111,-16,8,5,3,1,8,21
1501930196706731,110,10,1,7,4,7,5,16
1501930196706731,-56,-12,2,2,1,2,4,-7
1501930196721772,11,2,-15,3,1,2,13,-6
1501930196721772,-66,6,33,2,-5,-5,-12,-5
1501930196722732,29,-2,-34,-7,-4,-3,4,1
1501930196722732,-91,-10,24,-4,-4,-1,-3,13
1501930196743761,63,0,2,3,0,-2,2,0
1501930196743761,5,-10,-2,-12,-3,-4,0,3
1501930196745733,-3,0,3,6,-1,-1,-11,5
1501930196745733,-2,6,22,9,0,-2,-7,-23
1501930196757742,-29,-12,-20,-4,-4,-2,-7,-17
1501930196757742,23,13,22,5,0,1,-2,22
1501930196772735,-28,-13,-12,-4,0,-2,-5,26
1501930196772735,38,14,-14,-10,2,3,4,16
1501930196781733,-32,0,40,16,-3,-1,4,-3
1501930196781733,9,-3,-11,0,-4,-6,-25,-14
1501930196782735,-48,5,47,-1,3,4,8,-24
1501930196782735,81,-21,-90,-13,-12,-10,-1,15
1501930196803766,-10,4,-14,-1,4,-2,-12,-3
1501930196803766,27,-4,-5,-22,-9,-2,7,2
1501930196805740,-23,-2,-10,3,-1,-2,-6,-6
1501930196805740,19,2,32,10,-1,-1,-2,9
1501930196826744,6,-2,-17,-8,-3,-2,-4,13
1501930196826744,90,2,10,9,-2,-3,3,-19
1501930196827738,-20,4,-21,-3,2,4,12,15
1501930196827738,14,-2,8,6,3,2,5,-15
1501930196841744,0,-1,-24,-11,-5,-3,-1,-1
1501930196841744,-3,8,25,9,1,0,25,19
1501930196842745,-36,2,-11,11,2,-2,-9,8
1501930196842745,71,0,37,9,6,7,30,13
1501930196863777,22,8,3,-13,3,-1,1,16
1501930196863777,-55,-7,-74,-15,-6,-3,-6,-15
1501930196865743,16,-3,44,13,0,-4,-10,17
1501930196865743,-71,2,-38,-16,-6,-8,-24,-5
1501930196886788,-6,-9,-21,4,-1,-1,2,-13
1501930196886788,14,5,28,0,1,1,3,-6
1501930196887741,21,-10,-46,-13,-5,-3,-7,11
1501930196887741,9,0,11,13,-1,-2,-15,1
1501930196901788,67,2,33,9,0,-1,-6,-3
1501930196901788,-15,-2,0,-6,2,1,-2,4
1501930196902742,63,-8,-8,-3,-4,-5,-2,-18
1501930196902742,-54,-3,21,-6,-1,-2,6,-26
1501930196924786,30,-22,-3,0,-5,0,-2,13
1501930196924786,49,-6,5,5,2,0,4,40
1501930196926747,-20,4,-7,-2,-1,-2,14,10
1501930196926747,-38,3,-14,-3,1,2,2,-12
1501930196946793,-14,-1,39,-3,0,-2,-2,-4
1501930196946793,-20,-4,-9,4,1,3,7,-6
1501930196947745,-3,-1,16,1,2,3,20,28
1501930196947745,-19,-5,-16,-9,-7,-5,-20,-23
1501930196960786,-12,-6,-23,-29,-6,0,5,-6
1501930196960786,-36,1,-1,0,-5,-10,-54,-10
1501930196967813,-12,6,30,8,1,5,17,-25
1501930196967813,14,-1,10,0,1,-1,6,8
1501930196983810,4,5,17,15,5,4,25,-9
1501930196983810,-3,-5,-11,-2,0,-8,-59,-5
1501930196985756,1,5,9,-3,1,6,28,-21
1501930196985756,0,0,16,11,3,3,39,8
1501930197006758,-7,-6,-54,-12,-7,-4,-31,-19
1501930197006758,-25,-1,2,5,2,1,11,28
1501930197007763,-13,6,14,4,4,4,-5,9
1501930197007763,3,-2,-27,0,-6,-5,-18,-10
1501930197020781,-19,-7,-9,1,-2,-4,8,14
1501930197020781,-8,5,-11,8,-4,-2,6,-60
1501930197027747,9,-2,3,-3,0,-2,-14,31
1501930197027747,15,-4,-6,-5,2,-5,-32,18
1501930197043794,-74,-2,0,4,-3,2,10,16
1501930197043794,35,6,9,7,1,1,6,14
1501930197045749,14,-6,-12,3,0,2,9,-33
1501930197045749,25,5,2,-4,2,-2,-5,10
1501930197066789,2,0,20,33,-2,-1,4,-1
1501930197066789,-4,-10,-2,-77,-9,3,32,17
1501930197067751,-9,5,1,-20,2,0,-4,-9
1501930197067751,52,11,-18,23,-4,-5,-12,-10
1501930197080791,33,-19,24,8,7,4,26,-1
1501930197080791,-64,9,-14,11,4,6,31,7
1501930197087822,-19,-4,-11,-3,-3,-14,-46,24
1501930197087822,-11,-2,7,-13,3,4,-5,-45
1501930197103796,44,11,-8,36,-1,-4,-32,20
1501930197103796,-31,-11,37,4,-12,-8,8,-12
1501930197105764,65,6,7,12,0,3,-17,-6
1501930197105764,-25,2,9,-5,3,5,19,11
1501930197126765,-45,-15,-55,-5,-5,-5,-22,4
1501930197126765,-9,10,-8,6,5,2,8,-14
1501930197127756,-50,-10,10,7,-2,-5,-24,-23
1501930197127756,0,-5,-9,-5,1,1,-3,2
1501930197140802,46,4,32,-16,2,1,-3,1
1501930197140802,21,-5,-22,-7,-4,-8,-59,7
1501930197147795,20,-2,-1,-7,-6,-1,38,29
1501930197147795,-32,-1,3,2,1,-1,-11,-12
1501930197163801,-8,0,-37,-11,0,-2,1,28
1501930197163801,-7,-4,3,5,0,2,7,-50
1501930197165757,-7,4,17,1,-2,-2,-12,4
1501930197165757,-8,-3,-13,-4,-2,0,10,9
1501930197186805,-6,9,27,-21,-6,-9,-42,8
1501930197186805,-49,-1,-25,11,-1,-4,9,-8
1501930197187759,27,14,-9,-14,3,3,9,-6
1501930197187759,-26,0,14,15,-2,-2,7,23
1501930197200766,10,11,36,-17,3,4,12,2
1501930197200766,1,-16,-46,9,-5,-1,-5,6
1501930197207804,-46,1,-7,11,-3,-5,0,-9
1501930197207804,-7,1,0,-10,0,-5,-33,-27
1501930197223801,-6,-9,13,6,0,2,12,-26
1501930197223801,32,-10,15,1,2,-4,4,28
1501930197225760,-79,-14,-43,-26,-10,-3,-14,-10
1501930197225760,47,1,7,1,-1,-3,6,2
1501930197246805,1,0,-2,6,2,-1,-16,-34
1501930197246805,-6,14,8,0,1,2,33,-4
1501930197247797,51,-1,3,-2,-1,-5,-20,-10
1501930197247797,-37,6,-5,-9,-1,2,7,-7
1501930197260801,2,-13,2,3,-1,0,0,5
1501930197260801,1,4,27,0,1,0,2,-1
1501930197267829,-1,4,-14,9,1,-2,-4,1
1501930197267829,-13,-5,16,6,1,0,-2,18
1501930197283774,19,0,-43,-24,-4,0,9,-6
1501930197283774,15,3,66,5,-2,0,-4,-14
1501930197285763,9,-10,-9,8,-4,-6,-13,22
1501930197285763,2,5,23,-1,1,1,6,-9
1501930197306837,-38,6,8,4,0,2,3,-1
1501930197306837,23,-3,-6,1,2,3,-1,-10
1501930197307766,-6,-2,14,-30,-7,-1,17,-23
1501930197307766,-45,-8,-7,10,-1,1,9,18
1501930197319798,-12,-1,-41,-6,-3,-3,-17,-45
1501930197319798,21,1,-14,7,6,5,4,0
1501930197328783,-33,-11,16,15,-1,-4,-5,2
1501930197328783,82,-7,-10,-14,-7,-3,-4,13
1501930197343806,10,-1,45,0,-1,0,14,-1
1501930197343806,-18,-3,-60,-12,-5,-6,-24,6
1501930197345777,-1,-7,-2,7,3,5,5,-2
1501930197345777,55,11,17,2,-3,-4,1,31
1501930197366816,-17,-1,-9,6,-1,-5,-3,-12
1501930197366816,28,0,-32,0,0,-2,-7,-5
1501930197367779,-13,1,11,-10,-2,-5,-5,-16
1501930197367779,-1,-11,-52,-3,-4,0,0,18
1501930197379834,-3,-1,-16,0,-6,-3,10,6
1501930197379834,4,2,-29,-4,2,1,11,10
1501930197388786,24,7,25,10,1,3,15,2
1501930197388786,-10,-7,-24,-18,2,3,0,-5
1501930197403836,-19,9,18,11,5,8,31,-5
1501930197403836,-18,0,56,7,-3,-3,1,-5
1501930197405773,10,-5,-49,-3,-4,-3,-12,20
1501930197405773,-9,1,37,-5,2,0,-1,-32
1501930197426772,12,7,-3,-2,-2,2,14,-11
1501930197426772,0,-12,24,-2,2,2,23,6
1501930197427771,21,1,-30,6,-1,-3,-16,4
1501930197427771,-21,-2,-16,-15,-7,-4,2,-27
1501930197439837,9,-7,-21,-6,0,1,-6,19
1501930197439837,-40,-7,5,6,3,-5,-47,-18
1501930197448794,1,3,-41,3,3,5,24,2
1501930197448794,-22,-3,-6,-2,2,-1,-2,-11
1501930197463820,-11,-5,0,-19,-8,-8,-23,1
1501930197463820,0,-1,4,12,-2,-3,-7,-6
1501930197465775,-10,-1,16,-5,0,-1,11,1
1501930197465775,-7,-2,14,15,2,-1,-12,16
1501930197486820,-22,-5,-16,-2,2,6,27,34
1501930197486820,86,5,-1,-7,0,1,0,-23
1501930197487777,-23,-12,-27,1,-4,-4,-9,5
1501930197487777,-3,4,28,3,-3,-3,1,-13
1501930197499774,5,4,4,0,-2,-3,-10,15
1501930197499774,-39,-11,8,-11,-7,-5,4,5
1501930197508784,12,8,30,16,4,0,-7,0
1501930197508784,5,-6,-21,-36,-6,-3,-23,-8
1501930197523776,-5,-11,19,-1,-3,-4,-7,19
1501930197523776,1,7,-13,3,1,0,6,-37
1501930197525780,2,-2,-7,-4,3,2,0,-7
1501930197525780,-6,1,11,-2,-3,0,10,1
1501930197546790,-44,-2,-9,3,-4,-2,-8,-4
1501930197546790,-5,-2,-1,-4,1,2,3,38
1501930197547787,3,2,7,-12,-4,-3,-13,-33
1501930197547787,-7,4,30,16,5,5,23,5
1501930197559793,1,-5,14,0,-5,-7,-12,-13
1501930197559793,4,6,8,-10,-5,-1,-1,8
1501930197568790,-25,-1,23,0,2,0,-1,-10
1501930197568790,-19,8,-5,4,-3,1,5,5
1501930197583798,19,-2,46,5,1,-1,-14,-20
1501930197583798,-9,-1,14,1,0,-2,0,-6
1501930197585783,38,0,21,2,0,2,0,20
1501930197585783,-20,-3,4,19,2,-3,1,9
1501930197606813,-9,-6,-51,-17,-1,2,10,7
1501930197606813,20,0,16,9,-1,-3,-30,-36
1501930197607784,21,0,21,13,5,3,33,8
1501930197607784,15,5,-4,-1,-1,-1,-12,-1
1501930197619811,7,9,0,13,4,-2,-20,10
1501930197619811,-13,-11,-36,-8,-4,4,24,30
1501930197628795,-9,-4,-37,-8,-4,-6,-25,-2
1501930197628795,21,-6,-3,-7,-3,-4,3,-7
1501930197643824,16,11,57,12,2,-1,10,-15
1501930197643824,1,0,-47,-7,2,-2,2,12
1501930197645786,-9,6,3,-9,2,0,-12,-6
1501930197645786,-3,-13,20,-8,-5,-4,-1,17
1501930197666859,-10,-13,-40,-8,-5,-5,-9,-5
1501930197666859,10,-1,-1,3,2,4,9,1
1501930197667786,-9,-1,-12,1,-1,0,18,13
1501930197667786,-5,-5,-13,-7,0,-3,-26,7
1501930197679827,4,2,-42,-3,0,0,-7,-31
1501930197679827,-11,-8,4,-5,-5,-1,17,43
1501930197688805,48,-2,-13,2,-4,-9,-10,-43
1501930197688805,-32,-10,-7,-8,-1,-1,-17,-2
1501930197703801,-8,0,18,-5,-3,-1,-15,9
1501930197703801,33,12,4,5,4,5,0,16
1501930197705789,-21,-6,31,-4,-2,-6,-19,-31
1501930197705789,-3,10,7,15,1,5,18,-3
1501930197726820,1,-5,-10,11,1,1,36,-4
1501930197726820,-5,7,35,-6,0,-1,44,26
1501930197727790,-14,5,-6,-7,-3,4,21,-6
1501930197727790,8,-1,34,17,0,0,8,18
1501930197748859,-6,-4,-20,-2,2,2,5,2
1501930197748859,-9,3,10,0,1,-3,-43,-20
1501930197750816,-10,7,8,3,2,1,22,16
1501930197750816,-27,-2,-8,1,-5,-2,12,-20
1501930197763858,4,-3,1,-1,-1,-3,-9,-2
1501930197763858,-6,-4,4,-2,-1,-1,-4,6
1501930197765794,-3,-6,0,-6,-1,-2,-3,-31
1501930197765794,7,12,-4,-6,-1,3,-10,8
1501930197786844,14,6,20,-2,1,3,12,13
1501930197786844,-16,0,-11,4,0,-2,-34,-45
1501930197787803,13,-4,10,-2,0,-1,-24,45
1501930197787803,30,1,-25,9,2,3,26,11
1501930197808859,-5,-9,19,-5,-4,-8,-34,-17
1501930197808859,18,2,-1,8,0,0,28,-6
1501930197810794,-7,-2,-23,-5,3,5,4,23
1501930197810794,-20,-17,-19,-23,-7,-17,-85,-49
1501930197823837,14,1,-24,8,2,1,8,53
1501930197823837,-19,-10,18,-12,-6,-4,3,-32
1501930197825796,-11,-5,-6,2,-6,-12,-39,2
1501930197825796,-60,-6,-11,3,3,-3,-43,27
1501930197845836,9,11,23,7,5,6,17,-1
1501930197845836,-8,-6,-6,4,-5,-2,-16,15
1501930197846796,4,6,32,2,4,3,-25,-28
1501930197846796,11,3,12,2,-1,-1,-17,-37
1501930197867835,4,-5,-2,-5,0,1,4,9
1501930197867835,3,-1,-15,-1,0,-1,-18,48
1501930197868832,-10,10,27,17,0,5,27,-4
1501930197868832,18,-10,-54,-26,-1,10,61,24
1501930197882839,-11,2,22,0,0,-3,-3,-20
1501930197882839,14,-2,-40,-8,-2,-8,-37,-51
1501930197883821,-11,-5,-8,3,0,3,36,20
1501930197883821,5,5,18,10,0,1,-2,-17
1501930197905838,19,-3,-21,-4,-2,-4,-4,3
1501930197905838,-3,-2,1,-7,-5,3,12,15
1501930197906801,1,3,-1,2,0,1,8,3
1501930197906801,23,-2,-26,-2,-3,-6,0,-15
1501930197927847,-13,-1,7,-6,-5,-12,-106,-11
1501930197927847,-16,-1,3,3,2,-1,38,24
1501930197928837,22,0,-6,-9,0,7,13,0
1501930197928837,9,4,4,-1,-3,-8,-8,24
1501930197942839,-12,-7,-18,-2,0,7,46,-46
1501930197942839,-5,4,22,-2,-1,0,7,-16
1501930197950869,-11,0,-9,-5,-4,-4,-29,4
1501930197950869,-10,6,-7,4,1,5,74,6
1501930197965845,7,-5,-12,4,0,-7,0,-8
1501930197965845,11,-1,12,5,1,3,33,11
1501930197966806,-46,-5,21,-19,-8,-9,4,6
1501930197966806,1,-1,-20,8,-3,-6,-61,7
1501930197988808,36,-4,-9,-16,-2,1,12,-26
1501930197988808,19,2,-16,10,3,0,-2,2
1501930197988808,-6,-1,25,6,-3,-7,-64,-34
1501930197988808,24,-10,-7,-2,-2,1,25,25
1501930198002845,-21,-2,-6,2,-2,-2,-12,8
1501930198002845,-21,-1,-46,-21,-2,0,-11,8
1501930198010843,8,-4,3,8,-2,0,7,-10
1501930198010843,-3,0,2,3,-2,0,10,18
1501930198025848,-36,-9,0,2,-2,2,21,-4
1501930198025848,1,2,41,4,0,-1,-27,-30
1501930198026807,-20,-12,-41,-5,0,-4,-7,15
1501930198026807,2,0,30,4,-2,-12,-85,-28
1501930198047875,17,-19,-22,-14,-3,7,74,55
1501930198047875,20,16,17,-7,-6,-6,-13,-24
1501930198055851,-30,-7,-29,-4,-4,-9,-23,3
1501930198055851,17,6,11,13,4,3,0,14
1501930198062849,-2,4,-1,-1,4,4,-16,-20
1501930198062849,-16,-10,-1,-3,-2,-4,-6,-17
1501930198070842,5,-3,-13,-3,3,2,11,-5
1501930198070842,-34,0,-25,-1,-7,-3,-10,-16
1501930198085852,37,9,38,-6,-1,-2,9,0
1501930198085852,-15,-4,-24,5,3,1,21,-10
1501930198086810,10,8,5,2,1,-2,-26,-4
1501930198086810,-10,-9,2,-7,-1,3,63,-6
1501930198107853,8,7,-8,3,-3,-2,-14,-3
1501930198107853,-31,-13,-30,-10,-3,-3,-19,2
1501930198108846,39,5,2,-5,1,4,5,7
1501930198108846,-11,-2,25,7,1,2,-2,-1
1501930198122873,-43,8,-10,2,3,-2,1,-14
1501930198122873,44,-3,5,-2,-4,-6,-21,2
1501930198130850,-7,-4,-12,4,2,10,49,-9
1501930198130850,-10,-8,6,-11,0,6,24,-13
1501930198145854,-26,9,3,0,-1,-5,-31,12
1501930198145854,-9,-1,2,2,4,7,22,10
1501930198146814,-8,2,-16,2,4,5,20,3
1501930198146814,19,4,18,1,-4,-1,-2,-2
1501930198167848,-26,-7,-5,-4,-3,-5,-31,-19
1501930198167848,-15,1,18,4,1,-3,-15,-7
1501930198168824,24,11,-29,-2,2,7,36,32
1501930198168824,-72,6,-16,-2,-2,2,36,16
1501930198182826,12,8,63,3,0,2,4,-10
1501930198182826,5,-8,-47,0,-1,1,12,-23
1501930198190824,-23,-3,26,3,1,-1,-31,-5
1501930198190824,45,-6,-26,-5,2,2,4,40
1501930198205859,-2,0,21,11,0,-4,-9,-53
1501930198205859,4,-2,-5,-11,-5,-2,-8,18
1501930198206826,-24,-2,16,-1,-2,-5,13,-20
1501930198206826,10,-9,-37,-7,-4,-6,-22,18
1501930198227866,-1,5,35,11,3,0,-13,-19
1501930198227866,-4,-14,-2,-7,0,-7,-25,4
1501930198228830,10,-4,-27,-10,-12,-7,11,5
1501930198228830,32,1,6,0,1,4,18,-24
1501930198242840,-14,-2,-24,-5,1,4,28,27
1501930198242840,-5,3,14,5,3,-2,-5,16
1501930198250853,14,10,31,10,3,-1,-13,6
1501930198250853,-3,-5,-37,-9,-2,0,0,-20
1501930198265889,8,-9,-21,-12,-9,-7,-10,10
1501930198265889,-9,1,5,2,-3,5,40,21
1501930198266820,-29,3,12,1,-2,-3,-19,-21
1501930198266820,50,2,3,5,1,-1,-2,-19
1501930198288839,14,-8,-28,0,1,-4,-16,11
1501930198288839,-47,7,20,-1,-1,-3,-22,-12
1501930198288839,9,-14,-24,-4,-4,-6,-10,12
1501930198288839,-27,5,36,4,2,2,0,-27
1501930198302861,21,-3,-25,-2,-2,3,3,13
1501930198302861,8,1,-9,-24,-3,-6,-20,3
1501930198310863,21,-4,3,-1,1,3,1,-4
1501930198310863,-12,-2,3,-7,-3,-6,-19,-3
1501930198325862,8,2,16,1,-2,-3,-1,22
1501930198325862,2,2,0,17,3,3,5,-30
1501930198326824,-7,0,-22,-11,-1,-1,-7,3
1501930198326824,20,-5,4,-4,-1,-5,-10,-5
1501930198347847,-20,-15,-7,-11,-7,-8,-25,6
1501930198347847,38,17,2,11,2,6,42,25
1501930198348863,13,1,22,1,-2,0,7,-40
1501930198348863,-23,8,-11,-12,-1,3,13,17
1501930198362867,-40,-14,-17,0,-1,0,23,5
1501930198362867,31,5,31,-1,2,2,3,-34
1501930198370898,-56,9,-13,11,1,-2,-25,6
1501930198370898,-43,-14,21,-1,0,1,-9,-7
1501930198385896,8,4,-4,-2,-2,1,7,5
1501930198385896,8,-1,-29,-5,-3,-3,-3,18
1501930198386828,0,1,31,2,-1,-2,-9,-18
1501930198386828,-62,-5,-37,-3,-3,-3,0,-14
1501930198407851,14,5,-2,-2,0,-2,3,6
1501930198407851,8,-2,9,3,2,0,-22,-8
1501930198408867,40,-18,-18,-12,-5,-2,7,20
1501930198408867,26,0,24,-1,-3,-6,-23,-11
1501930198422830,9,6,-18,-5,-3,-1,9,25
1501930198422830,-16,-6,19,2,-2,-1,4,-8
1501930198438854,39,3,-15,-4,-3,-3,-19,-2
1501930198438854,0,9,15,3,1,4,16,11
1501930198445844,43,1,-25,3,2,3,4,-16
1501930198445844,-63,-9,34,-9,-5,-9,-10,15
1501930198446831,16,-8,-20,-6,-3,-4,-1,8
1501930198446831,5,9,31,9,4,3,-6,9
1501930198467878,1,0,-61,-2,1,-1,-4,-18
1501930198467878,-41,-19,-27,-12,-8,-8,-19,-8
1501930198468871,23,-10,-1,1,1,-1,2,5
1501930198468871,-1,1,12,-3,-3,-2,-5,6
1501930198482874,-19,-3,9,-3,-1,-8,-45,-27
1501930198482874,43,-1,-12,-2,-1,5,21,11
1501930198490874,11,7,-4,1,1,4,17,-9
1501930198490874,45,-3,-2,0,-5,-3,-10,-29
1501930198505875,-22,-16,32,1,-4,-6,-17,-10
1501930198505875,-14,6,-21,2,-1,-11,-46,2
1501930198506859,-45,8,32,0,-1,1,7,16
1501930198506859,-39,-2,-19,3,-1,0,21,23
1501930198527878,20,3,5,-6,0,2,-3,17
1501930198527878,29,6,-8,6,1,1,9,-25
1501930198528875,29,-11,3,-4,-1,14,59,24
1501930198528875,9,4,9,4,1,-2,1,-12
1501930198542878,7,7,2,1,3,5,18,28
1501930198542878,-78,-23,-15,-3,-3,-6,-16,11
1501930198550837,13,7,7,1,2,4,25,7
1501930198550837,28,0,-9,-14,-2,5,19,-5
1501930198565908,-23,15,28,1,-1,5,49,-8
1501930198565908,13,-2,3,5,2,5,46,60
1501930198566839,-76,0,21,4,-3,-6,-19,-14
1501930198566839,69,-6,-33,0,-2,-3,-16,14
1501930198587880,-1,-4,-6,4,2,-1,-10,-2
1501930198587880,-9,10,7,0,2,2,-3,-103
1501930198588844,0,1,-8,-1,-5,-5,4,-57
1501930198588844,-17,-3,1,4,-2,2,6,11
1501930198602853,-67,-4,1,-5,-2,-4,-29,2
1501930198602853,82,4,0,1,0,0,2,-4
1501930198610882,-28,-10,5,-1,-2,-3,-17,-2
1501930198610882,-77,-4,-8,-1,-4,-5,-16,-22
1501930198625901,64,-9,17,1,-1,-4,3,-44
1501930198625901,8,18,2,5,-2,-2,2,72
1501930198626843,-19,1,-16,-34,-4,-1,4,18
1501930198626843,-6,-10,11,3,-1,-4,-20,5
1501930198647886,-18,8,8,3,0,0,13,11
1501930198647886,-34,-6,0,2,3,7,25,-5
1501930198648884,43,-3,-11,8,0,-4,-31,12
1501930198648884,-17,-2,7,-1,-4,7,43,15
1501930198671869,-15,-1,-12,-4,1,0,-8,-23
1501930198671869,12,7,18,1,2,4,3,-12
1501930198671869,-19,-11,-33,-2,-1,0,-3,-5
1501930198671869,2,7,-7,0,2,0,-1,-3
1501930198685892,-32,-7,1,3,-2,0,7,26
1501930198685892,-31,-8,-13,-5,0,0,6,-4
1501930198686856,7,6,4,5,1,-4,-42,-6
1501930198686856,-22,-1,36,1,3,1,25,-12
1501930198707912,57,7,-36,-2,1,2,-9,-8
1501930198707912,-12,3,-1,-1,-4,-1,4,-6
1501930198708853,6,-10,-17,-2,0,2,25,35
1501930198708853,13,12,1,-4,-1,-7,-45,-90
1501930198731862,10,-5,8,1,-7,-4,9,10
1501930198731862,-20,-6,-14,2,1,-1,7,-5
1501930198731862,-3,3,-3,9,0,-4,-1,11
1501930198731862,5,2,-3,6,1,1,0,44
1501930198745913,9,-6,11,4,0,-7,-32,-20
1501930198745913,41,-5,-12,-16,4,11,35,9
1501930198746848,-23,-2,15,9,-6,-7,14,-4
1501930198746848,32,-1,-24,2,2,-5,-20,-2
1501930198767897,-11,0,14,-13,-2,-6,-24,-6
1501930198767897,-9,-1,13,7,1,0,1,10
1501930198768866,108,10,-2,-10,0,0,5,19
1501930198768866,42,-3,13,2,0,1,-7,57
1501930198791864,-25,4,-3,0,1,3,12,4
1501930198791864,5,1,4,-2,-4,-6,-25,-39
1501930198791864,3,-4,20,0,-1,1,1,-23
1501930198791864,4,-3,-22,2,-3,-3,-4,6
1501930198805900,4,3,11,0,0,1,13,16
1501930198805900,-11,-2,-17,-4,-3,-5,-42,10
1501930198806857,4,-13,14,2,-3,0,20,19
1501930198806857,-50,-13,-4,-6,0,-4,-24,-45
1501930198827915,-8,15,3,7,2,5,16,-37
1501930198827915,7,-17,-9,-21,-2,-6,-21,4
1501930198828891,-31,12,3,2,-1,0,15,-7
1501930198828891,-26,-7,16,0,-2,-5,1,13
1501930198851865,21,-7,-18,-7,-1,-3,-23,23
1501930198851865,32,7,0,7,-5,-5,-16,4
1501930198851865,-4,3,-29,6,4,4,-7,-12
1501930198851865,-59,16,38,-7,-2,-2,9,-10
1501930198865920,-101,-9,-26,-5,-4,-6,5,-7
1501930198865920,31,-1,-17,2,-2,-4,-7,-15
1501930198866891,2,2,6,-2,-2,-4,-14,-2
1501930198866891,26,1,-3,-3,0,1,7,12
1501930198887921,-1,-5,-1,0,-1,4,21,-1
1501930198887921,-20,-5,1,4,0,3,8,57
1501930198888897,-20,2,-5,-4,-5,-8,-16,-36
1501930198888897,12,-8,-4,0,2,8,39,-9
1501930198911873,27,-7,-11,-12,-4,-3,-7,-2
1501930198911873,11,4,15,4,-4,-1,-1,0
1501930198911873,-53,-11,0,6,1,-3,-9,9
1501930198911873,-23,-3,-23,-13,-3,-2,-29,2
1501930198925896,-49,16,23,3,3,4,-2,-7
1501930198925896,-23,-5,-1,-2,-5,-2,11,-6
1501930198926865,-4,2,25,9,3,0,-7,-2
1501930198926865,4,0,-65,-11,-4,-2,12,-1
1501930198947901,72,-9,18,-6,-4,-1,0,-7
1501930198947901,-14,-4,-1,4,2,5,22,-17
1501930198948902,-25,-3,13,0,-2,-6,-38,12
1501930198948902,38,3,12,2,2,2,25,21
1501930198971872,-9,4,-3,1,-1,1,11,-1
1501930198971872,-28,-2,3,-4,-1,0,-14,-26
1501930198971872,18,1,-5,-4,-4,-3,-3,2
1501930198971872,17,2,24,2,-1,-4,-12,-5
1501930198985907,-22,-7,-37,-3,-1,-2,1,27
1501930198985907,112,10,8,5,-1,-3,6,21
1501930198986862,-123,1,-7,-3,2,4,4,-41
1501930198986862,77,-3,-1,0,0,0,3,8
1501930199007929,-25,8,20,9,2,1,2,-12
1501930199007929,-18,-3,-11,0,0,3,1,13
1501930199008903,23,-6,-19,-14,-4,-3,8,-32
1501930199008903,-21,4,0,0,-6,-5,-26,0
1501930199031875,55,-10,-4,-2,-2,-7,-14,1
1501930199031875,-21,-10,3,3,3,10,33,-10
1501930199031875,16,20,9,5,0,2,18,32
1501930199031875,75,2,-13,-3,-2,-4,-7,9
1501930199045913,-78,1,1,0,1,2,-8,-11
1501930199045913,-15,-6,-9,-5,-3,-5,-6,4
1501930199046900,-4,2,-21,-6,-2,0,-16,-5
1501930199046900,33,-1,36,2,-2,-1,9,7
1501930199067877,38,0,-59,-1,1,3,9,2
1501930199067877,0,-7,1,-11,-8,-10,-26,9
1501930199068866,5,-1,1,-2,-1,-3,-27,-8
1501930199068866,-55,1,-3,2,4,7,64,4
1501930199091868,-2,0,32,-1,-5,-6,-21,-5
1501930199091868,-31,0,-4,2,-1,0,-17,-19
1501930199091868,88,-4,-2,-5,-5,-11,-33,6
1501930199091868,-41,-3,-3,1,0,0,-7,-13
1501930199105897,22,9,-20,-10,2,2,7,3
1501930199105897,-53,-10,19,-2,-1,-1,-1,-25
1501930199106870,-21,-4,-15,0,2,6,32,25
1501930199106870,37,-3,-5,5,0,-4,-10,-24
1501930199127941,-59,4,19,11,2,-1,4,-8
1501930199127941,36,9,8,7,1,-5,-20,11
1501930199128910,20,3,-18,-22,-3,3,23,15
1501930199128910,10,-2,-5,7,1,1,-5,-23
1501930199151883,11,1,9,1,0,0,9,2
1501930199151883,-10,10,-5,-4,-2,-3,-7,0
1501930199151883,-33,-12,22,12,0,3,1,-7
1501930199151883,-15,-16,2,-8,-4,-5,-5,5
1501930199165894,63,5,2,0,-3,-3,-4,27
1501930199165894,6,12,12,6,2,0,-7,-13
1501930199166873,6,-17,-19,1,-2,-2,28,-10
1501930199166873,-39,5,38,0,-2,-5,-17,-7
1501930199187943,-12,-29,-33,-3,-1,-4,-26,-12
1501930199187943,34,7,14,11,1,2,5,15
1501930199188873,-97,-8,5,-11,0,-2,-4,-63
1501930199188873,-17,0,-24,5,1,2,-2,7
1501930199211892,10,-7,26,-1,-1,0,16,5
1501930199211892,10,-4,-26,-5,-2,0,5,-10
1501930199211892,17,9,-10,6,1,-3,-10,31
1501930199211892,-24,24,21,-7,-1,6,27,3
1501930199225919,-31,4,23,3,0,-1,7,9
1501930199225919,11,-8,1,-10,-2,1,3,-28
1501930199226877,-4,0,-8,3,-1,-4,-6,36
1501930199226877,-26,-12,-6,-4,-2,-8,-25,-5
1501930199247881,41,7,17,7,0,6,19,17
1501930199247881,-31,-5,-47,-9,-1,-2,-12,7
1501930199248878,35,1,4,-1,-2,-5,0,-6
1501930199248878,-6,-1,10,-8,-2,-3,-3,-12
1501930199270919,3,-4,-14,1,-1,1,4,4
1501930199270919,-11,-4,19,-4,-6,-6,-12,-19
1501930199271881,33,-2,-9,2,-1,0,-1,2
1501930199271881,-85,-19,2,1,-1,0,25,15
1501930199284923,87,16,16,0,0,-2,5,-38
1501930199284923,-21,5,11,4,-1,1,-13,32
1501930199292923,-1,-4,-16,0,0,-1,-8,9
1501930199292923,-9,3,1,5,1,-1,-9,-3
1501930199307947,-32,-10,3,-9,-5,-4,-15,3
1501930199307947,0,-2,-3,3,-2,2,14,8
1501930199308881,-19,3,8,-1,0,-1,-6,-23
1501930199308881,84,2,-8,-4,-1,-4,-27,-1
1501930199330922,26,1,-15,3,2,2,-6,11
1501930199330922,-8,3,4,0,1,1,13,6
1501930199331888,-19,-3,10,7,1,2,-8,4
1501930199331888,82,7,-35,-2,-3,-3,-34,-12
1501930199344926,-78,-5,6,-7,-2,-3,-7,0
1501930199344926,12,2,12,2,0,2,24,-18
1501930199352898,61,-2,9,8,1,-1,3,17
1501930199352898,-27,-2,-10,4,0,-1,3,13
1501930199367916,21,1,-7,-23,-3,-2,-5,-3
1501930199367916,-24,-1,14,4,0,-2,-20,18
1501930199368884,-8,3,-28,-10,-1,4,34,-7
1501930199368884,-28,1,22,10,3,0,-3,10
1501930199390929,-25,2,-25,2,-2,-2,-10,-47
1501930199390929,-30,-10,-17,-3,-5,-1,25,10
1501930199391886,25,-1,28,-8,1,4,4,-5
1501930199391886,-6,-7,-5,4,-4,-1,-3,9
1501930199404934,-10,6,13,10,-1,-3,-9,1
1501930199404934,24,-4,-9,-6,0,1,7,-6
1501930199412901,28,-1,5,0,-3,-5,-11,-3
1501930199412901,2,9,4,-3,1,2,17,-16
1501930199427929,16,-19,-24,0,-3,-4,-13,-5
1501930199427929,16,4,2,1,-4,-5,-1,2
1501930199428889,13,1,-3,-10,-2,-3,-8,5
1501930199428889,-2,-6,-9,-6,0,-1,11,-6
1501930199450888,18,3,12,4,0,3,3,5
1501930199450888,-14,-2,3,-1,-1,-1,-1,-1
1501930199451890,-38,-8,-6,2,0,1,15,8
1501930199451890,66,2,1,-2,0,-1,-1,5
1501930199464889,-25,6,21,1,1,-3,-12,6
1501930199464889,-3,-5,-34,-5,-8,-5,-4,-4
1501930199472895,-11,2,8,5,-3,-4,-16,-6
1501930199472895,85,0,-16,-7,-4,-5,-13,-22
1501930199487934,-50,-5,1,1,0,0,20,21
1501930199487934,21,-2,5,-2,-4,-4,-3,-49
1501930199488894,27,-1,17,10,1,0,-7,4
1501930199488894,-75,-8,-14,1,1,6,36,2
1501930199510920,10,0,-16,-5,-3,-1,2,16
1501930199510920,41,-6,-4,-2,-2,-5,-14,-10
1501930199511893,-12,0,7,5,1,0,2,-1
1501930199511893,-31,19,26,-6,-2,-7,-37,18
1501930199524900,-22,5,-2,2,2,5,14,7
1501930199524900,15,-7,17,2,0,7,18,9
1501930199532907,-49,11,-19,-10,-3,0,-14,4
1501930199532907,-29,-12,-15,-3,-2,-2,9,-10
1501930199548933,36,-2,8,-5,-2,-1,-4,7
1501930199548933,-3,4,0,-5,3,-2,-18,-5
1501930199549903,0,-6,-2,-6,-1,-1,4,0
1501930199549903,-6,3,3,4,0,-3,-7,-3
1501930199570958,-21,2,-4,4,2,1,-5,-15
1501930199570958,-38,-4,-3,-5,0,-1,2,18
1501930199571896,60,-1,-12,-7,-7,-7,-6,-6
1501930199571896,-19,9,8,4,1,0,1,-14
1501930199584959,34,-4,7,4,0,0,8,-14
1501930199584959,-35,-1,5,6,3,2,6,7
1501930199592942,27,17,-2,-10,-3,1,35,-15
1501930199592942,-72,-5,9,1,-3,-1,1,-26
1501930199607938,52,0,-4,2,-3,0,12,5
1501930199607938,-15,-2,-40,-14,-4,-5,-21,-18
1501930199608910,-27,-3,13,7,0,-3,-28,16
1501930199608910,6,-1,-13,-7,-1,1,26,0
1501930199630961,1,6,27,3,-2,-2,-3,-3
1501930199630961,-22,-7,-1,6,0,1,5,-1
1501930199631900,-52,-12,1,-5,0,4,23,16
1501930199631900,37,-1,-19,1,-1,0,-25,-12
1501930199653920,-29,-14,-17,-4,0,-3,-21,-5
1501930199653920,23,1,7,1,-2,-2,-3,4
1501930199654901,-38,-1,-4,-5,0,-1,0,-8
1501930199654901,0,-7,14,1,2,2,9,13
1501930199667961,-60,7,-35,-10,0,-1,1,6
1501930199667961,-19,2,28,2,-2,-4,-16,-14
1501930199668929,-7,1,21,4,1,0,-3,2
1501930199668929,-11,-13,-52,-12,-3,-5,-8,4
1501930199690945,5,-4,12,3,-1,0,-2,-19
1501930199690945,75,-1,-14,2,1,-1,8,29
1501930199691912,-74,7,5,3,-1,-3,-14,-2
1501930199691912,15,0,9,-1,-3,-2,1,-8
1501930199721906,-7,5,-1,-5,-2,2,6,7
1501930199721906,6,-1,1,2,-3,-3,-5,-11
1501930199721906,63,2,0,4,1,0,3,3
1501930199721906,16,1,13,0,-1,-1,-12,24
1501930199727949,-12,-5,-16,-8,-5,-5,-11,10
1501930199727949,-46,2,17,4,-1,-1,-8,-13
1501930199728948,24,-4,-16,-12,-3,-4,-8,5
1501930199728948,30,-1,11,-2,0,-1,-2,-11
1501930199750905,34,2,-19,-2,-1,-1,-4,6
1501930199750905,-11,-4,-14,-2,0,1,7,26
1501930199751918,-9,-3,-23,-1,-3,-1,1,-19
1501930199751918,0,2,27,3,2,1,-9,8
1501930199773956,-7,-16,-6,-6,-3,0,-9,-7
1501930199773956,25,5,-27,-12,-2,0,-2,10
1501930199774931,42,-11,-1,5,-1,0,17,0
1501930199774931,-85,8,6,0,1,1,2,-12
1501930199787950,2,6,8,5,-1,1,13,8
1501930199787950,-36,-12,-8,-7,-2,-3,-8,-33
1501930199788908,18,-6,9,4,2,0,-14,16
1501930199788908,-52,-8,-24,-10,-3,-1,14,-1
1501930199810920,22,3,11,9,2,-4,5,-10
1501930199810920,-15,11,10,-1,1,-5,-10,7
1501930199811909,-11,5,-4,-4,-3,-1,-4,3
1501930199811909,8,-2,5,5,0,1,-2,-9
1501930199833951,-12,-3,-9,-1,1,1,-6,-12
1501930199833951,24,-13,-13,-6,-5,-3,-10,42
1501930199834911,60,0,-5,0,-1,1,9,-50
1501930199834911,-52,9,15,4,3,0,-16,0
1501930199847924,-1,-5,-2,1,0,0,17,-11
1501930199847924,-6,1,16,1,0,0,-2,-5
1501930199848936,2,-7,-17,3,-2,-1,-2,8
1501930199848936,59,-2,-12,-13,-4,-3,-3,19
1501930199870948,19,-11,28,-6,-3,-1,-30,-5
1501930199870948,-10,1,-34,1,-1,4,43,0
1501930199871914,-19,0,11,3,2,0,1,-2
1501930199871914,26,1,-5,8,3,1,9,-15
1501930199893952,-21,-15,-2,-6,-3,-2,-11,9
1501930199893952,-7,-2,14,2,-1,0,-1,-5
1501930199894915,-8,15,16,-2,1,0,0,-17
1501930199894915,-37,-24,-13,-5,-5,-5,-5,-7
1501930199907949,-11,9,9,-1,-3,1,6,-2
1501930199907949,-3,8,24,-3,-2,0,5,-10
1501930199908914,-6,-7,-12,-3,0,-2,-2,0
1501930199908914,17,-5,2,-5,-2,-3,-11,17
1501930199930959,-1,3,5,8,2,-1,0,-6
1501930199930959,-6,3,-13,-12,-3,-2,-7,0
1501930199931918,-44,-18,-5,-10,-6,-3,-4,1
1501930199931918,47,9,5,-4,-2,0,8,-3
1501930199953957,9,11,-7,9,1,-2,0,-38
1501930199953957,-8,-3,7,2,2,-1,1,14
1501930199954919,-10,-4,-1,-5,-2,-3,-12,-6
1501930199954919,-59,-2,24,-1,-2,0,4,18
1501930199967957,-23,8,-30,-9,-4,0,7,2
1501930199967957,2,7,20,16,1,0,-7,-18
1501930199968918,9,-3,-19,-7,0,-3,-18,2
1501930199968918,12,-5,10,-10,-3,-3,-4,-10
1501930199990919,-6,1,15,1,-1,2,8,19
1501930199990919,-7,-1,-5,-1,-1,-1,4,0
1501930199991927,-12,0,2,3,-2,-4,-12,-11
1501930199991927,25,3,-2,6,0,1,-2,16
1501930200013923,-2,-5,-27,-7,-3,-1,1,7
1501930200013923,19,-5,-6,-4,-4,-2,-4,4
1501930200014924,20,1,10,4,0,-3,-13,-3
1501930200014924,18,-8,-11,-1,-2,-5,-18,14
1501930200027929,8,-2,-3,-2,-2,-6,-11,-18
1501930200027929,-12,-3,1,1,-1,-6,-10,8
1501930200028923,5,-1,-4,-2,0,6,28,-5
1501930200028923,-8,-9,-4,1,-1,0,3,0
1501930200050930,-6,8,25,7,3,3,9,7
1501930200050930,-41,-7,-21,-7,-1,-1,-14,19
1501930200051928,-80,-10,-12,-9,-5,-4,10,-8
1501930200051928,2,0,-14,0,1,-2,-3,-10
1501930200073925,16,-10,10,3,-1,-1,8,-4
1501930200073925,1,-7,-20,-2,-5,-4,-3,-14
1501930200074931,52,10,35,-4,-2,-2,-2,27
1501930200074931,9,-3,-16,1,-2,1,4,-21
1501930200087925,-18,-2,-23,-6,-2,-3,-18,11
1501930200087925,13,-5,21,-1,-4,-2,2,-17
1501930200088926,3,2,-9,1,1,1,10,11
1501930200088926,12,0,-12,1,1,3,17,0
1501930200110926,-32,4,13,-3,-4,-4,-11,8
1501930200110926,20,-2,-16,-2,5,5,20,-6
1501930200111927,-6,2,2,2,-2,-3,-8,-3
1501930200111927,-17,2,8,-5,-4,-1,3,-13
1501930200133929,42,-1,-4,-1,-2,-1,8,18
1501930200133929,-11,-3,15,1,-1,-3,-9,1
1501930200134930,-1,1,-29,5,2,5,16,-11
1501930200134930,5,0,-5,-7,-1,0,-10,-3
1501930200147932,6,-4,5,-6,-3,0,5,1
1501930200147932,22,8,0,-5,0,2,7,-4
1501930200148932,-27,4,11,-1,2,0,-3,-30
1501930200148932,-24,3,-4,7,1,0,-5,9
1501930200170932,1,-5,5,1,-1,-2,7,-24
1501930200170932,-58,4,15,1,1,-2,-11,13
1501930200171930,80,13,-12,5,-1,0,2,-5
1501930200171930,18,-2,-11,-2,-1,-1,2,14
1501930200193940,1,3,8,2,-2,-3,-5,2
1501930200193940,10,3,16,1,-2,-1,-1,-19
1501930200194931,16,-6,-1,-5,-2,-3,-4,41
1501930200194931,-18,-1,-5,6,0,2,6,-3
1501930200207929,47,-6,-18,-11,-4,-1,-6,-11
1501930200207929,-24,-11,3,0,3,0,1,-12
1501930200215951,-31,-5,1,-1,0,2,8,3
1501930200215951,15,2,12,1,-2,-1,0,-15
1501930200231089,-5,-8,-9,2,-1,-3,-11,0
1501930200231089,27,7,-12,-2,-1,-3,-8,6
1501930200231931,-23,-4,23,2,2,2,-1,-4
1501930200231931,0,-1,-6,-3,-1,0,-6,3
1501930200253988,-13,2,2,1,-3,-3,-1,-6
1501930200253988,8,0,-10,1,-2,0,0,-10
1501930200254971,-24,1,2,-1,0,-2,-8,-5
1501930200254971,10,-4,-1,-1,-3,-4,-5,0
1501930200267995,-22,-1,0,-2,1,2,17,-6
1501930200267995,11,5,5,5,3,0,-4,-1
1501930200275954,-4,-8,-11,-3,-6,-2,-2,-7
1501930200275954,-5,2,7,0,2,2,5,0
1501930200290974,-10,-4,-13,-8,-3,1,2,5
1501930200290974,-1,0,-5,-1,-1,-1,3,0
1501930200291934,-3,-5,-1,-4,-1,-4,-5,-3
1501930200291934,-2,-1,-4,1,-2,-1,6,-4
1501930200313956,-3,2,5,5,3,1,-4,7
1501930200313956,3,-2,-7,-3,-2,-2,1,1
1501930200314956,-4,-2,-2,-5,-3,-3,-4,-2
1501930200314956,3,-2,-4,0,-3,-7,-7,1
1501930200327960,-1,-4,3,1,5,5,5,3
1501930200327960,-2,0,-4,-3,1,2,8,-1
1501930200335937,-3,1,0,1,-1,-2,-6,2
1501930200335937,-2,0,2,-2,-6,-3,-4,-3
1501930200350979,-2,0,0,0,3,-4,-3,0
1501930200350979,1,-1,4,6,-1,-2,0,-9
1501930200351944,-1,0,0,-8,8,1,1,0
1501930200351944,-1,-2,-7,-2,-11,0,-4,-4
1501930200373985,0,0,-5,-1,-2,-2,0,0
1501930200373985,2,0,0,-4,-2,-1,-2,2
1501930200374980,0,-1,2,5,-1,1,-1,-3
1501930200374980,-2,-1,4,1,6,1,3,-2
1501930200387942,-2,2,-2,-2,-5,-3,-7,4
1501930200387942,-2,-2,-3,1,2,1,8,-1
1501930200395986,-2,-1,-3,-3,-4,-3,-2,8
1501930200395986,2,0,-1,-1,1,-1,-6,-11
1501930200411959,-3,-3,-1,0,-1,-2,1,0
1501930200411959,0,-1,-2,-3,-2,-5,-15,8
1501930200412946,-5,-4,-2,1,-2,-1,7,-10
1501930200412946,1,-1,-3,-3,-1,2,9,4
1501930200433963,-1,-1,-1,-1,2,-1,-2,2
1501930200433963,-1,0,2,-1,-1,0,-2,-2
1501930200434963,-1,-1,-1,-2,-2,-2,-6,-1
1501930200434963,-1,-2,3,-2,1,2,2,2
1501930200447961,-1,-1,-3,1,-9,-3,-3,-2
1501930200447961,0,1,-1,-2,4,0,-1,-1
1501930200455971,2,2,2,6,3,2,0,-1
1501930200455971,-1,-1,-2,-4,-4,-6,-3,-1
1501930200470950,1,-1,-2,-3,-1,1,0,-1
1501930200470950,-2,0,-2,-2,-4,0,0,-1
1501930200470950,0,-1,0,1,-1,0,-6,-2
1501930200470950,-1,0,1,0,1,0,-2,0
1501930200493954,-1,-1,-1,-1,3,-1,0,1
1501930200493954,-2,-2,-3,-4,-5,-5,0,-3
1501930200494952,-2,-2,-2,-1,-3,-3,-2,-4
1501930200494952,-2,-2,1,1,-1,-1,-8,1
1501930200507955,-1,1,0,-1,0,2,5,0
1501930200507955,1,0,2,1,2,3,7,-8
1501930200515987,-1,-1,0,-1,-1,-2,-1,-1
1501930200515987,0,0,0,1,-1,-2,-2,1
1501930200530992,-1,-1,-2,-1,4,-1,-1,-2
1501930200530992,-1,-2,-2,-5,-11,-2,-3,1
1501930200531954,-2,-1,1,0,2,-3,-3,-1
1501930200531954,-1,-1,-3,0,1,3,4,-1
1501930200554008,-2,-3,-2,-3,0,2,-6,0
1501930200554008,0,0,-1,-2,-2,-2,7,0
1501930200554986,0,-2,-1,-1,-2,4,-2,4
1501930200554986,1,0,1,2,1,2,3,5
1501930200576000,-1,-3,-2,-3,0,-1,-2,-2
1501930200576000,-1,-1,0,-2,1,1,1,1
1501930200576953,-2,-1,-2,-2,-3,-5,-5,-4
1501930200576953,-1,-1,2,0,-2,-1,-2,0
1501930200590990,-1,-2,-2,-1,-2,-3,-2,0
1501930200590990,-2,-2,-2,-1,1,-1,-7,1
1501930200590990,-1,0,1,0,-1,0,8,-9
1501930200590990,-1,-1,-1,-1,-1,-4,-4,-1
1501930200613962,-1,0,5,0,0,-1,4,0
1501930200613962,0,-1,0,-3,-3,-1,-5,1
1501930200614992,0,-2,-3,2,-1,-3,-3,-1
1501930200614992,-1,-3,-5,-12,-5,-2,-4,-1
1501930200635973,-4,-2,-3,6,0,-2,1,-3
1501930200635973,2,1,0,4,3,4,3,-1
1501930200636968,0,-2,5,-5,-5,3,0,1
1501930200636968,0,0,-1,6,-1,0,-1,-1
1501930200650955,-1,-2,-1,-5,-7,-4,-7,0
1501930200650955,-2,-3,-16,1,0,-6,-3,-2
1501930200650955,-2,-1,6,0,-1,2,-3,-3
1501930200650955,0,1,3,3,1,0,0,-1
1501930200674010,0,0,-5,-8,-3,1,1,2
1501930200674010,0,-1,1,0,0,0,0,0
1501930200674993,-1,-2,-6,-2,0,-2,0,-1
1501930200674993,0,-2,1,-2,-3,-1,-2,-1
1501930200696013,1,1,0,1,-1,-1,1,-2
1501930200696013,0,-1,1,-4,-1,-1,-2,0
1501930200696958,-1,-1,-1,-3,-2,-2,-2,0
1501930200696958,-2,0,0,3,1,-2,-3,0
1501930200710962,0,-1,-1,1,-3,-3,0,-1
1501930200710962,-2,-1,1,-3,0,0,-1,-3
1501930200711968,-1,0,-3,1,-1,-1,0,0
1501930200711968,-1,-2,-4,-1,-4,-1,-1,0
1501930200733996,-2,-1,0,-1,3,1,2,-1
1501930200733996,-2,-2,0,-7,-4,-3,-3,-1
1501930200734997,-1,1,-2,3,7,0,-1,-1
1501930200734997,-1,-3,-3,0,-2,-1,1,-1
1501930200756019,1,-2,-2,-7,2,-1,-1,-1
1501930200756019,-2,0,-1,1,-3,1,-1,-3
1501930200756987,-1,0,1,4,-1,-3,0,-1
1501930200756987,-1,-2,-2,15,4,-3,-2,-3
1501930200770978,0,-3,0,-2,1,3,-1,-1
1501930200770978,1,1,6,-8,9,-3,-1,1
1501930200770978,-2,-3,-5,-2,5,5,0,0
1501930200770978,0,-2,-5,-6,-3,0,0,0
1501930200793970,-1,3,9,11,1,-4,-1,-1
1501930200793970,0,-3,-14,-2,-5,-3,-3,-2
1501930200795023,-1,-2,1,0,-1,-1,1,-1
1501930200795023,-1,0,-5,0,9,-1,-2,0
1501930200816028,1,-3,-5,0,-8,2,0,-1
1501930200816028,-2,3,15,-6,-8,-1,0,-1
1501930200816965,0,-3,-3,-5,-10,-2,0,0
1501930200816965,1,-1,-1,-5,-2,0,0,-1
1501930200830968,-2,-2,-1,-1,3,-4,-1,-1
1501930200830968,-1,-2,6,5,2,-1,-3,-2
1501930200830968,-1,-1,-2,-2,-1,-2,-2,-1
1501930200830968,2,0,2,-6,-7,0,-1,4
