timestamp,emg1,emg2,emg3,emg4,emg5,emg6,emg7,emg8
1501932395458540,25,-4,-2,-13,-10,9,80,22
1501932395458540,-13,-7,10,26,6,-6,-40,-66
1501932395459481,76,24,16,21,7,7,-37,-24
1501932395459481,-50,-21,-13,15,-2,8,43,87
1501932395459481,7,-11,-12,7,10,-7,-62,59
1501932395459481,48,0,24,0,-11,-17,-66,-53
1501932395460484,11,4,10,-10,11,11,54,79
1501932395460484,-1,-5,21,23,-2,15,61,-31
1501932395463542,-4,15,-1,-29,-4,-5,-31,-22
1501932395463542,99,10,-20,-9,4,35,89,-29
1501932395470540,-110,11,3,3,-2,-14,-64,-72
1501932395470540,11,4,-6,7,-6,-13,-39,-33
1501932395478483,10,2,9,17,8,12,-16,-34
1501932395478483,-19,3,-3,9,2,-7,-13,4
1501932395486495,8,-8,3,4,-3,1,4,-48
1501932395486495,37,7,-13,-51,-6,-9,-43,-16
1501932395500542,-1,5,19,25,9,16,50,-88
1501932395500542,-25,1,-7,-40,-17,-11,9,52
1501932395516495,38,-11,-17,31,-8,-4,-42,-66
1501932395516495,-14,-8,-3,-22,-2,-14,0,-26
1501932395516495,-9,-9,1,25,1,2,-2,59
1501932395516495,-26,9,3,14,9,-1,6,-5
1501932395562489,4,3,4,9,-7,0,-55,-21
1501932395562489,12,-4,-5,17,6,14,50,57
1501932395562489,-31,7,-3,13,0,4,-21,-4
1501932395562489,-23,-4,4,21,6,-5,-36,37
1501932395563488,96,-4,19,-8,9,7,11,44
1501932395563488,5,-10,-5,6,-10,-19,-39,17
1501932395567499,41,-9,-14,-7,-10,-17,-71,-87
1501932395567499,-22,7,12,8,12,29,61,58
1501932395575499,-16,-13,-14,1,-1,-14,-30,-29
1501932395575499,-39,-22,-3,7,-3,-2,-31,-13
1501932395584480,17,9,14,-25,-4,-4,30,26
1501932395584480,-8,0,-33,-25,-11,-10,6,-9
1501932395590500,-26,3,8,-3,-7,0,-15,3
1501932395590500,19,3,-9,-5,0,1,4,-57
1501932395606495,-50,-7,1,-2,10,6,11,-9
1501932395606495,25,-2,5,52,3,-14,-37,-67
1501932395612527,-10,9,7,-51,-13,9,46,17
1501932395612527,-6,-3,2,-40,-7,-11,-49,-42
1501932395635553,23,1,-24,-11,-7,2,24,52
1501932395635553,4,-1,1,16,-4,-3,-7,-22
1501932395636518,38,-14,-27,-21,-1,-5,23,14
1501932395636518,4,12,12,4,5,5,13,32
1501932395650546,0,-3,4,5,0,-9,-53,51
1501932395650546,21,-2,2,6,-2,-7,25,-16
1501932395651495,-29,4,1,13,-2,2,-17,-22
1501932395651495,-12,-4,-1,5,7,18,30,78
1501932395673492,13,0,5,8,-2,1,0,-33
1501932395673492,-45,0,-8,-27,-8,0,-2,19
1501932395673492,9,7,6,18,1,-1,15,3
1501932395673492,-15,11,-1,-5,4,-7,-8,-12
1501932395695494,-16,-8,-1,11,3,2,-1,-37
1501932395695494,27,7,4,-16,-3,8,0,-13
1501932395696504,-5,7,-4,5,0,-3,22,-28
1501932395696504,10,4,4,32,5,-5,-1,-25
1501932395710549,-10,-5,-2,-31,-6,0,19,18
1501932395710549,19,5,3,-6,0,-2,6,42
1501932395711500,16,-11,-3,4,0,-9,-68,84
1501932395711500,96,6,14,8,2,8,40,-24
1501932395733549,3,7,7,24,13,11,73,-16
1501932395733549,22,-9,-22,-26,-20,-8,-15,31
1501932395733549,-20,-3,-9,-13,-9,-3,-3,25
1501932395733549,-2,-3,1,-15,-4,-9,-16,-10
1501932395755526,-1,9,8,18,7,6,18,35
1501932395755526,-22,-10,5,4,6,3,-13,-13
1501932395756502,-23,-3,-1,19,6,4,15,-9
1501932395756502,-15,4,1,9,-1,1,-12,-51
1501932395770555,-11,-15,-8,-15,-8,-1,-20,34
1501932395770555,3,4,6,-1,0,-7,-27,-14
1501932395771527,-74,-6,9,26,8,8,12,-8
1501932395771527,11,2,-6,-21,-8,-5,-13,17
1501932395793562,-11,-8,6,15,6,4,37,8
1501932395793562,-23,-4,-11,-31,-7,1,7,-101
1501932395793562,15,-11,-5,4,-5,-13,-1,45
1501932395793562,-8,10,0,12,3,0,-40,-43
1501932395815532,36,-3,0,5,-6,-6,-11,18
1501932395815532,-1,1,12,-13,6,5,28,2
1501932395816494,-8,0,-3,30,11,1,26,-9
1501932395816494,-17,-8,-17,-71,-20,-2,-4,3
1501932395830499,0,-4,-4,10,-5,-8,-46,20
1501932395830499,-34,4,3,-11,8,-5,-29,10
1501932395831495,29,3,4,42,6,9,20,-56
1501932395831495,21,2,1,10,6,6,33,80
1501932395853537,-39,1,0,5,-5,-4,-15,-64
1501932395853537,-35,1,8,21,4,5,8,81
1501932395853537,-4,4,-2,-16,-1,-3,-7,-26
1501932395853537,-55,-7,5,25,4,-1,10,39
1501932395875544,21,6,3,-13,0,4,-9,-33
1501932395875544,18,-2,-2,11,1,7,12,-19
1501932395876497,-26,-2,-2,-10,-4,-6,-26,57
1501932395876497,2,-5,-3,-3,-7,-4,4,6
1501932395890566,-6,2,4,-14,-1,1,43,59
1501932395890566,22,-2,1,10,-2,-5,13,-22
1501932395891509,-6,-1,-15,-10,-8,-4,-1,-4
1501932395891509,-16,4,0,14,4,5,2,-3
1501932395913568,-8,8,0,-30,-7,-6,-7,-13
1501932395913568,-21,-7,-6,-10,0,-1,34,91
1501932395913568,-3,1,4,14,-2,1,16,-33
1501932395913568,16,-8,-4,-29,2,3,14,-5
1501932395935562,-18,-3,-3,32,4,1,18,-5
1501932395935562,4,-2,-4,-31,-11,-8,-35,-32
1501932395936538,19,6,2,-10,1,-2,-12,-76
1501932395936538,-16,-2,1,-1,-3,-1,1,-9
1501932395950524,-7,-3,3,19,6,5,-22,-10
1501932395950524,9,-3,5,2,3,-4,30,26
1501932395957542,13,3,-9,19,-1,1,8,-43
1501932395957542,-1,-11,-7,-30,-9,-7,-10,19
1501932395973549,15,4,3,1,5,2,-9,-54
1501932395973549,-16,-3,-6,-12,-6,1,-21,32
1501932395973549,27,5,6,-5,2,-3,4,-22
1501932395973549,9,-1,-3,24,3,-6,-2,9
1501932395995574,-7,-5,-5,-32,-9,-2,16,5
1501932395995574,17,-7,-5,29,2,0,14,-23
1501932395996538,9,1,-1,-21,-1,1,-9,20
1501932395996538,-3,-1,1,15,3,-2,-24,-63
1501932396010530,14,0,-5,5,-4,-12,-42,-20
1501932396010530,-17,-2,4,13,3,10,21,26
1501932396017505,42,-7,2,-19,2,4,-7,72
1501932396017505,3,13,0,-7,-7,0,-21,-62
1501932396033554,-15,11,-11,10,-1,-6,-15,-21
1501932396033554,23,0,8,3,-1,3,2,24
1501932396033554,-23,-11,-8,-6,0,8,47,57
1501932396033554,-34,4,5,9,3,3,25,40
1501932396055551,-6,-2,-2,-18,0,7,64,48
1501932396055551,-17,1,2,50,4,-11,-57,-125
1501932396056518,-12,-6,-2,-56,-14,-3,18,11
1501932396056518,-83,6,9,16,7,5,2,-30
1501932396069548,6,5,-3,-12,-6,-3,0,-25
1501932396069548,3,3,1,-4,-3,-4,-12,28
1501932396077552,-54,-1,3,10,5,-1,20,5
1501932396077552,13,-9,-8,14,-1,1,44,-20
1501932396093554,27,6,9,-13,0,0,-7,-47
1501932396093554,-58,-16,-13,-14,-7,-6,-13,-15
1501932396093554,33,8,-4,1,0,1,-10,41
1501932396093554,-13,1,2,2,1,-2,13,17
1501932396115552,35,-7,-3,19,3,1,-19,55
1501932396115552,29,-1,5,-11,-4,-4,0,-32
1501932396116547,0,-17,-4,-2,-11,-11,-24,-30
1501932396116547,33,14,12,-6,4,0,-4,4
1501932396130540,-50,-18,-36,-14,-13,-8,2,-29
1501932396130540,-12,6,3,-5,4,7,-7,-25
1501932396137552,26,12,7,11,-2,0,-24,-41
1501932396137552,29,11,6,0,-3,-2,7,17
1501932396153578,33,-17,3,5,-2,-1,-5,0
1501932396153578,37,3,0,21,9,10,19,29
1501932396153578,18,15,4,-16,5,-4,-19,-83
1501932396153578,28,-12,-5,-6,-7,4,15,-11
1501932396175555,-8,-4,-4,-2,4,3,-12,21
1501932396175555,16,-18,-3,-10,-6,-9,-7,26
1501932396176549,-9,-8,8,24,12,8,4,35
1501932396176549,-12,-14,0,3,1,-1,-3,-31
1501932396189557,35,16,-1,-4,-1,-4,-8,-70
1501932396189557,21,-6,-39,-21,-8,-2,0,62
1501932396197517,65,-5,-8,-42,-21,-11,-11,-13
1501932396197517,-60,-10,-6,-10,-4,-2,-13,3
1501932396213578,-20,-1,14,15,4,4,-13,-64
1501932396213578,19,16,9,18,3,-2,3,32
1501932396213578,-35,-10,-4,-3,1,5,7,34
1501932396213578,16,8,-8,-19,-5,-7,-32,-35
1501932396235560,20,-4,-2,2,-3,-3,19,105
1501932396235560,86,30,3,-12,-3,-5,-26,-113
1501932396236552,-3,-1,0,12,3,1,-5,-85
1501932396236552,-48,-10,-4,15,2,-5,-3,12
1501932396250550,-66,-3,-3,-8,-3,7,26,113
1501932396250550,-31,-2,5,-19,-5,-7,-15,28
1501932396257582,-55,-3,2,11,1,1,35,-44
1501932396257582,38,2,1,6,4,5,-2,43
1501932396273593,-16,8,7,19,5,-4,-31,-113
1501932396273593,-25,11,-1,-26,-8,0,-9,-39
1501932396273593,-27,1,-7,16,0,0,0,13
1501932396273593,-2,-8,-4,-37,-7,-2,-6,39
1501932396295563,7,-3,8,9,2,-1,9,17
1501932396295563,18,-6,16,12,2,2,9,17
1501932396296536,-46,2,-10,-15,0,-8,-20,14
1501932396296536,36,-8,-14,8,-6,-4,-11,-17
1501932396318579,-4,-6,-3,14,1,5,-22,81
1501932396318579,-20,-25,-17,-16,-5,5,57,22
1501932396318579,11,16,12,2,-2,-3,-24,106
1501932396318579,-9,-5,3,26,2,-2,1,1
1501932396333563,30,3,-4,-40,-8,-3,-14,-16
1501932396333563,-22,-11,5,22,6,-7,-21,-31
1501932396333563,85,-2,-3,-5,-2,0,-12,46
1501932396333563,28,4,0,2,1,-2,-14,-58
1501932396355567,-17,19,6,-2,-2,-6,1,-82
1501932396355567,16,2,7,4,4,2,-27,-54
1501932396356538,-13,-2,0,-6,-4,-3,20,-22
1501932396356538,17,2,-1,5,-2,-6,-2,-12
1501932396378552,4,-14,3,4,0,2,34,-9
1501932396378552,43,-16,-10,-13,-4,1,11,78
1501932396378552,-39,14,-3,27,10,5,-10,36
1501932396378552,-15,-4,0,-47,-12,-4,12,-10
1501932396393553,32,-5,0,9,-1,-4,-2,-98
1501932396393553,-29,1,-14,-10,-7,-6,7,-9
1501932396393553,-20,-10,3,6,0,-2,1,-10
1501932396393553,-7,13,4,44,12,5,-2,21
1501932396415566,21,-13,-18,-52,-15,-2,25,35
1501932396415566,-21,11,12,22,8,5,9,-15
1501932396416541,15,-6,-1,-2,0,2,8,14
1501932396416541,35,-1,-4,7,1,-3,10,9
1501932396438579,34,2,-13,-2,-2,-9,-23,-67
1501932396438579,-27,-1,0,-5,-2,-4,-1,-8
1501932396438579,-41,-9,0,1,0,7,19,6
1501932396438579,-46,0,0,0,1,1,-1,60
1501932396453579,13,5,10,16,7,2,-11,-4
1501932396453579,-14,2,-4,-15,-7,0,-6,-31
1501932396453579,-4,2,5,2,2,-2,-22,-22
1501932396453579,31,-5,-9,-15,-3,1,7,-59
1501932396477532,-16,0,-7,14,0,-2,5,51
1501932396477532,-32,2,-12,-13,-3,0,-7,-83
1501932396477532,33,0,3,7,1,-5,-2,-65
1501932396477532,40,-6,-8,-25,-10,-6,-20,-8
1501932396498543,-45,-10,4,12,0,0,-3,32
1501932396498543,1,-5,4,4,2,4,6,47
1501932396498543,-5,-10,-4,-11,-1,-3,-1,15
1501932396498543,-3,-4,1,7,2,-6,-7,6
1501932396513552,-4,6,-2,-7,1,3,-10,18
1501932396513552,2,-4,5,16,3,-4,0,28
1501932396513552,6,-2,-4,-7,-6,-2,-12,-64
1501932396513552,-14,1,5,-2,-1,-3,4,12
1501932396534575,-18,-7,1,-4,1,7,38,1
1501932396534575,15,2,6,11,3,-3,-11,-43
1501932396543608,6,12,-4,-8,-3,-4,-16,46
1501932396543608,35,-3,7,14,0,4,22,-84
1501932396558555,-18,11,-5,-2,-4,-3,14,8
1501932396558555,-7,-2,-3,-14,0,0,5,3
1501932396558555,-5,-5,-3,-2,-1,-3,7,25
1501932396558555,-16,1,1,12,3,1,-23,24
1501932396580580,-5,-1,1,-22,-8,-5,-24,1
1501932396580580,-5,-19,-1,4,0,-1,7,70
1501932396581539,-18,14,3,-7,-2,4,-10,-52
1501932396581539,-14,0,1,7,-2,-3,30,70
1501932396594602,-10,-14,-4,7,3,-3,-15,-36
1501932396594602,33,7,-2,-9,-1,-5,-3,-3
1501932396603568,-23,-10,-5,-6,-1,2,-1,-7
1501932396603568,-11,-2,-4,-2,0,2,-5,13
1501932396618553,40,8,3,-11,-3,-1,-13,-7
1501932396618553,6,-8,-17,-34,-7,-3,1,-18
1501932396618553,6,-11,6,7,-2,4,37,35
1501932396618553,46,7,-7,6,2,-3,-32,-120
1501932396640583,-14,-1,0,-3,-4,-5,0,-5
1501932396640583,-18,2,-5,11,2,5,-8,-26
1501932396641554,7,1,-1,-7,-4,0,-9,-19
1501932396641554,-25,-6,1,-17,-2,4,31,36
1501932396654611,0,-2,0,12,0,-8,-18,1
1501932396654611,-6,-3,10,8,5,11,18,-1
1501932396663609,2,-3,-6,-2,-6,-10,-29,-28
1501932396663609,-18,-2,-2,15,3,3,1,49
1501932396678555,16,-7,1,-30,-3,3,-1,-44
1501932396678555,5,8,-4,7,1,-1,10,-6
1501932396678555,-27,4,1,7,4,-8,8,-5
1501932396678555,16,-10,-11,-31,-12,-4,-6,-26
1501932396700601,27,15,6,15,6,4,-11,21
1501932396700601,-6,-9,-4,-13,-1,-1,11,13
1501932396701558,-1,5,14,22,5,3,7,-11
1501932396701558,-20,-7,-2,-4,0,-5,-18,-2
1501932396714576,-3,-11,-17,8,-4,-2,5,40
1501932396714576,8,9,1,6,-4,-5,-14,33
1501932396723604,8,2,-7,-18,-11,-2,-6,6
1501932396723604,-8,1,1,-10,0,-2,-3,1
1501932396738547,-6,0,14,1,5,4,2,4
1501932396738547,-1,2,-6,21,0,-4,-20,-18
1501932396739548,24,-7,-10,-4,-1,-3,2,3
1501932396739548,-26,5,4,3,-2,1,-4,-23
1501932396760586,-18,-4,6,1,0,1,3,-9
1501932396760586,-3,-2,-4,-7,-2,-3,-7,-5
1501932396761566,11,1,3,-8,-2,0,16,-29
1501932396761566,27,1,-4,-8,-5,-10,-19,-90
1501932396775568,6,3,10,16,2,-3,-20,40
1501932396775568,7,-4,16,11,5,1,7,5
1501932396783560,1,-7,-17,-8,-2,2,-9,25
1501932396783560,-1,-4,-13,-11,-4,-1,1,30
1501932396798561,6,0,-2,2,0,-3,25,-20
1501932396798561,1,4,9,0,-4,-3,3,4
1501932396798561,-23,-1,-7,-5,1,-1,-21,-71
1501932396798561,-1,4,4,1,-2,-5,-12,48
1501932396820593,-6,2,-4,-5,0,-1,-12,21
1501932396820593,-2,-7,-4,-7,-5,-3,2,8
1501932396821589,33,-4,3,12,7,3,8,17
1501932396821589,-34,-1,7,2,-7,-5,-20,-1
1501932396843625,-19,-15,-14,-27,-10,-9,3,-13
1501932396843625,9,-5,-14,-11,-1,5,9,-48
1501932396844567,17,6,9,4,2,-3,-5,21
1501932396844567,6,-1,-2,6,2,4,20,0
1501932396858569,-13,-1,-3,5,7,2,-15,17
1501932396858569,1,8,8,3,-9,-2,-13,-38
1501932396858569,2,-6,-4,-4,0,1,8,28
1501932396858569,-2,0,0,0,-1,-2,-5,15
1501932396880620,-5,1,9,11,-3,3,6,-2
1501932396880620,-13,-2,-9,-2,4,1,-4,2
1501932396881564,-28,-4,-1,8,-5,-10,1,81
1501932396881564,-7,-1,0,8,2,5,3,3
1501932396903628,3,1,-2,17,6,5,5,24
1501932396903628,3,0,5,-34,-5,-4,-11,-21
1501932396904570,-28,-5,-7,-8,-3,-1,-2,-66
1501932396904570,6,-3,2,6,2,0,-4,0
1501932396918578,-4,1,-8,-1,-6,-2,-13,-20
1501932396918578,-18,1,3,9,4,1,10,-4
1501932396918578,10,8,6,9,2,6,27,-1
1501932396918578,7,-8,-5,-22,-7,-6,-6,-56
1501932396940625,11,2,5,11,3,0,13,-48
1501932396940625,12,-1,-10,2,-2,-2,-4,50
1501932396941570,23,17,9,-5,-1,-2,-17,-52
1501932396941570,-7,-4,1,7,5,13,17,20
1501932396963600,-6,4,8,-4,-5,-6,3,18
1501932396963600,13,-1,-8,-7,-3,-8,-17,-45
1501932396964561,-23,-10,-4,-8,-5,-2,-11,-9
1501932396964561,-6,0,5,4,1,2,-12,44
1501932396978630,12,-3,2,0,4,2,15,-2
1501932396978630,-18,4,4,31,5,6,11,1
1501932396979572,-4,-3,-8,-30,-5,-7,-7,3
1501932396979572,-60,-11,0,9,3,-2,-1,1
1501932397000604,51,7,-7,-6,-1,1,0,18
1501932397000604,10,-3,-1,-6,-1,4,-3,7
1501932397001577,6,0,9,18,5,2,14,-12
1501932397001577,13,2,-12,-13,-7,-4,15,-15
1501932397023625,-32,-3,-5,10,3,-4,0,-25
1501932397023625,-4,0,4,7,4,3,-11,41
1501932397024579,3,-2,3,-4,-8,2,-5,-2
1501932397024579,13,9,5,-3,-3,0,8,66
1501932397038581,-2,-6,-9,-15,-2,-4,-9,0
1501932397038581,11,2,7,8,-1,-5,3,-11
1501932397038581,9,-8,-5,4,5,-1,20,40
1501932397038581,3,-5,-4,-8,-4,-6,-35,-20
1501932397060609,-3,-4,-2,-1,-2,2,3,12
1501932397060609,-10,-2,0,-5,-3,-2,-4,3
1501932397061577,-4,-4,-3,2,3,5,-1,73
1501932397061577,19,-6,-10,6,-7,-7,9,-26
1501932397083566,10,-1,-10,-19,-7,-4,-2,52
1501932397083566,-8,-9,0,-5,-1,-2,-4,-34
1501932397084576,-14,3,8,-4,-2,-4,-5,-5
1501932397084576,51,4,-2,20,6,7,-2,-17
1501932397098581,-23,-6,-17,-33,-9,-6,-11,-11
1501932397098581,-26,-5,-9,-6,-2,0,20,17
1501932397098581,-15,-3,-4,5,-1,-6,-15,-10
1501932397098581,1,4,13,-2,0,2,-7,6
1501932397120613,-6,-3,-1,3,3,2,4,-17
1501932397120613,21,1,-5,-2,-5,1,-1,67
1501932397121570,-11,-6,-1,2,-2,-5,-25,-35
1501932397121570,-11,3,5,0,4,1,8,-7
1501932397143618,11,1,-1,21,2,-2,-8,-13
1501932397143618,-20,-3,6,-13,-6,-4,-7,2
1501932397144585,-17,-5,-21,-7,-2,-4,-1,-14
1501932397144585,5,-6,-1,4,0,-1,-8,-12
1501932397158592,-4,2,13,-16,-9,4,5,-20
1501932397158592,4,2,-15,-11,-5,-6,-7,-24
1501932397158592,2,-3,-1,-2,-1,1,1,3
1501932397158592,0,-4,-16,-4,-6,-6,0,-27
1501932397180620,-23,1,5,14,4,2,0,-2
1501932397180620,8,-1,-3,-8,-1,2,13,1
1501932397181574,-4,-2,3,4,0,0,4,-14
1501932397181574,-8,1,1,-5,1,2,6,21
1501932397203612,-13,-4,0,7,0,-5,-13,40
1501932397203612,5,3,-3,8,7,4,4,-9
1501932397204595,-21,4,2,-16,-8,0,6,8
1501932397204595,-18,-2,7,-3,3,2,9,-5
1501932397218591,8,-5,8,2,-1,-1,1,-21
1501932397218591,-9,-4,7,18,-5,-5,6,-19
1501932397218591,3,0,-17,-12,0,5,6,13
1501932397218591,-1,1,2,-4,-3,-3,-19,31
1501932397240643,-6,-2,-16,-12,-5,-6,2,-35
1501932397240643,-2,-6,-1,9,5,0,-1,10
1501932397241589,13,5,2,0,-3,-1,-5,-26
1501932397241589,-20,-12,-6,-11,-3,-6,-22,-41
1501932397263600,11,3,-8,6,2,1,3,20
1501932397263600,-3,0,3,4,0,-1,-8,-19
1501932397264578,8,-4,-1,0,-4,-1,6,10
1501932397264578,1,2,-2,-17,-9,2,-9,24
1501932397278596,-15,-1,8,6,2,-2,24,-15
1501932397278596,9,-1,3,-7,1,-2,-3,-17
1501932397278596,-8,-1,6,19,4,-1,-9,20
1501932397278596,2,7,6,21,8,4,15,15
1501932397300623,11,-2,-13,-18,-10,0,-17,-10
1501932397300623,-12,0,2,-1,-4,-1,4,3
1501932397301595,7,-1,-6,-8,-3,-4,3,-5
1501932397301595,1,-3,-4,-3,-2,-1,12,21
1501932397323620,22,7,14,13,9,5,4,-4
1501932397323620,9,-3,-4,-7,-2,-5,-17,-14
1501932397324587,10,1,1,-2,4,3,2,-24
1501932397324587,3,2,-4,-5,-2,-4,-1,-15
1501932397338597,-2,-12,-2,1,-1,-5,-5,-2
1501932397338597,-9,3,0,12,1,0,1,-9
1501932397338597,10,5,10,-16,2,0,-5,4
1501932397338597,-1,-7,-21,-8,-6,-4,4,13
1501932397360615,-6,-7,6,2,-1,-7,-15,-27
1501932397360615,3,8,7,-5,-1,4,16,15
1501932397361584,-10,-6,-14,-3,-3,-3,-2,2
1501932397361584,-4,1,7,8,2,0,9,-2
1501932397383624,2,2,3,3,-1,5,2,36
1501932397383624,-11,-6,-2,11,-2,-3,-7,-1
1501932397384617,10,4,3,-2,1,-2,-2,-7
1501932397384617,-6,3,-9,-22,-8,0,0,-13
1501932397398597,-13,0,-2,6,-1,0,-3,8
1501932397398597,12,2,3,-7,-2,-8,-12,-52
1501932397398597,-4,-4,2,16,1,-1,5,3
1501932397398597,-6,-2,0,-3,1,4,-5,5
1501932397420632,-19,-5,-4,-9,0,-1,-6,-11
1501932397420632,14,10,1,4,0,3,10,27
1501932397421599,4,-3,-1,1,-2,-3,-3,-16
1501932397421599,-1,1,7,1,0,-6,2,-8
1501932397443656,1,-11,-23,-17,-10,-4,-5,6
1501932397443656,-8,-1,1,-1,5,3,-6,4
1501932397444595,2,0,2,7,1,5,16,31
1501932397444595,-11,6,13,6,8,5,4,-18
1501932397457649,-1,6,8,9,-1,-2,-5,-2
1501932397457649,-7,-3,-7,-8,-8,-6,-9,9
1501932397465630,0,-3,2,6,0,-4,6,-13
1501932397465630,-9,1,2,-2,-8,6,7,-16
1501932397480637,-5,-8,-9,-1,1,-1,-3,-2
1501932397480637,-5,-4,-9,-13,-4,2,-1,1
1501932397481601,-46,3,2,10,4,4,5,-8
1501932397481601,51,10,13,7,2,-2,4,23
1501932397503655,0,0,2,4,1,-3,-1,-1
1501932397503655,4,-1,-8,-16,-4,-2,-2,-5
1501932397504606,4,-4,-13,-10,-5,-3,-11,-8
1501932397504606,-10,-1,2,23,6,-1,-4,5
1501932397517633,4,4,12,-28,-2,4,5,1
1501932397517633,6,-1,9,11,4,2,-1,-1
1501932397525631,-1,-5,-10,-9,-1,-5,-11,12
1501932397525631,-8,-9,-9,-13,-7,-6,-2,-12
1501932397540631,-1,5,2,15,2,-1,-5,-7
1501932397540631,-13,-4,-6,-1,2,5,6,10
1501932397541609,-11,1,3,-11,-4,0,-1,-17
1501932397541609,4,-4,-9,2,1,-8,-11,4
1501932397563637,1,2,-3,-1,-3,-3,3,-3
1501932397563637,-5,1,0,-2,-1,-5,-8,-10
1501932397564594,13,3,12,15,3,4,15,-6
1501932397564594,2,-2,5,-2,1,-2,-3,-4
1501932397577667,-14,-5,-13,-15,-7,-3,7,12
1501932397577667,-1,1,-3,-5,0,-1,-7,-2
1501932397585595,24,7,2,2,-1,2,11,12
1501932397585595,-9,-5,-6,0,0,-2,-10,12
1501932397600630,4,0,4,-11,4,-1,6,0
1501932397600630,-4,-2,3,10,1,1,-1,-20
1501932397601598,-4,3,1,0,0,2,-7,-6
1501932397601598,8,4,5,1,0,-1,-3,1
1501932397623639,1,0,-3,13,3,-1,-2,-4
1501932397623639,-9,-10,-15,-11,-7,-8,-4,-2
1501932397624617,-4,-3,3,-3,-3,-4,-12,-8
1501932397624617,-7,-5,-10,6,2,-2,-4,-2
1501932397646641,21,9,16,9,1,3,-8,4
1501932397646641,1,5,-5,-9,0,-1,14,17
1501932397646641,5,-6,-15,-10,-6,-2,-14,-26
1501932397646641,2,-2,1,19,1,3,1,5
1501932397660666,-3,-1,-8,-23,-5,-2,7,-6
1501932397660666,-3,-1,8,-3,-3,2,-24,15
1501932397661612,-3,-7,-10,4,-2,-8,-2,-8
1501932397661612,-1,1,5,-2,-3,-2,19,15
1501932397683669,2,2,5,19,0,-4,-7,-8
1501932397683669,5,4,4,-4,-1,-4,-7,19
1501932397684632,-15,-8,4,-1,1,4,18,8
1501932397684632,13,-3,2,-4,1,-2,-2,-4
1501932397697642,-4,-4,-7,-6,-3,-5,-25,-3
1501932397697642,0,-4,4,12,-1,1,10,-10
1501932397705645,4,-2,-13,-16,-6,-6,-10,-2
1501932397705645,-13,-4,1,-4,0,2,16,-3
1501932397720664,2,2,-1,1,6,7,-9,-13
1501932397720664,-3,-5,-4,-10,-9,-14,-26,12
1501932397721617,2,1,-2,3,2,-3,-6,7
1501932397721617,-2,1,11,22,1,-1,-15,-15
1501932397743638,-8,-3,-6,-18,3,7,36,3
1501932397743638,0,1,-4,1,-3,-8,-11,-11
1501932397744606,2,0,10,9,-2,1,0,17
1501932397744606,0,-2,-8,3,-4,-4,-7,3
1501932397766614,-1,0,6,-15,1,3,17,12
1501932397766614,-1,4,-2,5,2,5,-2,0
1501932397766614,4,-7,3,-18,-3,-2,20,-8
1501932397766614,-1,5,-3,-12,-2,-1,1,-10
1501932397780640,-1,-1,3,17,-2,3,-11,0
1501932397780640,-2,-4,-11,-6,2,0,2,-1
1501932397781610,0,1,-2,7,1,0,0,5
1501932397781610,-6,-3,-10,-10,-9,-11,-22,4
1501932397803609,1,0,2,9,2,1,5,-8
1501932397803609,2,0,6,9,-2,0,6,-21
1501932397804610,4,1,-9,-20,-4,-2,-17,-7
1501932397804610,-8,-6,-5,-12,-4,-2,-6,-14
1501932397826619,-10,-3,-3,1,-3,-6,-7,-1
1501932397826619,2,3,2,10,2,6,17,-13
1501932397826619,2,-5,8,17,5,-2,-25,-6
1501932397826619,2,4,-3,-2,0,3,13,9
1501932397840620,-3,-4,2,-15,-15,-4,1,0
1501932397840620,-2,-4,-7,-4,4,-1,10,5
1501932397841613,-4,6,6,5,1,-1,14,-6
1501932397841613,1,-4,-6,-4,-2,2,1,1
1501932397863682,1,1,2,24,6,-2,-11,0
1501932397863682,1,-1,3,0,-3,0,-12,-5
1501932397864612,0,1,-9,-5,-3,5,27,9
1501932397864612,-2,0,1,-5,-2,-3,4,2
1501932397886690,1,-1,3,4,2,-3,-15,-18
1501932397886690,-2,0,-1,-5,-2,-1,1,4
1501932397887622,-6,-1,2,23,4,2,-15,-3
1501932397887622,-6,-2,0,-29,-3,-3,-17,-3
1501932397900655,1,-3,-8,-4,-3,0,8,13
1501932397900655,18,3,12,9,-1,0,-1,1
1501932397901650,-24,0,1,1,0,-6,-11,-4
1501932397901650,3,0,4,3,2,-4,-13,-6
1501932397923673,-1,-6,-7,-9,-5,-10,-16,8
1501932397923673,-2,2,-1,-1,1,9,21,-6
1501932397924616,7,-5,-3,-3,-6,-2,-9,23
1501932397924616,-9,4,5,5,2,5,14,12
1501932397946673,8,-1,0,4,3,-1,7,-5
1501932397946673,-8,-3,-9,8,-3,-10,-2,-2
1501932397947636,7,-2,-3,-46,-14,-5,-15,-1
1501932397947636,-6,-2,-7,-4,-2,4,2,2
1501932397960680,-8,-1,5,3,2,5,-2,-8
1501932397960680,-7,-3,0,-5,1,0,5,19
1501932397961618,3,-3,-11,10,-4,-3,-5,-15
1501932397961618,6,3,2,-4,0,1,-4,-4
1501932397983682,-7,-4,-2,4,-6,-7,-26,19
1501932397983682,2,-1,5,-4,2,0,10,-2
1501932397984652,-4,-4,-8,-2,-1,3,4,1
1501932397984652,5,-2,0,1,-4,-11,6,-8
1501932398006692,4,7,7,13,3,4,1,-4
1501932398006692,-4,-6,-22,0,-1,-4,-3,4
1501932398006692,0,-2,1,-23,-11,-1,-5,11
1501932398006692,-6,-2,-5,4,-1,3,18,-9
1501932398020690,1,2,5,0,4,1,6,12
1501932398020690,13,-5,4,7,-3,-3,-12,-17
1501932398021634,-22,6,4,8,6,1,-4,-6
1501932398021634,-1,-6,-6,-4,-1,-2,-10,-22
1501932398043691,0,-3,-4,0,1,1,18,-8
1501932398043691,-10,0,1,-4,-1,1,-7,4
1501932398044657,3,-5,-5,12,3,-5,-10,2
1501932398044657,3,1,3,-22,-11,-2,5,7
1501932398066692,1,6,1,4,4,4,10,-4
1501932398066692,-5,1,-5,4,-4,0,25,-13
1501932398066692,6,0,6,15,1,-4,-11,2
1501932398066692,8,-1,0,-6,1,-5,-18,5
1501932398080662,1,-4,-13,-14,-5,-2,-11,-6
1501932398080662,-5,-1,-3,-8,-4,-5,-7,3
1501932398081636,3,3,9,2,3,6,4,5
1501932398081636,-1,4,-6,12,3,4,19,1
1501932398103688,1,-5,-12,-12,-8,-7,-18,3
1501932398103688,-3,-3,9,0,0,3,-1,-3
1501932398104660,3,0,-3,3,3,1,12,4
1501932398104660,1,0,1,13,4,2,-7,1
1501932398126703,-2,2,2,-3,-2,2,3,-2
1501932398126703,-2,-1,-1,-13,-10,-4,-9,-4
1501932398126703,6,-1,-4,-3,-1,-2,-5,5
1501932398126703,-8,-6,2,5,3,0,-8,-13
1501932398140693,3,0,-1,9,0,-6,5,-5
1501932398140693,2,1,2,-3,1,-2,4,5
1501932398141637,-2,2,2,-2,0,0,-2,-16
1501932398141637,2,-2,-2,-4,1,2,-6,4
1501932398163693,-8,-3,2,6,1,-4,-17,-10
1501932398163693,10,4,10,-2,-1,-1,8,19
1501932398164664,0,-10,-13,23,-6,-5,-9,4
1501932398164664,-6,-1,-13,-41,-6,-5,-12,1
1501932398186698,5,2,1,-3,-2,-1,-4,-1
1501932398186698,-11,-3,2,-3,1,0,-26,-4
1501932398187632,10,7,1,5,5,-4,-8,10
1501932398187632,1,-3,5,15,0,-3,18,-17
1501932398200675,-5,-3,-9,-21,-9,-1,7,-1
1501932398200675,0,0,3,5,-1,-1,-5,4
1501932398201644,-7,-3,4,-3,-1,-1,3,-3
1501932398201644,3,0,-1,14,1,0,-6,8
1501932398223667,-3,-1,-8,-21,-5,0,2,-3
1501932398223667,-1,0,-6,-2,2,-2,7,1
1501932398224665,1,-3,7,-4,-1,4,-1,5
1501932398224665,3,-3,-10,-3,-5,-6,-6,-25
1501932398246706,-4,-4,-12,8,1,3,5,3
1501932398246706,-4,-1,-8,-5,-3,-4,3,-8
1501932398246706,-1,-3,2,-9,-2,2,-2,-3
1501932398246706,-2,2,10,5,2,2,-1,3
1501932398260693,-3,-5,7,6,-1,-6,-14,-1
1501932398260693,-1,0,0,-3,-1,0,5,-12
1501932398261637,2,0,8,0,2,3,6,11
1501932398261637,-6,-8,-6,6,-4,-6,8,-4
1501932398283675,1,0,-4,2,1,-2,-16,-5
1501932398283675,-6,0,2,-36,-5,-2,-3,-3
1501932398284672,2,-2,-1,1,0,-4,2,-15
1501932398284672,9,5,6,3,3,6,2,20
1501932398306679,-24,-4,-8,-3,-1,-2,-2,-13
1501932398306679,-1,-1,8,43,9,1,0,0
1501932398306679,-2,1,-7,-49,-14,-2,2,10
1501932398306679,0,-1,-8,13,-4,-2,-17,14
1501932398320680,5,2,6,-22,-3,2,8,8
1501932398320680,0,-3,-3,14,0,2,1,1
1501932398321640,-7,-1,-6,23,5,1,7,-10
1501932398321640,0,1,3,4,4,1,-18,0
1501932398343702,1,0,-1,14,-3,0,50,21
1501932398343702,7,5,-4,-34,-10,0,-4,8
1501932398344653,1,-11,-7,-8,1,-3,-2,6
1501932398344653,-6,0,1,11,1,-3,5,1
1501932398366707,-2,3,11,17,2,-2,-8,-5
1501932398366707,-2,-7,-10,-19,-1,6,-4,-2
1501932398366707,-2,5,-3,18,-1,-4,-3,-28
1501932398366707,-6,-6,-7,-9,-5,-3,0,-5
1501932398379683,-2,0,6,18,4,-4,-11,-3
1501932398379683,3,-4,-1,-10,-14,-1,5,13
1501932398388662,9,5,-3,-15,0,2,-4,-17
1501932398388662,0,-6,2,-8,0,-2,-2,-6
1501932398403705,5,0,4,-8,0,0,12,-6
1501932398403705,-6,0,3,28,9,-1,-4,-5
1501932398404655,-6,-3,0,6,-1,1,-4,-5
1501932398404655,0,4,1,2,1,3,15,-8
1501932398426718,22,-3,1,-14,-1,-1,-4,6
1501932398426718,-9,6,-9,-7,0,-3,-1,1
1501932398426718,-9,-9,-15,9,-3,-7,-8,1
1501932398426718,-6,2,-6,-36,-7,-2,-14,-5
1501932398439691,1,-2,9,24,3,4,13,-3
1501932398439691,3,3,-7,-6,0,0,-6,-16
1501932398448672,7,4,11,15,0,-4,8,11
1501932398448672,-2,-3,4,41,6,2,5,-9
1501932398463714,-10,-5,-4,-52,-14,-5,-7,-9
1501932398463714,0,1,1,20,2,-1,-1,10
1501932398464661,-1,0,3,38,6,0,12,1
1501932398464661,1,-4,-7,-31,-9,-4,-4,3
1501932398486722,-6,1,-4,-10,-8,2,-8,-1
1501932398486722,3,-5,1,-26,-8,-4,-11,-11
1501932398486722,-1,-3,-7,-18,3,-2,0,0
1501932398486722,-4,2,7,16,-2,-1,5,19
1501932398499713,-5,-1,-10,3,-2,-3,-5,-6
1501932398499713,-2,-1,1,3,2,-2,-7,-3
1501932398508664,-6,2,8,-18,0,1,-2,-2
1501932398508664,1,2,6,29,6,1,-3,-4
1501932398523692,0,0,-2,-6,-2,2,1,5
1501932398523692,1,-4,1,-24,-6,-6,6,-6
1501932398524663,1,1,0,2,0,6,-4,2
1501932398524663,-3,-2,-5,-20,2,1,4,-4
1501932398546726,0,1,2,23,1,2,9,1
1501932398546726,-3,-6,-2,10,-1,-7,-12,-14
1501932398546726,6,2,-9,-27,-13,-1,-12,-12
1501932398546726,-7,-2,1,4,-3,2,5,11
1501932398559697,1,-3,0,-1,0,1,10,9
1501932398559697,-4,-2,1,-12,1,2,2,-2
1501932398568671,-7,-1,4,7,-1,-7,-2,0
1501932398568671,1,0,0,24,3,-1,-7,-3
1501932398583696,3,-3,-1,-22,-8,-5,-13,2
1501932398583696,2,2,-1,16,3,6,10,7
1501932398584689,-1,-2,-2,-2,-4,-2,1,-10
1501932398584689,-10,1,-1,-30,-2,-8,-11,-11
1501932398606729,-4,-2,1,43,2,0,-3,-13
1501932398606729,-5,-3,-9,-14,-6,4,-1,2
1501932398606729,10,3,7,9,2,2,6,9
1501932398606729,5,-5,2,-15,4,5,-9,1
1501932398619698,-2,-2,-4,-5,2,-7,-10,-2
1501932398619698,-3,0,5,14,2,1,5,0
1501932398628693,4,3,4,-1,1,4,-1,3
1501932398628693,-7,-6,-4,14,-2,-4,2,0
1501932398643722,0,-4,-12,-33,-5,-3,-11,-7
1501932398643722,3,2,3,23,-1,-4,-4,4
1501932398644670,0,-3,-1,-13,-3,-4,-21,11
1501932398644670,7,-1,-1,-3,-5,-1,21,18
1501932398666731,-3,1,-4,-20,0,3,-4,-5
1501932398666731,6,3,5,9,3,-2,-7,-24
1501932398666731,-8,-5,-2,0,0,-5,4,-8
1501932398666731,2,-2,-9,-13,-10,-9,-21,-11
1501932398679727,0,0,7,10,7,6,8,22
1501932398679727,-3,-4,-9,9,2,-1,22,20
1501932398688684,-12,-5,-6,-8,-3,3,-11,-13
1501932398688684,16,-1,-5,1,-3,-22,-7,-6
1501932398703723,-23,-1,-10,-44,-9,16,2,-14
1501932398703723,5,-6,6,-4,1,-7,-9,8
1501932398704672,-6,-4,-7,-4,-5,-2,2,1
1501932398704672,0,2,5,11,3,13,15,15
1501932398726710,1,1,5,33,8,-10,-6,-3
1501932398726710,3,1,-4,-14,-2,1,-8,-9
1501932398726710,-1,-1,-12,-41,-7,-1,7,0
1501932398726710,-1,-1,6,-2,0,3,2,11
1501932398748703,3,-2,-1,13,1,-2,-8,4
1501932398748703,-7,1,4,29,3,1,-5,-15
1501932398749699,2,-1,1,-23,-6,-11,-11,-10
1501932398749699,2,3,2,-16,-3,4,10,2
1501932398763704,1,0,0,27,2,-2,4,3
1501932398763704,-1,-2,-6,-13,1,-1,-12,5
1501932398764673,2,-1,2,18,2,-2,15,1
1501932398764673,-5,-6,-9,-33,-16,3,-8,-11
1501932398786738,2,-1,3,-3,-3,-3,-10,4
1501932398786738,-14,-1,-3,-1,2,0,9,-16
1501932398786738,8,3,6,21,5,7,-12,8
1501932398786738,-4,5,5,15,6,-3,2,2
1501932398808708,2,-2,-2,22,1,-5,-1,-33
1501932398808708,-1,-3,-7,-45,-8,-2,-6,3
1501932398809679,-5,-3,-5,10,-1,-2,0,-5
1501932398809679,-4,0,-3,13,-1,-5,-43,-7
1501932398823740,0,0,5,-2,5,2,32,10
1501932398823740,8,-1,3,19,1,1,1,8
1501932398824679,-7,-1,0,-15,-4,1,8,-8
1501932398824679,-6,-2,-2,1,5,2,3,2
1501932398846731,12,1,4,16,-1,-6,-14,6
1501932398846731,2,0,-2,11,-1,-10,-17,-7
1501932398846731,0,-2,-2,-34,-1,9,9,10
1501932398846731,1,-1,-10,-1,-5,0,7,-9
1501932398868738,-6,1,5,-6,2,3,-2,6
1501932398868738,-3,-3,-2,1,-3,0,0,-12
1501932398870682,0,3,0,22,4,-8,-19,1
1501932398870682,-8,-1,0,-6,0,-1,1,-12
1501932398882710,-1,1,1,0,-1,-5,5,19
1501932398882710,7,0,1,3,0,4,0,-3
1501932398891686,1,-2,-2,-12,-3,-3,14,6
1501932398891686,-4,-3,-4,-15,-5,-1,3,-9
1501932398906689,1,-4,-4,7,-6,-8,-7,-8
1501932398906689,-7,0,-2,-6,0,3,-7,4
1501932398907673,-4,-1,3,-21,-3,-2,-12,-1
1501932398907673,21,1,3,1,1,4,15,5
1501932398928739,-6,-1,-7,-6,-1,-2,-2,-7
1501932398928739,0,-4,-4,-3,3,1,2,13
1501932398930682,4,1,-4,11,0,3,7,-5
1501932398930682,1,-7,3,28,5,2,-11,-18
1501932398942703,-4,-2,0,-45,-8,-10,-6,12
1501932398942703,2,-3,-10,-7,-9,-3,-5,-10
1501932398951678,8,2,6,22,7,1,-2,-8
1501932398951678,-4,2,-3,1,-1,-1,31,10
1501932398966699,4,-3,-4,-13,1,0,-5,-7
1501932398966699,-5,0,4,9,-5,-5,4,-2
1501932398967679,-5,-4,-8,15,3,-3,6,9
1501932398967679,-2,3,-1,2,0,-1,-8,0
1501932398988743,-5,-2,-2,-26,-6,1,-3,-6
1501932398988743,-8,-1,-4,-5,-4,1,7,16
1501932398990689,8,0,1,-7,0,6,-3,-14
1501932398990689,-5,-4,-7,0,-3,-5,-10,-7
1501932399002743,-5,-1,-1,16,4,1,-1,-8
1501932399002743,16,-2,-5,-3,-1,-2,6,3
1501932399011691,-9,-5,-1,-5,-2,-2,-5,6
1501932399011691,7,2,7,-12,-2,2,0,5
1501932399026724,-3,0,-5,12,0,1,-18,-7
1501932399026724,3,7,2,-15,-3,-8,-7,-8
1501932399027680,-1,1,8,11,1,-8,-18,3
1501932399027680,-9,-3,-10,5,3,4,0,7
1501932399048718,5,2,-6,-13,-7,-1,-2,-8
1501932399048718,-4,3,14,9,4,1,6,11
1501932399050693,-9,-6,-2,10,-3,-2,2,14
1501932399050693,-6,-5,-5,-11,-7,-10,-12,-1
1501932399062725,1,-1,1,17,4,3,3,0
1501932399062725,-6,0,-1,-12,-4,1,3,-8
1501932399071700,2,1,0,-2,-4,-3,0,6
1501932399071700,-5,-2,3,-2,4,0,7,8
1501932399086702,6,-2,-5,19,-2,-1,20,14
1501932399086702,-3,-5,5,7,1,5,-2,-9
1501932399087691,-2,2,-3,4,2,1,0,-6
1501932399087691,-2,-5,-15,-27,-9,-2,2,2
1501932399108724,-4,-1,1,-6,1,-2,-7,-17
1501932399108724,-12,-4,7,22,5,0,5,10
1501932399110686,-1,-3,-8,-3,-3,-4,19,3
1501932399110686,11,0,1,10,1,0,-11,-19
1501932399122726,-23,3,5,-3,-2,7,-9,1
1501932399122726,6,-3,-8,-22,-2,3,9,-7
1501932399131696,-8,-1,3,15,0,-6,-1,-6
1501932399131696,7,2,7,15,0,5,2,4
1501932399146715,16,0,1,-3,-3,-9,-1,-3
1501932399146715,-1,-1,1,14,0,-7,-10,1
1501932399147696,-3,-3,-7,-16,2,-1,-4,12
1501932399147696,-2,3,1,-6,-5,0,-9,1
1501932399168754,-3,-4,-1,1,-9,-3,4,-8
1501932399168754,-1,-2,0,-2,3,0,-8,2
1501932399170690,10,1,-4,-22,-7,0,8,-2
1501932399170690,-5,-6,8,10,5,-2,-8,-4
1501932399182734,-1,-3,-10,-11,-1,0,1,13
1501932399182734,1,-3,-1,8,1,-1,-1,3
1501932399191704,-3,-5,1,5,-1,-4,-7,-5
1501932399191704,-4,-1,-1,-8,-2,2,5,9
1501932399206756,-3,-2,1,17,2,-1,-3,-11
1501932399206756,-2,-3,-5,-24,-3,-6,-6,-13
1501932399207691,0,2,-1,10,0,4,-1,-14
1501932399207691,9,4,3,3,3,-1,1,6
1501932399228760,2,-4,0,-23,-2,-3,-9,1
1501932399228760,-6,-2,-11,-5,-1,2,13,11
1501932399230726,0,0,6,1,-4,-3,-2,-4
1501932399230726,-13,-1,-3,-6,-1,0,4,-11
1501932399242735,10,-1,-3,13,2,-1,8,14
1501932399242735,-2,-3,2,0,-2,-6,-14,-3
1501932399251708,-2,-1,-7,-9,0,6,-2,-23
1501932399251708,4,-3,-3,-1,-1,-4,-1,7
1501932399266710,1,0,-8,-15,-5,-3,-7,6
1501932399266710,-5,0,0,-2,-4,-5,-3,-25
1501932399267694,-2,-1,2,17,2,7,-2,19
1501932399267694,10,-1,1,-7,3,4,5,-12
1501932399288758,-7,-4,-4,-2,-1,-6,-9,-7
1501932399288758,7,2,5,-1,-5,0,4,1
1501932399290706,-3,-5,-3,1,-1,-2,1,9
1501932399290706,-5,-1,-5,5,-1,-3,-2,3
1501932399302763,-3,0,6,14,4,2,2,2
1501932399302763,-4,-1,0,2,-4,0,3,-6
1501932399311712,-4,-5,-5,-25,-7,-10,-7,-3
1501932399311712,-8,1,1,-8,-5,1,3,-9
1501932399326730,-2,4,11,23,7,1,6,-1
1501932399326730,-2,-1,-8,-15,-2,4,-3,10
1501932399327706,1,-1,3,7,-1,-2,-5,1
1501932399327706,-10,-1,-2,-6,-3,-4,15,-4
1501932399348731,-3,-3,-11,-2,0,4,0,-30
1501932399348731,3,3,6,8,5,5,2,0
1501932399350708,0,-1,-1,-2,-1,-2,2,10
1501932399350708,-3,-2,4,-1,-2,-4,-6,-1
1501932399362739,4,2,3,1,1,6,5,3
1501932399362739,19,-3,-3,3,-4,-5,-12,12
1501932399371701,-8,4,-2,-18,1,0,2,-8
1501932399371701,-4,-3,-6,14,-1,-6,-7,5
1501932399386730,-4,-3,-5,-14,-6,-13,-2,-1
1501932399386730,-5,-2,1,-1,0,8,0,3
1501932399387701,5,1,2,26,3,5,7,-1
1501932399387701,-3,-2,5,-22,-3,-1,-14,1
1501932399408768,5,0,-8,7,3,2,2,10
1501932399408768,-8,-3,-8,-28,-6,-4,5,-7
1501932399410737,0,-1,3,-9,-4,-6,-12,-13
1501932399410737,0,1,-8,-1,3,5,1,-12
1501932399422744,0,-2,6,-3,-2,-3,-3,5
1501932399422744,-2,0,2,8,5,2,-3,1
1501932399431704,-4,-1,1,13,3,2,-7,-9
1501932399431704,0,-1,0,-11,-8,-10,-19,14
1501932399446736,11,0,-1,-1,0,6,5,-1
1501932399446736,-3,-1,-6,8,-1,-12,4,-14
1501932399447705,-5,-2,4,9,1,6,1,-2
1501932399447705,5,0,-1,-1,2,0,3,0
1501932399468743,-9,-3,-10,-19,-10,-2,-11,-4
1501932399468743,-5,-1,0,0,1,-1,-3,11
1501932399470716,10,1,-4,-16,-7,-6,-2,-1
1501932399470716,0,-2,1,13,0,2,5,2
1501932399482856,3,-1,-3,-4,-1,-1,2,21
1501932399482856,14,2,5,-5,-2,0,0,-4
1501932399491874,-26,-5,-12,2,-3,-5,-6,-19
1501932399491874,0,1,6,19,4,5,8,-2
1501932399505901,-5,-1,2,-22,1,1,3,-11
1501932399505901,-3,-2,-8,-10,-10,-13,-5,-2
1501932399507871,6,0,-1,-4,-1,5,6,12
1501932399507871,-7,-2,-3,-7,1,6,5,7
1501932399528900,5,-1,7,13,2,0,-8,-13
1501932399528900,-4,-2,-6,8,2,1,-2,0
1501932399530843,-2,-3,-6,-14,-5,-7,-2,1
1501932399530843,-3,-3,-4,-2,-4,-4,-3,-9
1501932399542905,-4,-1,2,7,0,-1,-1,2
1501932399542905,-13,-1,5,14,3,-2,-18,4
1501932399551846,4,1,-3,-19,-2,1,3,3
1501932399551846,7,6,0,-7,-1,-1,-5,-6
1501932399565912,-5,-4,-11,-3,-2,1,1,-6
1501932399565912,1,-1,4,10,0,3,-1,-1
1501932399567843,-5,-1,-3,-22,1,-5,3,8
1501932399567843,28,2,2,4,-2,-1,3,16
1501932399588886,-20,1,2,-3,-1,-3,-7,-16
1501932399588886,-7,-3,-4,19,1,3,6,-2
1501932399590843,0,-2,1,1,4,-1,-3,-4
1501932399590843,0,0,-6,-16,-4,-4,2,-3
1501932399602859,2,-1,5,2,-2,-2,1,4
1501932399602859,5,2,5,4,0,3,-1,1
1501932399611880,-1,-1,-1,11,3,0,8,-5
1501932399611880,-12,-5,-3,-5,-2,-7,-8,-12
1501932399625910,-7,0,1,4,5,9,9,3
1501932399625910,0,-1,0,15,1,1,9,4
1501932399627845,3,-1,0,-29,-4,3,-3,14
1501932399627845,-5,-3,5,4,-1,-9,-4,-7
1501932399648893,-1,-1,1,6,1,4,1,3
1501932399648893,-1,-1,-4,-15,-1,-2,1,-22
1501932399650847,-2,-3,3,16,1,0,2,8
1501932399650847,-7,-1,-3,-1,-1,0,-8,-16
1501932399671870,2,-1,-1,0,1,-4,2,-19
1501932399671870,-2,1,-3,-18,-1,-2,1,0
1501932399672848,-1,1,4,24,-1,1,-3,-1
1501932399672848,1,-1,-3,6,-2,5,1,12
1501932399685892,4,1,3,-41,-10,-5,-14,11
1501932399685892,-3,-7,-15,-6,-1,0,0,-13
1501932399692859,-5,0,2,-15,-2,-5,-4,-9
1501932399692859,1,-1,-1,12,0,-4,2,3
1501932399708891,-2,1,2,15,4,1,-5,4
1501932399708891,2,0,3,7,0,-3,0,4
1501932399710854,11,-1,-1,6,2,2,-2,-3
1501932399710854,-8,-2,-6,2,1,-3,0,-9
1501932399730892,-3,-4,-14,-32,-19,-26,-9,-11
1501932399730892,1,0,4,-4,3,19,6,14
1501932399732860,5,1,-2,15,3,0,0,3
1501932399732860,-13,-5,4,4,2,1,-9,-20
1501932399746873,-4,-3,3,16,4,0,9,5
1501932399746873,-3,-1,-7,-5,-4,-5,-1,1
1501932399747863,3,-4,-3,-11,-3,0,2,-8
1501932399747863,2,3,-3,-12,-2,-2,3,7
1501932399768893,0,-1,-1,12,2,2,-5,4
1501932399768893,-2,-1,5,-6,-2,-6,1,0
1501932399770864,3,0,-3,-1,-4,6,-4,1
1501932399770864,1,2,0,-8,1,1,-1,1
1501932399790897,-2,-4,-5,12,-1,-1,6,-2
1501932399790897,0,-2,-1,8,-3,-4,-3,23
1501932399792866,-14,-2,-3,-17,-1,-3,-8,-35
1501932399792866,1,-1,1,-1,-4,-1,-1,-2
1501932399805903,0,4,1,9,4,7,3,1
1501932399805903,9,1,-2,-17,-1,-1,3,28
1501932399812867,8,0,3,22,3,-3,0,-5
1501932399812867,-24,-5,-13,-25,-2,-2,-11,-30
1501932399828913,18,3,6,-10,1,3,1,0
1501932399828913,-6,-3,8,21,-2,-4,-6,-10
1501932399830857,-1,1,-6,24,-1,-1,10,23
1501932399830857,0,-6,-10,-51,-13,-6,7,20
1501932399850898,-1,0,-6,-10,-2,-4,-5,-11
1501932399850898,-4,-1,-4,2,1,-3,-9,-13
1501932399852859,-2,0,7,-18,-2,-3,-2,-6
1501932399852859,-1,1,11,34,6,4,6,2
1501932399865909,-2,-4,-3,0,-1,6,7,24
1501932399865909,-7,-2,-7,-7,-3,-4,-2,-2
1501932399872870,7,-1,-4,5,3,-4,-2,13
1501932399872870,5,-3,-3,7,-1,1,3,4
1501932399888933,0,-1,0,-9,-3,-5,-4,-5
1501932399888933,-1,0,3,9,0,3,-8,-11
1501932399894905,-5,-1,-1,-16,-6,-5,0,-2
1501932399894905,16,0,0,11,0,1,-1,12
1501932399910901,-13,-1,-1,0,0,0,3,-9
1501932399910901,0,2,-2,-2,1,2,-1,-7
1501932399912863,-5,-2,-5,-10,-6,-6,1,14
1501932399912863,11,1,6,3,0,6,-1,-16
1501932399925885,7,2,1,7,5,-4,0,2
1501932399925885,1,-2,-4,1,2,-1,4,8
1501932399932884,4,-1,-4,-12,2,8,-4,-3
1501932399932884,-6,1,2,8,-1,-6,-3,0
1501932399948902,-6,-6,-4,14,-1,-2,-4,1
1501932399948902,-2,-3,-1,-14,-5,-6,0,-17
1501932399949875,0,2,4,24,3,1,-9,6
1501932399949875,5,1,0,-30,-1,2,22,6
1501932399970923,3,1,0,-10,-4,-4,0,-4
1501932399970923,7,2,-1,29,3,-2,3,18
1501932399972898,-4,-6,-7,-3,-1,-4,-9,-31
1501932399972898,-4,0,2,-6,-7,-3,-7,-3
1501932399985908,-2,-2,1,10,3,8,-5,-5
1501932399985908,-1,-1,1,1,0,-3,1,1
1501932399992882,-11,1,6,-4,-2,-2,5,10
1501932399992882,-2,-1,-4,12,2,-3,-4,8
1501932400008928,3,-1,-2,-12,-3,3,0,3
1501932400008928,-14,-3,0,-8,-2,2,-4,3
1501932400010868,0,-1,-1,-8,-2,0,2,-8
1501932400010868,1,-2,3,15,1,-5,-9,2
1501932400030910,-5,-2,-6,-3,-4,-4,4,-4
1501932400030910,12,1,-1,-3,-2,-1,0,9
1501932400032902,-1,-2,1,-6,-2,2,-4,-25
1501932400032902,-2,-1,-1,-2,-2,-5,-5,1
1501932400045885,-2,-2,-8,15,2,0,-3,0
1501932400045885,-6,-1,-2,-32,-2,4,0,-6
1501932400052887,4,0,7,6,0,-4,2,-3
1501932400052887,-8,-1,-19,-1,1,0,-3,-3
1501932400068915,-1,-1,5,0,-1,-7,-4,-5
1501932400068915,-4,-4,-4,-3,-2,0,0,-6
1501932400070873,-3,1,1,2,-4,-4,0,6
1501932400070873,2,-1,9,12,5,6,-3,-2
1501932400091900,18,0,-1,23,2,-1,0,4
1501932400091900,-14,2,-9,-60,-21,-5,5,-1
1501932400092904,-2,-1,5,6,5,-2,-4,7
1501932400092904,4,-4,-9,-15,-3,-1,0,-7
1501932400105922,-8,-3,0,13,-2,-4,-4,-8
1501932400105922,2,-1,6,16,5,5,-12,0
1501932400112888,4,-1,-5,-5,-3,3,16,8
1501932400112888,-6,-3,-2,4,0,0,5,4
1501932400128913,-3,0,1,-19,-2,-6,-2,6
1501932400128913,2,-1,-2,3,2,1,1,-3
1501932400130883,1,1,0,5,0,3,-2,9
1501932400130883,-5,-5,-9,-8,-4,-3,-4,-9
1501932400150932,-5,0,6,7,0,2,3,4
1501932400150932,-3,0,3,9,-1,-5,-2,-6
1501932400152911,3,0,-4,-18,-10,-3,-4,-8
1501932400152911,-6,-2,-7,-10,-5,-6,-4,-5
1501932400164916,-2,1,0,-13,0,2,-2,-4
1501932400164916,4,-3,3,17,0,-1,0,-2
1501932400173889,-3,-1,1,5,4,-1,-6,-5
1501932400173889,-22,-1,0,-2,-2,-5,3,-1
1501932400188902,-5,-4,-7,-7,-2,-1,1,10
1501932400188902,6,-1,-3,-12,2,-4,-2,-4
1501932400190878,3,-3,-2,8,-2,1,0,-4
1501932400190878,-4,-1,2,5,-1,2,-2,1
1501932400210927,20,0,-3,-4,-4,-5,-1,-2
1501932400210927,-3,-3,-1,-2,-1,6,5,14
1501932400212912,-4,0,-1,-4,-1,-4,-2,7
1501932400212912,5,4,3,0,2,2,-1,-4
1501932400224950,-11,-2,-2,10,1,2,-1,-24
1501932400224950,-10,1,2,-5,0,-1,7,24
1501932400233894,16,-2,-4,4,-3,-5,-18,-57
1501932400233894,-21,-12,2,21,2,2,4,95
1501932400249887,12,-1,-6,-46,-7,-7,0,22
1501932400249887,8,-1,1,3,-3,-2,-5,-29
1501932400251881,0,-2,-2,6,0,0,-3,-19
1501932400251881,-22,-2,4,0,-3,-3,8,45
1501932400270894,-10,3,1,3,2,4,-11,-36
1501932400270894,1,0,-3,9,2,-2,1,19
1501932400272895,2,-1,-5,-15,0,2,14,35
1501932400272895,20,-2,-2,4,-1,-1,-5,9
1501932400284941,-20,-9,-4,-1,-4,-4,2,-4
1501932400284941,-1,2,3,0,-2,-4,-4,-13
1501932400293898,-37,0,1,11,9,9,7,61
1501932400293898,14,2,-2,2,-1,-11,-2,-32
1501932400307932,5,0,-5,-22,-8,4,-4,-55
1501932400307932,1,-3,-1,-3,1,-1,-2,-27
1501932400316886,-5,-4,2,-1,0,-6,1,4
1501932400316886,4,2,-7,1,4,1,-8,-20
1501932400330893,-35,-11,-4,7,0,0,12,91
1501932400330893,10,7,3,4,1,-2,-5,-33
1501932400332888,0,1,-2,-2,-1,-3,2,4
1501932400332888,14,4,6,-5,-3,3,2,-61
1501932400344949,-1,-5,-1,14,0,-7,-1,41
1501932400344949,0,-2,-4,-19,0,2,4,3
1501932400353899,10,-2,-9,5,-7,-2,-4,22
1501932400353899,5,1,4,10,4,2,-5,-6
1501932400368952,-7,3,-3,-2,5,3,6,15
1501932400368952,5,2,1,11,3,5,5,-59
1501932400370889,0,-1,2,-4,-1,-6,-2,12
1501932400370889,1,-1,4,-1,-1,2,-4,7
1501932400390966,-11,1,-5,10,0,0,3,10
1501932400390966,3,-4,-3,5,-2,-10,-8,6
1501932400392890,-12,-1,-1,-8,-2,10,8,-31
1501932400392890,40,9,3,0,-1,-3,-4,-68
1501932400404950,2,6,6,-2,5,6,3,59
1501932400404950,12,-1,-5,-2,-2,-2,-3,8
1501932400413892,3,2,4,15,2,-5,-5,-68
1501932400413892,-25,-8,-3,-19,-3,-1,-3,15
1501932400428932,1,-2,-9,-7,-6,-5,-7,-40
1501932400428932,-16,-8,-4,-4,-4,0,5,49
1501932400429904,6,1,0,4,3,-1,2,38
1501932400429904,-9,1,2,1,1,0,-5,0
1501932400450909,9,-1,4,4,-4,-5,-7,17
1501932400450909,-17,-4,-4,-8,-1,0,3,7
1501932400452895,-6,-5,-9,-1,-2,-6,-7,-6
1501932400452895,-13,3,-1,-6,1,-3,8,46
1501932400464930,8,3,8,2,0,6,-1,-27
1501932400464930,-7,-3,2,1,-2,-11,-1,19
1501932400473906,3,0,5,13,4,9,-3,-2
1501932400473906,-8,-2,-4,-32,-2,0,2,0
1501932400488959,10,1,1,4,-1,-2,-2,-23
1501932400488959,-7,-3,-3,1,-2,-2,-5,-7
1501932400489901,10,-1,-4,-10,-3,-10,-7,-11
1501932400489901,4,-6,-4,7,-6,3,-2,-19
1501932400510964,6,1,1,0,1,-3,0,-5
1501932400510964,7,-1,-6,-7,-5,-3,-5,-20
1501932400512929,-20,-2,5,-1,2,4,5,-1
1501932400512929,2,1,1,9,-2,-3,-2,-5
1501932400524957,9,3,6,-5,-2,3,-2,-25
1501932400524957,-14,-3,-10,-3,-3,1,-2,-10
1501932400533934,8,1,1,23,0,-7,-6,-22
1501932400533934,-10,2,-6,-40,-4,3,10,38
1501932400548938,14,-3,-6,-3,-2,3,-8,-71
1501932400548938,-2,-1,3,-2,-1,-3,-6,-4
1501932400550900,-6,-6,-3,-9,-3,0,-5,-6
1501932400550900,-5,-5,0,17,-1,-11,0,-8
1501932400570962,11,-2,-10,1,-2,0,-7,-35
1501932400570962,12,3,0,-6,-3,6,3,23
1501932400572938,-7,-2,-8,-7,-3,-3,-6,-3
1501932400572938,8,0,5,31,4,-1,-3,-9
1501932400584973,-5,-1,-2,-49,-6,-4,-1,21
1501932400584973,0,1,3,6,0,1,-1,-4
1501932400593901,17,-5,-9,-5,-8,-9,0,-10
1501932400593901,-20,-1,-2,-4,0,3,-2,-2
1501932400608950,-3,-1,2,13,1,-3,-3,0
1501932400608950,4,2,-4,-5,2,1,-1,2
1501932400610903,2,1,11,5,-1,-2,1,15
1501932400610903,-1,-4,-9,-5,0,0,-2,-2
1501932400630945,-3,-3,-8,-6,-4,-3,-2,2
1501932400630945,0,0,3,-3,-3,-7,-4,-31
1501932400632903,9,2,2,6,2,-6,2,-32
1501932400632903,-2,2,2,17,6,13,-2,2
1501932400653946,3,2,3,4,-4,0,11,-22
1501932400653946,-2,-3,-2,8,2,4,0,6
1501932400655906,-8,-5,-14,-39,-10,-2,-3,38
1501932400655906,0,0,-2,1,0,-7,-3,-24
1501932400668969,-11,-3,1,10,2,-1,-6,20
1501932400668969,5,-2,1,9,0,0,-1,16
1501932400669913,-8,4,3,-4,-1,2,0,-3
1501932400669913,-1,-1,0,8,1,-2,-2,-9
1501932400690973,-6,-6,0,-22,-2,-4,3,24
1501932400690973,1,2,2,8,0,1,2,14
1501932400692940,-1,-4,0,-5,0,-5,-5,-4
1501932400692940,1,0,-2,-9,-3,1,3,38
1501932400713910,-5,2,4,16,6,7,1,-3
1501932400713910,-9,0,6,8,1,-3,-2,-6
1501932400714907,2,-5,-5,-29,-4,7,7,-1
1501932400714907,13,1,-13,6,-7,-4,-5,-15
1501932400728976,-9,-3,-1,5,0,-4,-4,15
1501932400728976,-2,2,2,29,4,2,9,-31
1501932400729930,2,0,2,-60,-11,-2,-4,17
1501932400729930,5,0,2,-9,-3,-8,-4,-19
1501932400750953,-10,-1,-3,-4,-1,2,-9,-11
1501932400750953,-1,-1,0,5,3,2,2,5
1501932400752921,1,-2,-1,23,1,-3,-7,7
1501932400752921,-4,-1,1,1,-1,0,1,-6
1501932400773955,9,-3,-1,-9,-3,-3,6,14
1501932400773955,-2,0,-1,-11,1,-6,-5,-5
1501932400774912,-4,-3,-4,6,0,-1,0,12
1501932400774912,6,-2,-1,-8,-2,10,-2,19
1501932400787970,1,1,1,14,-1,-7,4,32
1501932400787970,8,-1,-3,-13,-3,1,-6,-7
1501932400794955,-7,-2,3,7,1,-1,2,-17
1501932400794955,1,0,-5,12,-1,-6,-6,-4
1501932400810973,0,-2,-1,-10,2,-3,-4,-5
1501932400810973,-1,-4,-8,-13,-9,-6,0,16
1501932400812916,16,1,-1,17,3,4,2,2
1501932400812916,-20,0,6,-15,1,-1,-11,-52
1501932400833976,4,1,-2,8,3,6,19,-12
1501932400833976,-3,-1,-3,-12,-5,-10,-2,-20
1501932400835917,4,-1,-1,13,2,8,-13,-1
1501932400835917,3,0,2,2,-4,-8,10,14
1501932400847949,-4,0,5,6,0,6,5,-5
1501932400847949,-4,-3,-12,-11,-2,-1,3,-6
1501932400854986,-9,-2,0,7,2,2,9,6
1501932400854986,1,-2,2,-4,-1,-5,0,1
1501932400870956,-6,0,-5,-5,-5,-4,-8,-18
1501932400870956,-4,-3,-3,8,4,3,-2,6
1501932400872918,-5,0,-1,-25,-7,-7,-4,-9
1501932400872918,2,0,2,-1,-2,5,-3,4
1501932400893979,3,0,-2,5,-2,-5,-3,-12
1501932400893979,-4,-2,-2,-6,-3,2,-13,7
1501932400894942,-8,0,-3,5,0,-1,0,-2
1501932400894942,3,-1,0,-6,-3,-9,-2,-6
1501932400907944,-9,-3,0,0,-1,5,-18,-1
1501932400907944,-1,0,2,-1,0,2,19,1
1501932400916922,-10,0,-2,5,-3,-4,4,1
1501932400916922,4,0,0,18,3,6,6,2
1501932400930965,-2,-1,-6,-27,-2,-5,-2,-1
1501932400930965,-7,-3,0,-2,-5,-11,-9,10
1501932400932931,0,1,3,13,4,4,13,-8
1501932400932931,-2,-1,-2,-8,1,5,7,-4
1501932400953993,0,-2,0,9,1,-1,-4,-1
1501932400953993,2,-1,5,0,-3,-3,-1,0
1501932400954935,2,0,1,2,-2,-16,-6,-1
1501932400954935,-2,-3,-8,-6,1,13,-38,4
1501932400967942,7,-1,1,5,-1,1,13,2
1501932400967942,1,0,-1,-9,1,1,-4,-3
1501932400975964,-1,0,5,18,-2,-5,0,-2
1501932400975964,-5,-5,-11,-43,-13,-13,-6,-8
1501932400990963,0,2,-2,-19,1,0,-3,-1
1501932400990963,1,1,3,26,5,7,7,2
1501932400992925,-1,-2,-1,5,-3,3,-2,-2
1501932400992925,-1,-1,3,11,2,-4,6,0
1501932401013982,-3,-2,-3,-28,1,-5,-5,0
1501932401013982,1,-2,-12,-4,1,-3,0,-5
1501932401014930,-2,-1,-3,14,-2,2,-26,3
1501932401014930,1,0,6,30,0,-3,16,3
1501932401027935,-3,-1,0,-7,-7,0,1,-2
1501932401027935,-1,-2,7,4,4,0,-6,0
1501932401035975,-2,-4,-8,-23,-5,-1,-5,-2
1501932401035975,-1,-1,2,21,5,0,2,-1
1501932401050968,1,0,1,34,3,-4,-6,-3
1501932401050968,1,-2,-8,-73,-9,5,-7,1
1501932401052964,-1,-2,-3,5,-1,3,20,-8
1501932401052964,-4,-4,1,-29,-6,-2,5,5
1501932401073991,-1,-3,6,49,-5,-5,2,-3
1501932401073991,2,0,4,52,2,-4,-31,15
1501932401074941,-2,1,9,21,2,-18,14,-15
1501932401074941,4,3,-37,25,19,29,12,3
1501932401086995,-9,-8,2,-81,-45,-15,0,-1
1501932401086995,-1,1,16,76,5,7,-3,-5
1501932401095971,0,0,-3,-25,-1,-3,-35,0
1501932401095971,2,2,9,46,5,-9,9,8
