timestamp,emg1,emg2,emg3,emg4,emg5,emg6,emg7,emg8
1501930210126211,65,72,104,-48,-16,-5,16,51
1501930210126211,-51,-52,-38,25,12,-5,-97,6
1501930210128210,43,30,-26,42,-1,-7,24,-39
1501930210128210,-98,53,4,-36,-3,-6,-87,41
1501930210131215,-13,1,-75,-57,-10,4,67,-102
1501930210131215,-52,15,65,17,4,-6,-37,-2
1501930210132215,-43,-14,-23,20,-4,-5,-47,-26
1501930210132215,118,-49,38,29,7,2,19,30
1501930210137229,20,8,45,46,13,11,-17,7
1501930210137229,89,11,46,-10,0,14,86,-35
1501930210149252,-5,-5,-32,20,11,-1,-51,-21
1501930210149252,26,-7,40,-37,-21,-7,-1,2
1501930210152253,-89,-31,-44,2,5,-9,-54,67
1501930210152253,34,-25,8,-17,-17,-7,31,18
1501930210169215,-37,10,-52,-29,-2,10,58,24
1501930210169215,-61,44,-39,22,8,8,25,-38
1501930210176249,10,-30,-7,20,1,1,32,-20
1501930210176249,50,9,-39,-9,2,-1,-12,61
1501930210200236,-4,-14,44,13,-1,4,59,-13
1501930210200236,-128,5,20,4,3,6,17,-55
1501930210200236,5,-8,-68,-9,-5,-8,-28,47
1501930210200236,39,26,21,-9,2,14,76,-35
1501930210212262,-45,7,76,-1,-4,-2,-30,16
1501930210212262,62,-26,7,-23,-9,-24,-108,-18
1501930210254228,33,45,11,20,5,-4,-34,-24
1501930210254228,-14,-23,8,-5,-1,-4,-27,-37
1501930210255234,29,-6,-62,2,-8,-7,11,40
1501930210255234,-31,-7,8,-25,2,5,-11,-37
1501930210258287,55,16,36,-1,-2,7,42,-11
1501930210258287,-39,-7,-67,7,1,2,-7,-39
1501930210259236,13,-5,-21,6,1,-5,-15,-33
1501930210259236,0,19,85,-10,-6,-12,-22,12
1501930210266236,-25,-26,2,-6,-5,3,4,75
1501930210266236,34,17,4,23,6,-4,-38,-49
1501930210272236,-73,-19,14,-19,-5,10,48,-40
1501930210272236,47,1,-48,19,9,9,-34,-12
1501930210287264,28,3,-13,-12,-6,-8,-22,68
1501930210287264,19,-21,12,-7,-8,-10,-40,-31
1501930210295260,-13,27,7,-1,5,4,22,-1
1501930210295260,47,-5,-46,-4,-1,-1,3,11
1501930210304221,-51,-6,62,26,-2,-6,-17,-63
1501930210304221,-19,-12,-47,-42,-5,1,-20,44
1501930210326243,24,23,63,10,-3,-8,-35,22
1501930210326243,-71,-8,-24,-7,-8,-10,-39,42
1501930210328257,13,15,-16,2,7,3,-8,-78
1501930210328257,82,5,-60,7,-1,8,56,31
1501930210340242,61,-11,61,-12,0,-3,-27,-14
1501930210340242,-34,9,-9,12,4,9,73,-10
1501930210349224,-25,-14,-34,-12,-2,-4,-19,7
1501930210349224,-25,7,48,7,0,-1,17,17
1501930210372287,72,-8,8,0,-5,-8,-15,-83
1501930210372287,68,-13,9,9,3,6,74,16
1501930210373252,-12,-7,-32,-12,0,8,3,-26
1501930210373252,39,2,36,-19,-3,2,83,8
1501930210386293,63,-5,-47,-6,-2,1,-2,79
1501930210386293,74,7,-16,-1,-6,-9,-23,-34
1501930210388267,-10,-15,17,-2,-3,-7,2,3
1501930210388267,50,-27,-2,24,4,0,-23,47
1501930210400282,-33,21,-46,-31,-6,1,39,-54
1501930210400282,-17,-5,11,6,1,1,-12,-26
1501930210409227,-28,-7,-41,-13,-12,-14,-43,-7
1501930210409227,-22,0,-29,9,-2,-6,-46,20
1501930210424238,-121,-10,48,23,7,-1,-13,-27
1501930210424238,22,32,29,-8,-3,-2,-18,-53
1501930210425227,58,-43,-48,-5,-4,-4,9,-33
1501930210425227,-20,17,65,-1,1,-4,-48,-8
1501930210446249,-18,-21,-28,-5,-2,-1,-3,-15
1501930210446249,-81,-15,31,1,-1,-4,-3,26
1501930210448229,-67,3,-51,0,0,12,48,30
1501930210448229,-30,15,-5,14,1,2,27,-31
1501930210460288,-45,-4,14,-29,-6,-1,-8,36
1501930210460288,29,-11,-38,-12,3,5,5,70
1501930210469268,40,19,25,6,0,-5,-18,-27
1501930210469268,34,-1,-14,-2,-5,1,29,5
1501930210484240,50,12,15,20,6,5,2,63
1501930210484240,-5,0,52,4,-8,-5,-27,-60
1501930210485242,-5,-18,-34,-4,1,-6,-8,30
1501930210485242,86,5,-47,-17,-1,8,63,53
1501930210506232,64,23,14,9,-1,-13,-63,-5
1501930210506232,7,-17,21,0,-3,0,40,30
1501930210508233,-28,-6,5,5,7,14,75,-61
1501930210508233,-45,22,79,0,-2,-5,-15,15
1501930210520269,71,-46,-32,3,4,2,-6,-4
1501930210520269,26,-23,-83,-2,-4,-2,-24,63
1501930210529255,-10,32,16,-12,-6,-10,-53,41
1501930210529255,-39,-6,-2,5,0,3,38,43
1501930210543289,-12,-28,61,-15,-5,6,35,-11
1501930210543289,39,14,-3,3,-6,-14,-62,-21
1501930210545235,43,-16,-19,-2,2,7,-1,78
1501930210545235,48,-2,-2,1,-1,8,65,-30
1501930210566297,-37,14,28,8,-3,-10,-38,31
1501930210566297,38,-5,2,-2,-1,0,-7,23
1501930210568236,46,23,24,12,0,1,11,-72
1501930210568236,-111,-38,38,-16,-6,-14,-80,-21
1501930210580274,41,6,-35,0,-1,3,26,18
1501930210580274,-13,1,-8,-4,1,-1,-1,-53
1501930210589238,-8,4,49,10,-2,-8,-50,18
1501930210589238,11,2,38,8,0,-9,-54,-37
1501930210603280,-22,3,31,6,7,3,3,-41
1501930210603280,-114,-9,-52,3,-1,1,17,16
1501930210610287,7,10,59,-15,2,2,18,-1
1501930210610287,20,-20,-27,10,3,3,4,20
1501930210626325,-23,12,-22,-7,-3,-5,-10,-58
1501930210626325,-18,6,9,2,-1,0,-13,-20
1501930210628276,-62,-13,-21,10,3,3,0,-7
1501930210628276,33,11,-46,-7,1,4,45,-3
1501930210649250,-57,9,-25,-4,-1,0,10,19
1501930210649250,-44,11,18,5,3,3,7,-10
1501930210650261,-35,-21,-43,-13,-8,-4,22,47
1501930210650261,-18,9,16,0,1,0,-25,-16
1501930210663293,-4,-2,-3,5,-2,-8,-36,36
1501930210663293,63,-2,-35,-4,-4,-8,-11,-79
1501930210665242,98,5,-9,-8,-9,5,27,34
1501930210665242,0,1,-15,0,4,-5,-8,-17
1501930210686242,12,-6,-10,15,14,3,8,-7
1501930210686242,-36,23,33,-9,-14,10,37,25
1501930210688244,33,2,7,-21,-19,-7,-16,-4
1501930210688244,-56,-3,-39,-16,0,-3,14,-14
1501930210709254,-102,0,-27,10,2,9,37,-19
1501930210709254,-8,-5,-15,-6,6,-12,-43,37
1501930210710244,-55,-6,19,15,9,9,58,-80
1501930210710244,-2,11,24,-6,-8,-1,-16,4
1501930210723245,16,-8,-11,10,6,-11,-57,52
1501930210723245,-56,3,23,3,2,9,66,42
1501930210725245,-97,8,-10,-4,-8,-15,-28,-5
1501930210725245,-41,-26,10,-3,1,2,4,-4
1501930210746266,67,11,34,-4,-6,-3,15,-2
1501930210746266,39,-4,-27,-9,-7,3,-10,-7
1501930210748276,-9,-11,-2,0,2,-5,-11,32
1501930210748276,10,27,31,9,2,4,10,-41
1501930210769260,33,-10,-36,-16,-8,-3,-5,33
1501930210769260,48,-8,58,1,2,-1,-3,-16
1501930210770247,-21,-9,-73,8,9,5,2,-21
1501930210770247,-23,12,55,-6,-8,-7,-30,17
1501930210783262,-41,-15,-4,-9,-7,1,6,-3
1501930210783262,44,-23,24,4,-4,-10,-3,3
1501930210790296,0,29,34,2,5,-1,-38,-42
1501930210790296,18,3,-15,2,-4,-2,-23,-56
1501930210806313,-25,-15,-28,4,3,4,-3,-31
1501930210806313,6,-2,58,3,-1,-3,0,-2
1501930210808250,21,-5,-3,1,0,-2,14,26
1501930210808250,-70,17,-73,-16,-9,-3,-10,36
1501930210829263,37,-15,-17,10,5,4,20,-6
1501930210829263,10,1,16,-5,-5,-3,-2,36
1501930210830251,-30,-7,14,-2,-2,-2,-25,-16
1501930210830251,-14,-7,41,-5,-1,-5,-22,-29
1501930210843256,3,9,-15,-7,-3,1,0,2
1501930210843256,-45,4,-12,8,3,-2,-21,-1
1501930210850315,16,-16,-14,-3,-1,1,2,-10
1501930210850315,93,13,31,2,3,3,5,-15
1501930210866319,-54,-3,-48,-5,-5,-5,-25,-8
1501930210866319,53,4,-24,-5,-4,-5,21,-28
1501930210868286,55,3,17,-5,1,4,-4,30
1501930210868286,82,-15,-70,4,2,1,13,-3
1501930210889256,45,10,45,9,5,6,14,-4
1501930210889256,11,-10,-50,-7,-1,-1,-18,13
1501930210890266,42,-8,90,-5,-9,-3,6,35
1501930210890266,-25,-10,36,-2,14,-3,-7,11
1501930210903255,2,-17,-12,-12,-24,-6,-20,-71
1501930210903255,-9,24,-18,11,11,6,8,35
1501930210910323,-5,-2,-28,7,-11,2,-4,1
1501930210910323,8,0,11,-14,-2,-4,-7,1
1501930210926295,7,-13,-49,-11,-3,-1,10,52
1501930210926295,-37,-1,-23,-7,8,-2,-2,-41
1501930210928258,-16,-10,41,21,-2,-1,-11,-40
1501930210928258,-69,-7,-94,-13,7,-1,-7,20
1501930210948263,-11,16,80,14,9,1,7,7
1501930210948263,-10,-5,-17,-5,-6,0,-8,-18
1501930210950259,-42,14,-39,-3,4,-3,-2,5
1501930210950259,57,2,61,19,1,5,23,8
1501930210963258,5,8,-12,9,6,0,9,23
1501930210963258,-41,-9,-2,-1,-2,-2,-15,-49
1501930210970324,33,6,-26,-30,-3,3,27,31
1501930210970324,-20,-15,-40,-14,-13,-4,-15,9
1501930210986260,-31,21,71,2,1,-3,3,-72
1501930210986260,11,-1,-9,13,-3,3,19,-4
1501930210988282,6,-7,-23,-9,-1,-8,-32,12
1501930210988282,-12,6,-16,9,0,2,-6,-2
1501930211008322,32,-2,13,-3,-3,1,10,28
1501930211008322,-1,-5,20,-8,-3,-5,-25,-7
1501930211010270,-14,-4,-39,7,-2,-5,-1,-1
1501930211010270,-2,0,49,14,-4,1,3,11
1501930211023324,-7,2,2,-18,-4,-3,-19,-2
1501930211023324,-8,10,67,11,3,5,14,-3
1501930211030323,-9,-13,-70,-4,4,-2,-9,-9
1501930211030323,-13,5,-13,4,-6,-4,-10,4
1501930211046284,-13,1,5,15,6,2,4,-7
1501930211046284,-12,-6,-7,5,1,-4,-13,11
1501930211048277,-33,2,-13,-13,3,9,43,-59
1501930211048277,15,10,33,-4,-8,-5,-14,0
1501930211068324,-24,8,25,23,4,3,21,-16
1501930211068324,-24,-1,-64,2,-8,-1,4,8
1501930211070285,-27,17,105,25,4,-3,-18,-5
1501930211070285,5,-3,-29,-9,-6,-8,-16,-3
1501930211083286,-25,2,21,-9,-2,1,11,26
1501930211083286,31,-8,-11,13,-1,-4,-34,-8
1501930211090267,10,-14,-44,3,-4,-2,11,-6
1501930211090267,-4,1,2,-12,-1,2,24,-28
1501930211106334,2,-5,-13,8,1,-3,-11,50
1501930211106334,57,-12,-4,-20,-4,4,34,-19
1501930211108304,-39,16,30,-5,-2,-5,-28,9
1501930211108304,6,15,42,17,12,7,30,2
1501930211128293,-20,-19,-27,-15,-5,-4,0,14
1501930211128293,79,26,78,0,-4,-2,-17,-31
1501930211130268,47,-9,-77,-22,-2,-6,13,38
1501930211130268,3,-6,5,0,-2,-5,-6,-5
1501930211142313,-40,3,41,6,4,4,6,-29
1501930211142313,-31,-5,-45,-5,1,2,15,20
1501930211151271,10,3,50,18,3,4,13,12
1501930211151271,-16,-5,-6,-1,-3,-5,-3,-7
1501930211166312,-11,1,-40,-18,-4,4,8,45
1501930211166312,6,-11,-46,-12,-1,1,36,-19
1501930211168272,-20,10,59,8,0,-3,-10,-8
1501930211168272,-2,-11,-13,6,2,6,8,4
1501930211188332,2,-1,-63,-5,-5,-9,-49,-40
1501930211188332,-49,-3,-3,2,-5,-5,2,-32
1501930211190272,5,-4,-3,-23,0,-2,-5,-16
1501930211190272,-35,-2,2,-5,-3,-4,-8,17
1501930211202336,7,8,20,4,2,3,-10,-21
1501930211202336,-16,-3,24,2,1,1,3,-19
1501930211211287,27,-7,-17,1,0,-1,-11,-2
1501930211211287,-37,16,40,15,4,2,-4,21
1501930211233295,17,-8,-25,-13,-3,3,32,10
1501930211233295,-39,-4,-1,-2,-2,-7,-56,13
1501930211235275,-20,-6,24,6,1,0,38,64
1501930211235275,38,-7,-30,-8,-2,4,20,-37
1501930211248318,5,4,17,6,0,-3,-6,3
1501930211248318,33,7,9,2,2,-2,-16,-2
1501930211250276,11,0,19,5,2,5,-7,-31
1501930211250276,11,-7,-60,0,0,2,17,-27
1501930211271296,-3,-3,61,-13,-7,-2,12,-8
1501930211271296,-26,-4,24,4,0,1,13,18
1501930211273298,61,-3,-21,-1,-4,-6,-52,-9
1501930211273298,53,-4,17,-8,-1,2,20,40
1501930211293279,27,0,-1,8,3,6,29,-11
1501930211293279,-27,2,32,-5,-1,0,2,27
1501930211295281,-44,14,27,5,4,-1,-1,-4
1501930211295281,-16,0,9,-12,-1,1,-32,-26
1501930211308290,-29,-7,-61,-4,-5,-4,5,52
1501930211308290,7,-7,-30,-9,3,5,5,38
1501930211316279,13,-4,59,17,-3,-1,5,-11
1501930211316279,-14,-2,51,15,1,-1,-18,-10
1501930211331324,12,-2,-31,-9,-1,3,4,6
1501930211331324,-17,-7,-32,-8,-3,-8,-33,-13
1501930211333281,-7,12,9,14,6,10,63,22
1501930211333281,-85,-15,-45,-33,-7,-6,-9,34
1501930211353323,-16,-7,18,-6,-4,-3,-33,-29
1501930211353323,-13,-6,2,-12,1,-6,-9,20
1501930211355282,4,-6,-7,25,-5,-3,-8,-27
1501930211355282,-14,7,-14,-65,2,4,6,0
1501930211376347,10,3,-1,21,3,-6,-38,16
1501930211376347,101,1,-81,-39,-10,2,23,-13
1501930211378312,-21,-2,-52,-21,2,-3,-17,0
1501930211378312,5,-5,13,51,0,-2,24,-8
1501930211391348,-1,-6,-1,11,-7,-8,-32,-31
1501930211391348,-48,16,59,16,6,2,0,19
1501930211393311,61,-13,-41,-23,-7,-4,-14,-2
1501930211393311,-17,-1,-8,30,0,-2,-12,26
1501930211413329,7,10,12,5,4,-1,-3,5
1501930211413329,-58,-19,-15,20,-1,-2,-1,-14
1501930211415285,14,0,-33,14,1,4,24,-3
1501930211415285,-43,10,-20,6,-3,0,-1,-15
1501930211428326,12,-6,-56,-58,-5,-2,-10,-8
1501930211428326,39,-1,17,35,8,4,25,15
1501930211435345,-5,-6,-36,-21,-3,1,3,-10
1501930211435345,30,-2,-17,-2,-6,-7,-21,6
1501930211451290,15,11,50,12,-1,1,34,-3
1501930211451290,-31,3,1,-7,-2,-4,-29,-77
1501930211453287,10,-6,39,15,2,-4,-17,6
1501930211453287,7,11,6,6,-1,0,4,-1
1501930211473289,-8,-7,-41,-47,-7,-4,-8,-25
1501930211473289,-3,3,-11,8,-2,-2,-2,37
1501930211475288,-25,0,45,13,5,3,12,-6
1501930211475288,25,-5,40,-28,-5,-5,-6,-22
1501930211488343,-7,-12,-57,7,-4,-7,-21,-8
1501930211488343,39,-6,57,-13,-1,3,29,15
1501930211495317,-16,12,-2,8,0,1,-9,-11
1501930211495317,10,-2,18,-2,-4,-4,21,-2
1501930211511389,5,6,29,21,6,0,1,25
1501930211511389,-17,-3,3,-3,-2,-2,-6,-5
1501930211513294,-3,3,-18,-37,-5,-1,0,3
1501930211513294,0,0,4,31,-2,2,9,8
1501930211533353,16,-4,24,15,1,0,7,12
1501930211533353,39,8,13,1,-1,-2,-8,-7
1501930211535292,-23,-2,18,24,2,-1,-14,-5
1501930211535292,27,-4,-15,-20,1,2,1,20
1501930211548354,13,-3,-2,18,1,0,-7,-19
1501930211548354,-50,4,-47,-40,-4,3,7,-2
1501930211555322,42,-4,12,0,-4,-4,-6,8
1501930211555322,-6,-16,-21,-3,-1,0,-2,-2
1501930211571358,-15,-4,-28,-3,-4,-2,6,-8
1501930211571358,12,7,36,47,5,-1,1,4
1501930211573307,-5,4,8,-86,-8,-3,4,11
1501930211573307,-1,-1,-15,-5,1,-3,-4,15
1501930211593307,-10,2,29,20,-1,-1,6,-16
1501930211593307,-8,13,-17,-3,-3,0,1,2
1501930211595310,12,-15,2,9,-3,-2,-7,10
1501930211595310,6,4,-8,8,1,-4,-21,-26
1501930211607360,6,-7,-3,-11,2,2,1,1
1501930211607360,-13,-3,4,-8,-9,-4,0,2
1501930211616316,2,8,-19,5,0,2,5,14
1501930211616316,-10,-8,-33,-10,-1,-2,-4,-1
1501930211631353,-6,5,50,13,3,3,8,-5
1501930211631353,0,1,-28,-25,-4,-3,-8,12
1501930211633311,16,-1,3,38,0,-1,1,7
1501930211633311,-2,-3,3,-22,1,-2,-12,-6
1501930211653353,-2,0,-3,1,-5,-3,-4,10
1501930211653353,-17,-16,-13,4,-2,-1,4,-22
1501930211655299,-4,5,-12,2,1,-4,-18,-21
1501930211655299,-12,9,64,5,5,4,3,2
1501930211667298,-8,-16,-22,7,-7,-2,8,16
1501930211667298,57,0,-15,5,4,6,6,35
1501930211676319,-33,-6,38,10,3,2,8,-47
1501930211676319,-3,3,9,11,0,-3,-11,-22
1501930211691360,-4,1,-56,-4,1,2,-5,3
1501930211691360,-35,-6,12,-3,-3,-3,3,3
1501930211693331,-17,-9,-25,-19,1,-1,-8,-1
1501930211693331,17,-4,-50,10,-3,0,2,27
1501930211713359,12,9,20,-10,0,-4,-7,-6
1501930211713359,-2,-7,1,6,-3,-4,-8,-2
1501930211715302,-1,2,-24,-8,-2,-1,6,16
1501930211715302,-17,-2,49,0,0,2,10,-22
1501930211727340,-15,-3,-37,-4,-3,0,6,5
1501930211727340,17,-9,-6,-8,1,-2,-8,-15
1501930211736303,-4,2,41,2,-3,-2,-3,-3
1501930211736303,-5,-2,-25,8,3,-1,-1,14
1501930211751305,4,0,7,-14,-3,-1,14,-8
1501930211751305,-19,1,-11,6,2,-2,-28,-4
1501930211753305,17,6,3,0,3,7,46,10
1501930211753305,-25,-15,-41,-5,-6,-3,-16,0
1501930211773358,-22,19,38,-6,3,4,2,8
1501930211773358,20,-8,-58,-3,-3,-2,0,-13
1501930211775305,-7,1,5,-1,-1,-4,-19,4
1501930211775305,-11,-13,-14,-17,-3,0,2,15
1501930211787365,5,-2,28,-1,0,0,7,-38
1501930211787365,-1,-7,26,12,-2,-1,4,-5
1501930211796327,-46,8,-38,2,-1,-2,-24,-33
1501930211796327,45,-3,11,5,-3,0,4,-6
1501930211811370,-1,-3,-5,-9,-3,-6,-13,11
1501930211811370,-6,3,-11,-6,1,1,8,-7
1501930211813317,16,-8,-42,-3,-2,-2,-6,11
1501930211813317,2,2,10,0,-1,0,-6,14
1501930211833370,8,12,-8,-6,1,-1,9,7
1501930211833370,-3,1,4,8,-2,0,18,-5
1501930211835308,-12,-5,53,8,1,0,-1,-4
1501930211835308,5,9,-5,-21,-4,-3,-8,-7
1501930211847377,-17,-7,23,1,1,0,-7,3
1501930211847377,-11,-8,-21,-3,-5,-3,0,15
1501930211856310,-18,1,44,11,4,0,-11,0
1501930211856310,19,-21,-36,-4,-6,-7,-21,-11
1501930211871355,5,2,31,3,-1,1,8,5
1501930211871355,-27,10,48,-3,4,5,6,14
1501930211873316,-3,-7,-9,-7,-4,-2,1,-14
1501930211873316,-2,6,-29,10,3,-1,-21,12
1501930211894317,-2,-14,-18,28,-2,-3,5,1
1501930211894317,-18,-4,-20,-55,-7,-6,-19,-5
1501930211895317,11,-10,-5,1,0,-1,-4,3
1501930211895317,-33,24,8,5,0,3,28,32
1501930211907384,-19,-6,-4,10,-3,-3,-11,-42
1501930211907384,-5,5,-7,18,2,0,-10,-4
1501930211916316,13,2,-18,-8,-3,4,33,4
1501930211916316,-13,-15,0,-1,-1,1,21,-1
1501930211931349,54,5,11,-24,-5,-4,-10,9
1501930211931349,-48,20,101,8,2,1,-6,1
1501930211933318,-40,1,1,-12,-4,-4,-15,-16
1501930211933318,7,-3,-16,8,-2,0,16,-7
1501930211953380,-6,-8,-16,-5,2,3,7,10
1501930211953380,13,-8,19,-1,-2,-3,-16,-12
1501930211955330,40,10,-23,1,-2,-2,-3,6
1501930211955330,-11,7,39,2,2,1,1,-5
1501930211967359,-25,0,-12,-5,-4,-6,-18,-8
1501930211967359,30,-5,-32,-9,1,1,8,16
1501930211976318,-20,-2,-2,3,1,4,32,13
1501930211976318,9,6,38,-2,-2,1,15,-19
1501930211991320,-13,-4,-20,6,4,-1,-14,11
1501930211991320,-8,-4,-6,-2,-2,-3,10,5
1501930211993320,-16,-12,0,1,-2,-1,-14,-25
1501930211993320,4,3,47,6,-1,1,-8,-5
1501930212013331,-19,6,-20,-18,-5,0,-2,8
1501930212013331,5,-8,-1,-2,-2,-1,14,-1
1501930212015322,13,8,8,7,-5,-7,-29,-3
1501930212015322,0,4,0,9,3,5,19,0
1501930212027325,-55,-3,-14,-9,-7,-6,-6,-2
1501930212027325,2,-3,-4,12,6,5,1,2
1501930212036323,0,-13,-36,-28,-6,-1,-16,-3
1501930212036323,7,-3,16,6,-1,0,-1,1
1501930212051357,-15,9,13,-2,-3,-1,9,7
1501930212051357,36,3,-3,1,-2,-2,-9,5
1501930212053326,-12,-8,-17,9,4,-2,4,-10
1501930212053326,-35,0,-7,2,-2,-3,-11,-5
1501930212073327,10,-2,1,-7,-2,-3,-6,5
1501930212073327,-18,0,8,5,-4,-4,3,-16
1501930212075325,-2,1,27,7,1,-1,-6,8
1501930212075325,23,4,25,-2,-3,-5,-18,10
1501930212096327,18,-12,-4,-1,0,-1,1,1
1501930212096327,2,0,18,-3,1,1,11,-5
1501930212098332,-6,-1,-44,-6,-1,-2,-3,7
1501930212098332,24,-8,10,-1,-1,1,-8,-8
1501930212111364,19,7,-20,2,2,3,5,-3
1501930212111364,-18,-3,2,-2,0,-1,-16,-7
1501930212117367,5,-8,-11,2,-3,-4,-2,-1
1501930212117367,9,-3,-16,-10,-4,-2,-7,0
1501930212133330,-62,-14,-1,-2,-3,-3,7,-6
1501930212133330,9,2,-10,6,1,1,-3,22
1501930212135329,11,-6,7,-3,-1,-4,-14,-18
1501930212135329,-21,-3,-24,-3,0,-2,-4,-6
1501930212156363,12,-5,7,-7,-2,-6,-4,2
1501930212156363,0,-2,-10,6,-2,-2,2,-2
1501930212158333,-2,3,1,-3,0,1,-9,18
1501930212158333,-4,-2,27,-2,0,1,7,4
1501930212171359,1,-2,-16,4,0,-4,-16,-16
1501930212171359,-29,9,-8,-6,-4,-6,0,-7
1501930212173332,16,-1,-1,3,2,3,21,-2
1501930212173332,-7,-8,-31,-2,-3,-4,-2,28
1501930212193342,19,-15,4,0,1,2,-10,-14
1501930212193342,-19,11,17,1,-4,-2,0,9
1501930212195365,-27,10,14,2,-1,1,10,2
1501930212195365,13,2,-10,9,-5,-3,-4,1
1501930212216333,-4,7,1,-15,-1,2,17,0
1501930212216333,4,-6,-20,3,-1,-2,-12,-9
1501930212218334,-13,3,16,1,-1,-1,-6,7
1501930212218334,35,13,27,4,2,-3,-12,14
1501930212230356,9,9,-24,8,1,-1,-20,-2
1501930212230356,-2,-14,32,1,-3,-2,-1,-15
1501930212237399,6,-2,-11,4,2,-1,-6,-12
1501930212237399,-19,-6,4,-8,0,1,6,-21
1501930212253378,34,0,21,5,-2,-5,-10,12
1501930212253378,7,-5,-41,-9,1,4,3,-4
1501930212255337,16,-1,45,-3,-3,-4,3,23
1501930212255337,-8,-7,-26,-10,-4,-2,-9,-4
1501930212276369,-3,4,5,10,4,5,38,-16
1501930212276369,19,-24,0,-3,-7,-2,28,22
1501930212278337,2,12,17,-2,0,1,5,-18
1501930212278337,-13,3,-22,-1,1,-1,-11,-4
1501930212290370,-12,-2,-2,-4,-4,0,7,35
1501930212290370,3,7,2,7,5,0,5,-4
1501930212297339,0,0,-44,-4,-1,0,-1,-10
1501930212297339,-7,-9,-10,-3,-3,-3,-10,-3
1501930212313381,12,-3,1,2,-1,0,-9,6
1501930212313381,-13,2,6,-1,-1,-4,-9,-10
1501930212315340,44,-2,-12,-11,-6,-5,-9,4
1501930212315340,-8,2,-26,4,2,1,6,-12
1501930212336406,-17,-6,15,2,1,-1,-13,1
1501930212336406,16,8,-7,-3,1,4,12,5
1501930212338341,-32,-6,15,5,-1,-3,-13,-3
1501930212338341,-2,-8,-22,-9,-2,0,11,7
1501930212350411,9,2,10,2,0,-2,0,-9
1501930212350411,-6,4,-5,-1,0,-1,-8,2
1501930212357378,-7,-12,-34,-4,-1,-4,-19,3
1501930212357378,10,10,30,-1,-6,-2,12,8
1501930212373355,8,0,-6,3,1,0,2,-8
1501930212373355,-13,-2,-9,-4,-3,-4,-10,5
1501930212375344,6,0,6,-1,-4,-2,1,-5
1501930212375344,-13,-7,-12,-4,1,-2,-21,-14
1501930212396385,-12,1,-13,-6,-4,-2,-5,11
1501930212396385,32,16,8,3,4,4,8,23
1501930212398345,-13,-1,-9,-3,0,1,8,-41
1501930212398345,1,9,18,-2,-3,-3,-6,2
1501930212410362,-8,-8,2,-2,1,-2,-6,-3
1501930212410362,-2,-5,17,2,-2,-3,-4,-24
1501930212419345,0,-1,-59,-7,0,0,5,24
1501930212419345,-29,-1,1,9,2,4,5,-14
1501930212433384,24,-6,2,-1,-2,1,12,8
1501930212433384,-9,-8,-16,-31,-7,-7,-5,-21
1501930212435345,-10,6,29,8,0,2,4,16
1501930212435345,10,-5,-5,1,-2,-2,2,-7
1501930212456352,12,2,-2,-2,0,-1,1,19
1501930212456352,-4,-1,-5,-4,0,2,8,-14
1501930212458348,-17,-15,6,0,-2,-3,-2,-12
1501930212458348,-6,3,-7,-7,1,0,-4,-5
1501930212470346,-7,6,6,4,-3,-3,0,-20
1501930212470346,7,-10,-9,2,2,-3,-19,5
1501930212477351,-10,-1,20,-4,-4,-2,-2,4
1501930212477351,11,-10,-53,-1,0,0,-5,-6
1501930212493350,-6,5,-27,-10,0,-2,2,-5
1501930212493350,-1,-3,38,10,1,2,20,25
1501930212495351,-18,2,-22,-2,1,2,4,-19
1501930212495351,8,7,26,1,-1,-6,-13,3
1501930212516353,-11,2,-2,0,4,4,0,8
1501930212516353,-43,-22,-35,-8,-8,-2,7,-41
1501930212518352,15,4,16,1,2,1,-3,28
1501930212518352,-7,-2,94,6,1,0,11,4
1501930212530380,3,0,-68,-10,-1,1,-10,-10
1501930212530380,6,12,29,5,1,0,-10,9
1501930212537382,11,-6,-5,-2,-1,2,7,8
1501930212537382,-11,-1,4,-1,-2,-4,-4,0
1501930212553372,-18,-7,-58,0,-2,0,9,-19
1501930212553372,-29,-3,-8,-6,-1,-2,-12,2
1501930212555355,16,4,-5,-7,-4,-3,-11,14
1501930212555355,38,-4,-42,3,-1,0,9,-10
1501930212576355,7,-7,43,8,1,1,0,-3
1501930212576355,7,0,-28,0,1,-2,-7,-22
1501930212578355,-12,8,37,7,4,1,4,10
1501930212578355,-35,-14,-45,-23,-5,-2,-6,8
1501930212590362,43,9,37,8,0,2,12,-13
1501930212590362,-13,1,8,-21,-3,-5,-17,-9
1501930212599359,-1,-6,-21,-5,-2,3,14,-2
1501930212599359,-18,-1,30,15,3,-4,-14,1
1501930212613404,96,-7,1,-6,-6,-7,-16,17
1501930212613404,-23,10,-54,3,3,3,19,18
1501930212615355,18,5,50,9,0,0,0,-11
1501930212615355,11,-12,-25,-7,-4,-5,-5,3
1501930212636422,-3,2,12,-4,1,2,-4,-7
1501930212636422,48,-1,5,19,2,0,-1,-5
1501930212638368,-9,-3,36,-4,-3,-1,-5,2
1501930212638368,17,7,5,-1,-3,0,5,5
1501930212650371,-56,-1,-1,-6,-1,-2,-2,-6
1501930212650371,34,-3,19,8,0,-4,-4,-12
1501930212659364,-13,-3,-30,-2,-2,-2,0,0
1501930212659364,0,1,26,4,-3,-2,-5,-7
1501930212673381,-16,-5,-17,3,-3,-2,11,11
1501930212673381,-12,2,22,-2,4,5,11,0
1501930212675360,72,14,-21,12,-3,-2,-8,-4
1501930212675360,-26,-7,-2,7,-2,-1,0,-21
1501930212696365,-63,-2,-16,-9,-2,-2,20,4
1501930212696365,-10,-2,-18,5,1,5,10,24
1501930212697365,-1,-2,11,-2,-2,-2,-2,-7
1501930212697365,1,3,-26,-3,1,1,18,7
1501930212710372,-3,0,17,0,-1,-3,-7,0
1501930212710372,16,2,-17,0,-3,-3,-30,-23
1501930212719360,-16,-4,-2,-1,-5,-10,-26,24
1501930212719360,3,-1,-4,1,0,7,26,-1
1501930212733400,-44,-5,23,-9,-1,0,-16,1
1501930212733400,14,1,-2,-5,0,3,1,12
1501930212735361,-11,-4,4,-3,-2,-4,-16,-4
1501930212735361,21,0,-14,1,2,2,18,-10
1501930212756409,5,2,29,1,-4,-2,0,25
1501930212756409,40,-7,-22,-3,-1,0,1,-14
1501930212757404,-47,5,-17,-7,-1,0,2,-12
1501930212757404,-15,-3,21,-2,-1,3,31,2
1501930212770376,15,1,5,7,3,2,-9,-18
1501930212770376,-23,-1,3,6,-1,0,22,5
1501930212778429,-22,-15,6,-5,-2,0,2,10
1501930212778429,37,7,-15,-7,3,-3,-18,-4
1501930212793409,-5,-3,-9,2,-4,-3,-4,-12
1501930212793409,24,4,15,-3,-5,-7,-5,-21
1501930212795370,-15,-7,11,4,2,4,14,-2
1501930212795370,-26,-1,-28,-4,-2,-1,2,4
1501930212816424,2,-1,19,-3,1,-3,-19,-37
1501930212816424,-12,-6,-19,-5,0,1,3,16
1501930212817407,23,-2,-8,-5,-4,-5,11,-9
1501930212817407,19,1,10,1,-2,-8,-31,13
1501930212830379,4,1,-4,4,1,2,-2,-6
1501930212830379,-51,-2,14,-8,-1,-4,7,-6
1501930212838415,43,-4,-6,5,3,3,-2,19
1501930212838415,-25,3,-3,-7,-2,0,-4,2
1501930212853391,20,11,-7,-2,-1,-1,-8,10
1501930212853391,27,2,13,1,-1,-2,2,-11
1501930212855370,34,5,-2,4,-2,-1,1,3
1501930212855370,5,-4,-3,-1,1,4,30,13
1501930212876416,105,-10,30,5,0,-6,-14,36
1501930212876416,-35,-6,-9,-3,-2,0,-31,-29
1501930212878374,-14,2,-8,-4,-3,-2,0,-13
1501930212878374,-4,-5,-23,-2,-2,-4,-24,-9
1501930212889434,11,-5,14,-6,0,-1,11,10
1501930212889434,8,5,0,2,0,2,16,29
1501930212899372,-34,4,-5,5,-1,-4,-14,-9
1501930212899372,-3,-2,-12,-6,-2,-4,-22,16
1501930212913417,-12,0,4,1,-2,3,8,-24
1501930212913417,2,0,8,2,-3,-8,-33,5
1501930212915373,30,-2,-37,-13,-3,2,11,-10
1501930212915373,-60,-3,-58,-11,-5,-8,-37,-22
1501930212936436,-62,-8,-1,-4,-1,3,46,-11
1501930212936436,64,-6,40,6,2,2,21,-5
1501930212938390,18,0,8,-4,-4,-8,-17,17
1501930212938390,3,-6,28,4,0,2,7,-33
1501930212950392,-28,20,-24,-6,-2,-3,-6,-11
1501930212950392,-7,4,-17,1,-2,-5,-14,-22
1501930212959380,2,-2,4,-3,0,-3,5,4
1501930212959380,17,-2,14,3,0,0,0,28
1501930212973423,-15,-6,-18,-10,-3,-2,-11,10
1501930212973423,-35,-11,-3,-13,-11,-14,-59,-1
1501930212979389,-24,-6,-28,0,1,7,66,-14
1501930212979389,-34,-2,-5,-4,1,-1,-19,-13
1501930212996441,68,-4,63,19,0,-3,-36,53
1501930212996441,-12,-1,-23,-10,-5,-2,-41,-38
1501930212997419,-35,-7,35,3,-2,-5,-43,-2
1501930212997419,40,-1,-9,2,3,5,24,55
1501930213018400,3,1,-23,-1,1,-6,-28,-63
1501930213018400,45,2,17,15,0,-6,-44,16
1501930213020379,36,12,30,-1,-1,1,24,27
1501930213020379,-25,-7,-17,-15,-3,2,7,-4
1501930213033400,-14,-8,-30,-4,-3,-8,-23,1
1501930213033400,-15,6,42,3,1,0,-9,16
1501930213035379,-22,-5,-33,-1,-2,-2,-17,-72
1501930213035379,1,18,37,9,0,0,48,-31
1501930213056441,-34,-22,-69,-4,-1,1,-8,-8
1501930213056441,-56,-7,49,-4,-4,-2,-8,23
1501930213057425,2,-1,-9,-14,0,6,61,0
1501930213057425,37,-8,25,0,-5,-5,-7,23
1501930213078404,-10,21,31,4,1,-2,-12,-36
1501930213078404,-40,9,-4,9,0,3,46,2
1501930213080383,-7,-14,-17,-9,-1,-3,-26,-7
1501930213080383,9,6,6,-7,1,-4,-7,-23
1501930213093423,-1,6,19,4,-3,-7,-29,-4
1501930213093423,62,4,-24,3,0,8,38,13
1501930213095390,7,-3,-3,-2,1,-1,-24,-1
1501930213095390,-52,0,-22,6,-3,-5,-33,23
1501930213116458,23,-6,20,4,-1,3,56,13
1501930213116458,15,-7,-31,-24,-2,1,27,16
1501930213117430,25,2,17,25,5,-2,-13,50
1501930213117430,2,4,-19,24,7,3,-6,-2
1501930213146397,3,-11,12,-93,-14,-4,-1,9
1501930213146397,-33,6,-13,9,3,4,36,-15
1501930213147396,40,-4,-6,-2,-2,-4,-27,-39
1501930213147396,-3,-14,5,6,-1,4,40,2
1501930213153407,-84,-4,-10,15,2,-4,5,58
1501930213153407,40,10,3,12,2,3,10,24
1501930213155386,-86,0,10,-29,-4,-5,-32,-19
1501930213155386,27,8,-32,8,-2,0,0,-18
1501930213176432,23,-6,-26,11,1,5,44,15
1501930213176432,-2,-2,-10,-11,-2,-3,-14,45
1501930213177429,-44,4,-5,21,-6,-17,-75,-14
1501930213177429,76,7,15,-23,-3,-1,-1,2
1501930213198449,-92,-2,-19,-5,2,0,-18,-25
1501930213198449,30,1,-12,6,4,2,16,-16
1501930213200390,-11,-2,32,0,1,3,27,6
1501930213200390,34,-9,-6,6,-2,-6,-26,-13
1501930213213431,4,-6,2,2,-4,-5,9,66
1501930213213431,3,8,8,-3,0,0,-5,-71
1501930213219398,-50,-6,-16,-2,2,2,15,18
1501930213219398,-19,4,40,-5,0,1,11,1
1501930213236391,11,0,-22,13,2,6,-1,-26
1501930213236391,-41,-10,-6,-9,-6,-13,-48,-15
1501930213237391,90,10,25,7,-1,7,51,27
1501930213237391,-56,-2,-11,-9,0,-5,-35,-7
1501930213258437,-14,-11,1,6,3,0,-9,-28
1501930213258437,-11,-11,-9,19,-2,0,14,9
1501930213260393,21,9,4,-5,-5,1,-2,-12
1501930213260393,-17,-7,8,-1,-1,-1,20,12
1501930213273437,29,9,-31,-3,2,1,6,-13
1501930213273437,17,0,27,9,1,0,-6,13
1501930213279393,-11,-7,-18,-3,1,0,-4,3
1501930213279393,-3,-5,16,-9,-2,0,-19,-2
1501930213296414,24,5,-7,17,0,5,32,4
1501930213296414,-25,1,-8,-6,-4,3,29,-20
1501930213297416,-9,-5,15,-2,1,0,-5,13
1501930213297416,-15,-4,-25,-6,-1,-1,-16,-43
1501930213318441,35,9,23,3,0,0,23,24
1501930213318441,-75,-8,9,-5,0,2,9,30
1501930213320396,46,7,-17,-6,4,5,5,2
1501930213320396,-26,-21,-1,2,-2,-2,-10,12
1501930213333444,-5,11,37,16,5,7,16,13
1501930213333444,-28,-2,4,-8,-1,-5,-34,-40
1501930213339484,39,3,-56,4,-1,2,23,1
1501930213339484,-56,4,36,3,-3,-6,-35,17
1501930213356441,44,-15,-24,1,-3,7,27,-32
1501930213356441,13,-1,7,1,0,-3,-8,6
1501930213357438,-44,-2,-9,-3,-1,-7,-14,-2
1501930213357438,32,8,7,-5,1,1,10,-17
1501930213378420,-12,20,11,-3,1,-2,-3,-2
1501930213378420,9,-17,-22,-7,-6,-4,-12,-7
1501930213380400,-2,4,16,6,0,3,15,-23
1501930213380400,7,-4,-77,-6,-2,3,28,-11
1501930213393399,6,-4,5,-24,-3,-4,-17,-10
1501930213393399,-2,-2,-4,-4,-1,-3,-26,-12
1501930213399406,6,0,60,6,-1,2,21,46
1501930213399406,56,-1,-10,2,-4,-4,0,-23
1501930213416441,-36,1,2,12,0,2,0,-19
1501930213416441,6,-6,-39,-4,-1,-4,-11,10
1501930213422463,-19,-18,14,3,-3,-4,-20,-7
1501930213422463,-13,-1,18,-6,1,0,3,6
1501930213438453,9,-8,-10,-14,-11,-5,-13,24
1501930213438453,23,0,11,3,-3,7,60,-8
1501930213440404,-23,-1,-28,0,-3,-10,-46,-27
1501930213440404,-8,-2,-11,-15,2,4,2,9
1501930213453425,1,7,13,-12,-1,-10,-45,-18
1501930213453425,6,6,15,27,-3,6,28,11
1501930213459450,-31,-10,-14,-3,0,2,9,-21
1501930213459450,16,4,42,6,-1,-4,-22,-18
1501930213476448,12,-6,-32,-1,3,-1,3,2
1501930213476448,-38,-8,3,-8,-1,-4,-20,14
1501930213477446,45,2,1,-2,-1,-1,11,3
1501930213477446,-11,8,22,8,0,-1,-1,10
1501930213498451,-13,-6,15,-9,-2,-4,-23,-16
1501930213498451,-6,-2,-16,0,-5,-4,-6,4
1501930213500406,44,7,-14,3,0,-1,-5,-5
1501930213500406,41,-6,-2,-2,-4,-5,-11,49
1501930213512450,-21,-4,37,10,1,3,20,-67
1501930213512450,80,0,-58,-28,-2,-2,-21,19
1501930213521425,-2,3,6,5,-1,-1,3,27
1501930213521425,15,-8,-34,-14,-3,-4,-5,-2
1501930213536455,2,-3,12,0,-3,-4,5,30
1501930213536455,8,-2,15,1,-3,-5,-17,-10
1501930213537450,-26,-5,9,-2,-1,-2,-6,-18
1501930213537450,50,13,-6,5,2,2,14,8
1501930213558452,1,0,-14,12,1,-2,-10,8
1501930213558452,-21,3,16,4,2,6,22,-10
1501930213560411,-6,-12,-1,2,-4,-1,9,24
1501930213560411,-27,7,-3,-3,-4,-4,-16,-14
1501930213572409,50,-5,16,1,2,2,-5,16
1501930213572409,7,5,17,-8,-1,-2,9,-31
1501930213581412,-28,4,-27,-10,-1,2,14,-17
1501930213581412,3,-6,29,6,-1,-2,-5,-8
1501930213596411,-17,-5,-16,1,-3,-3,-27,5
1501930213596411,10,2,-5,8,-1,-4,22,37
1501930213597413,4,-7,-26,-9,0,-4,0,-12
1501930213597413,-40,5,6,0,-1,-1,-11,-15
1501930213618457,-12,5,-8,5,2,3,14,27
1501930213618457,-16,-9,-7,-6,-3,-7,-38,-36
1501930213620413,-21,15,6,17,2,0,-8,19
1501930213620413,-8,-2,-5,-18,1,5,38,12
1501930213632413,-14,-8,0,6,-3,-4,5,-7
1501930213632413,2,10,12,-2,1,6,5,16
1501930213641414,-16,2,-14,-4,0,-1,3,24
1501930213641414,-24,0,17,3,0,-3,-6,-15
1501930213656417,-8,5,3,0,-3,-4,-18,5
1501930213656417,1,-6,-11,-4,-1,-1,3,2
1501930213657424,-6,-11,7,-12,-2,-7,-37,12
1501930213657424,-51,-5,-1,14,2,3,33,21
1501930213678482,37,8,-9,1,-3,-1,-3,-24
1501930213678482,-23,0,6,-4,-1,-4,-18,8
1501930213680438,-13,-4,-8,-4,-2,4,28,-34
1501930213680438,1,0,2,1,0,-3,12,-7
1501930213692465,48,-2,12,0,4,5,3,2
1501930213692465,-103,-4,-19,1,4,5,3,-19
1501930213701418,19,-2,13,-7,-5,-1,7,15
1501930213701418,26,-4,12,5,-3,-3,-8,-12
1501930213716470,-19,-6,-27,-25,-2,1,17,-18
1501930213716470,56,-4,3,8,2,1,13,13
1501930213717461,-12,3,-14,-1,-1,-6,-18,-25
1501930213717461,-4,9,22,-2,-4,-2,-3,-5
1501930213738443,1,-15,-36,-3,-2,-6,-18,25
1501930213738443,4,6,32,-1,0,4,41,11
1501930213740445,-14,-13,-6,0,-2,-1,0,-42
1501930213740445,58,-6,-15,-5,-2,-4,-6,4
1501930213752419,-32,8,12,4,0,-2,-6,-15
1501930213752419,2,2,-9,-2,0,-1,2,15
1501930213761430,20,-2,0,-4,-3,-2,-13,19
1501930213761430,-16,-15,-2,0,1,5,42,0
1501930213776445,-46,-3,-25,-5,-4,-5,-7,-13
1501930213776445,12,8,7,6,1,-3,-12,-11
1501930213777446,9,-1,-20,-3,2,-5,-32,-9
1501930213777446,-47,-14,-44,-26,-5,-6,-49,-18
1501930213798435,-4,2,2,14,4,8,43,24
1501930213798435,69,-27,8,-5,-8,-7,-3,-35
1501930213800429,32,21,15,3,-1,-3,-8,6
1501930213800429,-21,-7,-7,4,1,2,4,20
1501930213812471,-3,2,14,2,0,0,-25,-3
1501930213812471,-6,-4,-32,-4,0,-1,19,19
1501930213821425,5,0,15,1,0,0,6,12
1501930213821425,-1,-1,-10,1,-3,-3,-17,-18
1501930213836433,-17,-3,24,2,-1,-4,-27,7
1501930213836433,27,-7,-15,-7,-3,1,-9,39
1501930213837467,-27,-7,19,0,-4,0,12,-37
1501930213837467,-7,6,3,-4,5,2,15,-10
1501930213858433,-4,5,-15,13,-1,1,19,10
1501930213858433,-18,11,18,1,-4,-9,-36,19
1501930213860431,-23,-22,-20,-15,0,4,28,14
1501930213860431,15,3,-12,1,2,2,-6,5
1501930213872490,3,4,-1,-7,-3,-5,6,-34
1501930213872490,-34,-4,-7,5,2,0,5,-6
1501930213881428,6,8,-9,0,3,-1,1,9
1501930213881428,-1,1,12,17,0,1,9,5
1501930213896479,-1,3,14,-13,-2,-7,-48,-8
1501930213896479,43,8,-7,5,1,11,46,25
1501930213897471,-76,2,18,-1,0,0,-12,-38
1501930213897471,60,3,-9,-1,1,1,-9,-3
1501930213918452,-9,3,-9,-4,-3,-1,-7,-7
1501930213918452,12,-1,22,-1,0,-4,-13,-12
1501930213920431,-4,-1,-10,7,-2,0,18,37
1501930213920431,-17,2,0,-5,-3,1,21,-16
1501930213932453,-13,-12,1,2,1,1,12,2
1501930213932453,1,6,14,-2,2,-1,-11,-18
1501930213941431,30,-5,-22,9,1,5,20,9
1501930213941431,-22,1,15,6,1,-3,-12,22
1501930213956479,41,6,16,0,2,0,4,-10
1501930213956479,-50,-12,-63,-12,-5,-1,-12,-3
1501930213957432,17,11,53,-3,-1,-1,-8,-6
1501930213957432,89,-1,2,11,1,0,-6,39
1501930213978504,-59,-3,-10,5,2,7,12,-25
1501930213978504,-36,0,-6,-8,-4,-5,-26,-12
1501930213980434,16,3,-31,-12,-2,-5,-5,2
1501930213980434,-4,-4,2,-7,-4,-9,2,-4
1501930214001476,-31,10,27,9,-3,-2,-6,0
1501930214001476,14,0,-40,0,4,3,17,-10
1501930214002476,-19,-4,27,-15,-5,-2,9,1
1501930214002476,-61,-6,16,-13,-5,-4,-12,-19
1501930214016457,4,-7,-37,10,-1,3,15,20
1501930214016457,-4,-2,11,2,0,0,14,-4
1501930214017436,15,7,-3,4,1,-2,-10,8
1501930214017436,-7,-4,-40,-6,-2,1,2,-17
1501930214038480,-23,0,31,-9,-4,1,7,-3
1501930214038480,48,12,34,1,4,4,14,9
1501930214040437,-4,-1,-5,0,-3,-9,-31,-10
1501930214040437,-17,-1,-3,-2,-1,-2,-23,8
1501930214061482,-3,-11,-10,-11,-7,2,27,-4
1501930214061482,15,0,65,8,-1,-8,-33,16
1501930214062445,-25,-13,-63,-10,-4,-2,-6,-19
1501930214062445,-3,7,16,2,-1,-2,-5,-9
1501930214076483,8,-9,11,0,-1,-5,-5,-17
1501930214076483,-25,1,-26,-10,-4,-3,-8,4
1501930214077479,25,2,20,11,0,1,6,10
1501930214077479,16,-2,-14,-2,-3,-5,-12,-10
1501930214098484,-11,-16,-6,-8,-1,-1,-11,3
1501930214098484,-6,-2,-7,1,-1,-1,-3,-10
1501930214100442,10,-11,33,10,-2,0,3,5
1501930214100442,-29,-2,-33,-16,-2,-11,-70,-25
1501930214121453,17,8,16,4,1,2,6,16
1501930214121453,0,-19,-11,-3,-3,-5,-19,-29
1501930214122449,4,14,-9,-11,-1,0,16,6
1501930214122449,-18,-1,26,21,1,1,-3,0
1501930214135507,27,8,10,-10,0,0,-3,3
1501930214135507,-9,4,-15,-6,1,-1,-5,-7
1501930214142443,6,-2,-2,3,-2,-3,-18,-4
1501930214142443,-14,-7,4,1,1,8,21,-11
1501930214158466,14,-4,-35,-4,-1,0,-18,24
1501930214158466,-89,7,15,2,-3,-2,11,-33
1501930214160444,-10,6,12,-1,4,0,1,-3
1501930214160444,23,0,13,3,-1,2,21,12
1501930214181487,-4,-2,-55,8,0,-3,-14,-2
1501930214181487,34,-5,-9,0,-3,-4,-28,-3
1501930214182451,33,1,-15,-17,-2,-3,-24,0
1501930214182451,-5,8,17,2,-2,2,36,5
1501930214195464,8,-3,-17,1,-2,-7,-32,0
1501930214195464,30,-5,1,6,-2,3,42,35
1501930214202451,-26,10,-7,5,3,-2,-1,-9
1501930214202451,-4,-15,-5,-7,1,4,19,18
1501930214218492,10,-4,10,-1,-3,-3,12,19
1501930214218492,-35,-8,-9,-9,-3,-4,-26,-12
1501930214220449,-17,-11,-49,5,-3,2,16,-7
1501930214220449,2,9,-24,-7,-4,-7,-35,0
1501930214241514,-20,5,24,4,1,2,33,-13
1501930214241514,14,-8,-8,-6,-1,-1,-9,68
1501930214242473,-32,-10,7,1,-2,-3,0,-15
1501930214242473,0,1,-17,-10,-3,-1,2,2
1501930214256477,3,-7,-10,-10,-5,-5,-15,-34
1501930214256477,-4,3,7,4,-2,0,9,18
1501930214262492,17,-11,19,6,0,-4,-11,-11
1501930214262492,-2,10,21,10,4,2,15,-20
1501930214278475,-69,3,-5,-10,-2,4,20,4
1501930214278475,21,8,3,-2,-2,-7,-10,-48
1501930214280451,-46,-23,1,-11,-3,-2,1,-29
1501930214280451,-20,7,8,17,2,3,-6,-17
1501930214301459,30,-7,22,-2,-5,-3,-4,-4
1501930214301459,-27,-1,-26,-7,0,-5,-31,30
1501930214302453,-38,4,1,-2,-2,4,19,-8
1501930214302453,38,-3,2,-7,-2,1,4,-22
1501930214315475,0,5,8,8,2,5,18,27
1501930214315475,-38,-3,15,-1,-1,-1,4,-17
1501930214322454,22,5,12,-1,1,0,-4,15
1501930214322454,-27,-5,3,2,-2,-1,3,13
1501930214338522,-3,3,-26,0,1,0,-3,-3
1501930214338522,40,-9,32,-5,-4,0,15,-26
1501930214340455,20,1,2,-2,0,1,7,21
1501930214340455,16,-6,-3,3,-1,1,6,-5
1501930214361514,7,1,-3,-4,-3,-4,-17,-3
1501930214361514,-8,-13,4,0,0,3,25,-9
1501930214362459,13,9,-2,7,-3,-7,-10,21
1501930214362459,-15,-7,-4,-7,-1,-2,1,66
1501930214375504,-18,7,4,1,-2,-3,-25,-28
1501930214375504,-16,2,-3,-1,3,6,7,2
1501930214382554,29,6,22,1,2,4,5,1
1501930214382554,-18,-1,17,0,-1,-2,6,2
1501930214398505,-6,-21,-68,0,-2,0,1,-2
1501930214398505,-12,11,5,3,-1,-7,-14,-1
1501930214400475,22,4,21,-9,-3,0,6,6
1501930214400475,13,3,-10,7,-4,-7,-17,-28
1501930214421500,19,4,14,-9,1,-1,2,5
1501930214421500,-14,-8,-16,7,0,-2,-10,-13
1501930214422465,-9,4,-12,2,4,2,-2,22
1501930214422465,45,-14,3,-10,-6,2,49,-6
1501930214435526,14,5,15,0,-3,-5,-12,-25
1501930214435526,39,7,-20,4,0,2,-7,-26
1501930214442508,-36,-1,12,-11,0,-1,0,-18
1501930214442508,-12,-10,-6,1,1,1,-2,14
1501930214458484,0,3,-11,-5,-1,-2,-3,2
1501930214458484,7,2,7,1,-4,-3,8,17
1501930214460464,15,-1,-4,7,-1,-4,-21,8
1501930214460464,-69,-7,-17,-2,-1,0,4,-27
1501930214481510,22,-3,12,0,0,-1,8,11
1501930214481510,-3,9,21,-3,0,5,4,12
1501930214482478,-2,-12,-13,1,-3,-3,-1,-4
1501930214482478,-14,1,-15,-2,-1,-1,-6,17
1501930214494504,5,-2,10,0,0,-3,-6,1
1501930214494504,-6,-2,8,-6,1,-2,1,7
1501930214503505,-7,2,-3,7,-2,1,8,0
1501930214503505,5,1,12,-11,-2,-2,-9,-14
1501930214518486,2,-4,10,6,-2,0,-12,-2
1501930214518486,-18,1,-15,0,0,-1,2,-1
1501930214520465,5,-4,-3,0,-1,1,-2,-8
1501930214520465,11,6,8,-7,0,1,-4,-2
1501930214541488,1,-2,1,5,-5,-4,-1,6
1501930214541488,-15,-3,-2,-2,1,0,3,-6
1501930214542470,1,-1,-5,-5,-1,-2,4,-9
1501930214542470,7,1,3,3,0,-1,-13,2
1501930214554508,-3,2,1,-5,2,2,2,-3
1501930214554508,0,-2,15,-1,-5,-5,1,0
1501930214563505,2,-1,-18,1,0,1,-4,14
1501930214563505,10,3,2,1,-3,-3,0,2
1501930214578510,0,-2,-1,0,-1,-1,2,3
1501930214578510,-7,2,1,-2,-2,-4,-7,-1
1501930214580469,21,1,17,-4,-4,-5,-9,5
1501930214580469,-23,-2,-4,2,0,0,-13,-20
1501930214601518,5,-1,18,3,4,9,22,6
1501930214601518,7,-1,-39,-6,0,4,5,1
1501930214602503,-12,-2,9,-5,-7,-21,-9,-4
1501930214602503,2,0,-1,-3,-4,7,-8,2
1501930214614541,-1,-2,-13,-1,0,0,-18,3
1501930214614541,5,-1,12,4,3,7,4,14
1501930214623471,-2,0,-16,-1,0,1,6,-8
1501930214623471,-6,2,11,4,0,-5,19,-15
1501930214638495,3,-2,1,-4,-2,-6,-11,4
1501930214638495,-2,-7,-37,-6,-2,2,18,-2
1501930214640479,2,-5,5,-4,-3,-4,-21,-1
1501930214640479,-15,3,19,6,0,2,23,-17
1501930214661497,20,9,0,1,0,0,13,-8
1501930214661497,-23,-1,2,-5,0,-3,-11,-2
1501930214662490,-17,-7,-8,5,-2,0,0,-23
1501930214662490,15,3,-3,-3,-2,0,-15,18
1501930214674539,6,-4,8,1,1,-3,5,11
1501930214674539,-3,0,5,0,3,5,4,-13
1501930214683516,8,4,-9,-5,-1,0,1,26
1501930214683516,-10,0,-2,4,0,3,0,0
1501930214698522,-17,-10,-33,-10,-6,-9,-9,2
1501930214698522,-2,2,24,3,-4,-6,-24,1
1501930214700476,1,0,-1,-4,1,2,-6,-13
1501930214700476,20,-10,-14,-1,1,10,27,24
1501930214721527,-7,4,5,-2,-1,-1,5,-13
1501930214721527,2,-6,-18,-1,-3,-2,-1,-3
1501930214722482,-3,-6,18,-1,2,5,7,-4
1501930214722482,-19,9,-21,-2,-2,-11,-25,-5
1501930214734485,11,2,27,-1,-2,-1,3,-17
1501930214734485,14,-2,4,8,1,0,-3,1
1501930214743525,1,5,9,-3,-1,2,23,14
1501930214743525,6,-17,2,-5,-1,-7,-13,17
1501930214758521,-8,1,-19,-2,3,4,4,5
1501930214758521,-4,8,40,0,-2,-5,0,0
1501930214760480,-6,-5,-23,9,0,4,-27,-3
1501930214760480,-25,0,-7,1,-1,-1,8,13
1501930214781526,-3,-4,-17,-7,-3,-3,-8,-8
1501930214781526,-2,-7,-3,-6,-3,-2,-1,-9
1501930214782486,-10,0,8,7,-1,-2,-6,-2
1501930214782486,0,1,-8,-2,-2,-3,-28,-9
1501930214794522,5,0,4,5,2,6,29,11
1501930214794522,4,-2,6,1,2,-1,-13,6
1501930214803505,-1,-4,-19,-6,-2,1,6,-21
1501930214803505,43,-4,7,2,-4,-7,-2,3
1501930214818490,-17,5,25,-3,0,-2,4,-1
1501930214818490,7,-3,-18,-7,-3,-5,5,22
1501930214820484,-4,-1,21,5,0,0,10,-15
1501930214820484,3,-8,-16,-2,0,5,1,-16
1501930214841491,-1,2,7,-2,0,1,-6,10
1501930214841491,2,-3,0,-1,-7,-3,-12,-10
1501930214842484,24,12,12,2,0,-2,-4,16
1501930214842484,-24,-14,-15,1,-5,-5,-8,-24
1501930214854552,-8,0,22,-2,-2,-3,-19,-15
1501930214854552,-14,1,-13,-5,-1,0,2,8
1501930214863505,10,-6,-19,-1,-4,2,15,12
1501930214863505,0,6,83,-2,-3,-2,-3,-12
1501930214878540,-1,15,-28,0,0,-2,-12,12
1501930214878540,-30,-6,46,11,2,3,3,-4
1501930214880487,11,-1,21,-4,-1,-2,-6,-1
1501930214880487,-6,-2,-9,-7,-3,-2,6,6
1501930214901557,3,-17,-11,-1,-3,-6,-4,3
1501930214901557,12,1,-50,-3,3,-2,-8,-11
1501930214902505,23,0,-17,-2,2,8,40,-14
1501930214902505,-24,6,-12,-1,-2,1,5,-11
1501930214923492,-7,0,-3,1,-1,-1,2,-4
1501930214923492,11,2,29,-2,-3,-4,2,-21
1501930214925494,-9,-9,-9,-4,1,-3,-24,8
1501930214925494,3,2,5,3,-1,-4,-23,7
1501930214938528,18,-8,-37,-6,-6,4,28,-10
1501930214938528,-6,-1,13,-2,-2,-1,-15,-23
1501930214940490,-61,-9,-15,-4,-1,-1,2,-17
1501930214940490,7,6,19,9,1,-2,-1,-11
1501930214960507,-18,6,15,5,-2,-5,-9,-6
1501930214960507,24,1,-26,-6,-1,-1,3,19
1501930214961492,-20,-2,8,-2,-4,-3,-14,-3
1501930214961492,36,4,-19,-1,1,1,3,18
1501930214983492,5,-17,13,-1,-4,-4,2,-1
1501930214983492,23,9,-34,6,4,-1,-24,-2
1501930214983492,-7,9,24,3,-2,3,21,23
1501930214983492,-11,-7,-9,-20,-2,-2,10,-4
1501930214998492,10,5,-40,4,2,0,-4,-21
1501930214998492,-13,1,68,-1,-6,-3,-9,-12
1501930214998492,9,0,-1,1,0,0,-1,3
1501930214998492,2,-1,-47,0,-1,-2,-3,7
1501930215020542,-18,3,40,1,1,2,-21,2
1501930215020542,18,-4,-15,-4,0,4,27,-3
1501930215021500,22,0,21,1,-4,-4,-13,5
1501930215021500,-22,0,-15,3,2,3,19,-12
1501930215043508,49,-4,41,-4,-1,-5,-26,-17
1501930215043508,-15,16,-35,-1,-3,-3,5,-49
1501930215043508,7,-14,4,-7,-5,6,24,15
1501930215043508,-3,1,25,4,1,-2,-16,-15
1501930215058512,-7,-5,-21,-7,-2,-3,-1,3
1501930215058512,-14,-4,3,2,0,2,-7,15
1501930215058512,1,1,-22,3,1,-2,8,-10
1501930215058512,13,3,-18,-9,-2,0,5,22
1501930215080496,-30,-6,-5,5,-3,-2,5,2
1501930215080496,1,-2,3,-3,2,-1,11,5
1501930215088521,-9,2,-20,-1,0,-5,-24,-10
1501930215088521,5,-11,-13,2,-1,2,6,30
1501930215102498,-23,1,-9,-6,-3,-4,7,-5
1501930215102498,-13,2,-31,-9,-4,-1,-9,-7
1501930215103499,13,-12,15,0,-2,-3,-7,-2
1501930215103499,-4,-9,-5,-1,1,-2,8,4
1501930215118511,-35,2,14,3,0,0,-17,26
1501930215118511,-9,-7,-4,0,-1,2,19,2
1501930215118511,-1,3,-22,-1,-2,-4,-7,6
1501930215118511,-17,1,6,-8,-6,-5,-3,-10
1501930215140549,10,3,-10,3,3,4,9,8
1501930215140549,-12,-21,25,4,0,1,-2,-6
1501930215141501,-2,12,16,-5,-1,1,3,11
1501930215141501,5,-5,-2,4,0,-2,-17,3
1501930215162501,27,9,5,-3,1,7,22,17
1501930215162501,0,4,30,1,-1,-1,25,-16
1501930215163503,5,-1,25,8,2,1,-19,-5
1501930215163503,-45,3,-11,-2,-4,-3,-4,-7
1501930215178515,-3,-8,-19,1,0,-2,-10,0
1501930215178515,8,1,5,0,-1,1,-2,20
1501930215178515,-9,-4,-50,-3,-1,-3,-6,-3
1501930215178515,12,1,-2,-1,0,1,8,-7
1501930215200548,7,2,12,-2,-2,-4,-11,-8
1501930215200548,3,-1,-4,1,0,0,-6,3
1501930215201505,5,0,-20,-8,-1,-1,-1,11
1501930215201505,21,-3,17,7,-2,-7,-26,3
1501930215222528,10,9,-38,4,3,2,33,-21
1501930215222528,-7,-4,14,1,1,-4,-16,4
1501930215223506,-9,3,1,0,-1,2,8,-5
1501930215223506,3,1,-27,-8,-1,-1,11,0
1501930215238520,-6,-18,-24,-3,-2,0,-1,7
1501930215238520,8,11,-30,0,-2,-1,2,12
1501930215238520,-9,1,18,6,0,1,-17,-9
1501930215238520,33,8,79,4,0,3,-1,3
1501930215260512,-42,4,-68,-11,-2,-2,-2,-3
1501930215260512,-4,-3,-5,-1,-1,2,7,-2
1501930215261519,-23,-7,-6,-1,-3,-4,-7,-5
1501930215261519,5,7,-9,6,1,1,5,19
1501930215282551,17,1,79,4,-1,-3,-6,2
1501930215282551,-21,-10,47,-2,-4,-4,8,3
1501930215283540,42,7,-98,-3,-2,-1,2,-11
1501930215283540,-12,3,22,0,2,-1,-2,-7
1501930215297554,14,-8,-8,-3,0,-2,-7,13
1501930215297554,-25,3,10,-1,-1,-3,-4,-27
1501930215305551,2,-9,4,0,0,-2,2,6
1501930215305551,-8,3,-23,-8,-3,-3,-1,-14
1501930215320519,-1,1,10,2,-2,-4,-16,-2
1501930215320519,23,-11,-7,2,2,0,-1,6
1501930215321514,0,2,27,-1,1,1,9,-7
1501930215321514,6,-8,-49,-3,1,0,-10,-16
1501930215343526,-20,-4,28,-1,-3,0,30,-9
1501930215343526,30,9,-27,-4,1,5,4,10
1501930215343526,-1,-13,-12,-2,-6,-8,-25,-12
1501930215343526,-45,-12,-2,-2,-3,-1,12,10
1501930215357554,2,4,12,2,0,-1,-23,-7
1501930215357554,12,-5,0,-1,-1,-1,6,8
1501930215365574,-32,1,1,4,5,3,6,-10
1501930215365574,14,7,54,-4,-4,-3,-12,-9
1501930215380582,-6,2,5,3,0,-3,-11,-8
1501930215380582,-17,-15,-90,-11,-2,-3,-7,15
1501930215381515,5,2,29,0,0,2,-8,-4
1501930215381515,-11,-5,-21,5,1,1,8,18
1501930215403531,27,-1,77,-4,-3,1,19,15
1501930215403531,-9,0,1,-3,-4,-3,-13,-2
1501930215403531,13,7,-3,-5,-2,-2,-1,9
1501930215403531,8,-4,-7,5,1,2,11,6
1501930215417561,6,-6,-10,-1,-2,-1,2,-1
1501930215417561,9,5,12,0,1,0,-3,3
1501930215425516,-38,-2,13,0,-2,-2,-1,-1
1501930215425516,35,3,21,-1,-2,-4,-9,1
1501930215440559,-20,-9,-37,1,2,-2,-19,-12
1501930215440559,-4,-4,25,0,-3,0,8,-5
1501930215441524,4,4,39,2,1,1,19,28
1501930215441524,14,-9,29,-3,-2,-3,-21,-13
1501930215463533,15,-1,-23,-4,-3,-2,8,11
1501930215463533,-2,-1,7,0,-4,-1,-12,-10
1501930215463533,17,3,20,-1,-2,-4,-7,-6
1501930215463533,-1,-3,-2,-4,-2,-4,-10,17
1501930215477561,2,0,-32,-5,3,6,14,-3
1501930215477561,0,2,24,3,-2,-2,-10,2
1501930215485544,26,7,-4,0,-1,2,7,-1
1501930215485544,-20,0,17,1,-1,-1,-2,-10
1501930215500544,-14,-2,-23,-2,-2,-1,-2,-9
1501930215500544,-23,-3,-14,3,2,-1,-16,-2
1501930215501543,16,-10,30,-10,-5,-3,-1,-6
1501930215501543,-15,2,-67,-1,-1,-1,5,-14
1501930215522522,-8,-2,-33,-6,-3,1,-7,3
1501930215522522,5,0,-16,1,-1,-2,2,-13
1501930215523523,-25,1,-21,-4,-4,-4,-7,6
1501930215523523,-15,-13,6,-2,0,0,-1,-7
1501930215538528,8,14,35,2,-2,0,-6,12
1501930215538528,-4,-9,2,4,1,-1,1,1
1501930215545547,17,1,-32,-2,2,2,14,-9
1501930215545547,7,1,-29,-1,0,-1,4,5
1501930215560535,-23,-8,48,-2,-3,0,2,11
1501930215560535,-9,5,-6,-5,-1,-6,-21,14
1501930215561583,1,-3,11,4,1,4,29,0
1501930215561583,2,2,-19,-2,0,1,4,-14
1501930215582573,6,2,17,2,-1,-3,-10,2
1501930215582573,-10,-3,-22,-7,-3,0,0,-4
1501930215583549,-9,-1,32,2,-4,-5,-18,1
1501930215583549,-8,-3,-51,-7,-1,2,6,14
1501930215597528,-17,-5,10,2,1,-4,-9,-44
1501930215597528,-5,-3,-17,-1,1,4,14,11
1501930215605582,2,2,-17,2,2,-3,-10,-4
1501930215605582,1,-4,9,-4,-2,-1,3,-1
1501930215620572,16,-6,-27,-4,0,-3,-3,-8
1501930215620572,1,2,33,0,1,-4,-8,-8
1501930215621552,-15,-4,-35,-4,-4,-2,-12,3
1501930215621552,6,-4,11,-1,-1,-1,8,13
1501930215643542,25,6,-11,2,2,1,-8,-23
1501930215643542,3,-11,7,1,1,0,22,26
1501930215643542,12,5,5,-5,-1,-3,-3,-8
1501930215643542,0,8,49,-3,0,0,-5,-6
1501930215657531,-1,0,-25,3,-1,-5,-5,8
1501930215657531,11,-7,-44,-6,0,2,8,-4
1501930215665530,-14,-8,13,-2,-1,1,-3,0
1501930215665530,1,4,-12,1,-2,-4,-5,-2
1501930215680531,-5,-4,-4,-1,1,-1,5,-1
1501930215680531,0,4,4,0,-1,0,-2,-10
1501930215681533,-12,-5,-28,0,1,0,7,4
1501930215681533,-1,3,17,0,-5,-4,-5,-13
1501930215703545,-3,0,-3,-3,0,0,-5,3
1501930215703545,1,2,-9,0,-2,0,1,-6
1501930215703545,-1,-2,-2,-2,1,-2,-18,-4
1501930215703545,2,-1,25,4,0,1,12,0
1501930215717599,-4,-2,-1,-1,0,2,-1,2
1501930215717599,4,4,1,-3,-5,-4,-7,-2
1501930215725592,-3,0,6,0,-3,-2,0,-3
1501930215725592,-2,-3,-10,-3,1,-2,-5,-2
1501930215740557,-4,-1,-5,-2,-2,2,9,3
1501930215740557,2,3,8,-1,-1,0,-7,-5
1501930215741535,0,-1,6,-1,-2,-1,4,-1
1501930215741535,-1,-1,-14,-2,-1,0,-2,-3
1501930215762598,-2,-3,0,-2,-1,-3,2,4
1501930215762598,3,3,4,-1,-2,0,0,-3
1501930215763566,-3,-4,-2,1,1,-4,-3,0
1501930215763566,-1,-2,-8,0,1,6,0,-2
1501930215787560,1,-1,3,-1,-1,-1,0,-2
1501930215787560,-1,1,6,4,1,-1,-1,0
1501930215788538,-11,-1,-5,1,-1,-1,4,-1
1501930215788538,0,-2,1,-11,-3,-4,-4,-4
1501930215800540,-1,-2,7,3,-3,1,2,3
1501930215800540,-4,-2,-16,-4,1,-3,-6,-5
1501930215801580,1,0,-2,-7,1,1,2,2
1501930215801580,0,0,5,11,-4,-2,-2,-2
1501930215822568,-3,0,2,2,1,-1,-4,1
1501930215822568,2,-2,-6,-8,-3,4,5,1
1501930215823568,1,-2,2,2,-1,-1,1,-1
1501930215823568,0,1,-5,-1,1,2,0,-1
1501930215845583,-10,-2,-3,-9,-4,-7,-2,3
1501930215845583,-3,-1,6,7,0,1,-2,-2
1501930215846586,-1,-1,-2,-3,0,-2,0,0
1501930215846586,-3,0,-5,-3,-2,-5,-5,-6
1501930215860553,3,-2,0,6,-1,2,0,2
1501930215860553,1,-3,-1,17,-3,-5,-2,-1
1501930215861549,-2,1,1,-17,-4,3,0,-1
1501930215861549,2,-4,-4,0,4,-2,3,6
1501930215882569,0,-1,-3,-1,2,3,-1,-3
1501930215882569,0,1,2,-6,-7,-4,0,-1
1501930215883550,0,-1,-1,-1,-2,-8,-4,-1
1501930215883550,-1,1,-6,-1,-1,5,-2,-2
1501930215905545,1,-1,-2,5,1,-7,-1,-5
1501930215905545,-4,-3,4,10,0,-3,-3,-3
1501930215906551,0,-1,-4,-43,-7,3,5,1
1501930215906551,-1,0,3,1,-2,-4,0,0
1501930215920606,-1,0,1,-1,0,2,0,-1
1501930215920606,1,1,1,-5,0,-1,-2,1
1501930215921565,0,-1,1,31,2,-1,-1,-2
1501930215921565,-1,-2,-2,-6,0,0,0,0
1501930215942548,-2,-3,-1,1,-2,-7,-1,1
1501930215942548,0,-1,1,10,2,0,-5,-3
1501930215943547,0,0,-3,-41,-7,-3,-3,-3
1501930215943547,-2,-2,-1,2,0,-3,0,-2
1501930215965554,-1,-1,-3,-6,-1,1,1,6
1501930215965554,-2,1,2,3,1,3,0,0
1501930215966553,-1,-2,2,14,2,-1,-1,-2
1501930215966553,-1,-2,-4,3,-3,-1,-6,-5
1501930215980549,0,-2,-3,-9,-2,-3,2,-2
1501930215980549,0,-2,-2,-8,-2,-1,3,5
1501930215981570,0,-1,-3,12,0,3,-8,3
1501930215981570,1,0,2,-6,0,1,13,0
1501930216002554,0,-1,-1,2,-2,0,1,4
1501930216002554,0,1,-1,-9,-3,-5,-4,-5
1501930216003550,-3,-2,-1,10,2,-3,-2,-1
1501930216003550,-2,0,-1,2,0,0,-3,-2
1501930216025573,-2,0,-1,-4,-1,-5,-3,-3
1501930216025573,0,-1,-2,-3,-1,5,4,-2
1501930216026589,0,0,0,5,2,1,0,0
1501930216026589,0,0,0,0,0,-3,-8,0
1501930216040553,0,-2,-1,-1,-1,0,4,-4
1501930216040553,-3,-1,-1,-7,-3,-5,-8,-2
1501930216041568,-1,-1,-1,7,0,0,1,-2
1501930216041568,-1,-1,-2,-4,-2,0,0,-3
1501930216062601,0,0,-2,-4,-3,-1,-3,-3
1501930216062601,-2,-2,-1,-1,-3,-2,1,0
1501930216063580,0,0,1,0,0,1,-1,0
1501930216063580,-1,-1,-1,1,-2,-2,-1,0
1501930216085597,-1,-3,0,-2,-1,3,0,-1
1501930216085597,-1,0,1,-2,-2,-2,-3,-2
1501930216086612,-2,-1,-1,2,-2,-3,1,0
1501930216086612,-1,0,-1,-3,-1,-2,-5,-2
1501930216100625,0,0,0,-1,-1,-4,-1,-3
1501930216100625,-1,0,-2,-3,2,9,-1,1
1501930216101600,-1,-2,1,3,0,-4,-4,-2
1501930216101600,-3,-3,-1,-1,-3,0,-1,-5
1501930216122605,0,0,-1,-3,-3,-4,-6,3
1501930216122605,-6,-3,-4,-3,-2,-4,-1,-18
1501930216123557,4,2,2,0,1,3,3,0
1501930216123557,2,0,1,2,1,-2,-3,-8
1501930216145597,-2,-1,-1,0,-1,1,-2,-4
1501930216145597,2,-1,-3,-4,-3,-5,-6,3
1501930216146602,-4,0,0,2,0,-1,-1,-4
1501930216146602,-1,-1,-2,-3,-2,-2,-3,1
1501930216160564,-2,-1,-2,1,-1,3,2,0
1501930216160564,1,0,0,0,0,-2,-1,2
1501930216161566,0,-1,-1,-2,-3,-2,-3,-17
1501930216161566,2,0,-1,-1,-1,-3,-9,3
1501930216182626,-8,-2,-1,-3,-2,3,0,-18
1501930216182626,5,2,2,-1,1,6,28,8
1501930216183589,-4,-2,-3,-1,-2,0,-1,7
1501930216183589,-5,-1,-2,-1,-1,-3,-6,-8
1501930216205636,4,-1,-2,-1,0,-4,-18,12
1501930216205636,0,-3,0,0,-1,-2,-6,-7
1501930216206603,-5,1,0,-1,1,-1,-5,-9
1501930216206603,-17,-6,-2,0,-2,1,7,17
1501930216220626,3,-1,-1,-3,0,2,9,-14
1501930216220626,0,-1,-2,0,-2,-5,-11,13
1501930216221585,-2,-2,0,1,-1,3,7,1
1501930216221585,4,-1,-1,-1,2,0,-2,0
1501930216242564,0,1,0,0,0,0,3,2
1501930216242564,-2,-1,-2,-3,-1,-4,-7,1
1501930216243565,1,-1,-3,-3,-1,-3,-7,-18
1501930216243565,5,0,-2,0,4,0,7,6
1501930216265629,0,-1,0,1,0,0,-2,3
1501930216265629,-5,-1,-1,-2,-5,-8,-39,18
1501930216266606,-2,1,2,2,2,6,39,36
1501930216266606,4,-1,-2,-5,-2,-1,-1,-20
1501930216280614,0,-1,-1,0,-2,-1,8,2
1501930216280614,10,-3,-2,-1,-1,-5,-21,-1
1501930216281614,-32,-3,-2,-1,-2,-3,-20,1
1501930216281614,-5,1,0,0,-1,0,16,25
1501930216302569,-1,2,1,0,-1,-2,-14,-6
1501930216302569,-11,4,0,-2,1,1,13,-11
1501930216303568,-21,-9,-5,-3,-3,-2,-2,-12
1501930216303568,9,0,1,-2,-2,-2,-1,1
1501930216325630,1,-2,-3,-1,-2,-1,0,2
1501930216325630,0,-3,-2,0,-1,1,1,-8
1501930216326603,8,2,-3,0,1,1,10,2
1501930216326603,2,-3,-6,-1,-1,-2,-17,-4
1501930216340629,-3,-1,-1,-1,0,-1,5,7
1501930216340629,15,-1,-3,-2,-2,1,15,4
1501930216341604,6,1,1,1,-1,-1,2,5
1501930216341604,7,1,1,-1,-2,1,3,5
