timestamp,emg1,emg2,emg3,emg4,emg5,emg6,emg7,emg8
1501928095796535,-13,-6,3,0,3,-10,-63,-26
1501928095796535,16,-2,0,0,-3,-10,-41,-28
1501928095798539,-8,-8,-2,-2,1,10,29,-42
1501928095798539,-4,1,-1,2,-2,-5,-35,-1
1501928095799536,-23,-10,-4,-4,-1,5,45,55
1501928095799536,13,6,2,1,-2,7,94,47
1501928095800569,-4,-1,-7,-4,-1,-10,-93,-10
1501928095800569,11,0,2,3,1,0,-15,-62
1501928095801538,-79,-1,-4,-1,-3,3,63,64
1501928095801538,64,-2,-3,-2,-6,-23,-106,3
1501928095811551,-24,0,5,3,3,14,52,21
1501928095811551,-62,0,-1,-3,2,3,14,28
1501928095824583,-19,11,-5,-2,-1,8,62,-45
1501928095824583,-77,-7,1,-1,-3,-4,-31,21
1501928095830607,3,0,-10,-5,-1,2,69,-49
1501928095830607,22,-6,1,3,-4,-13,-65,-33
1501928095839552,16,-1,4,1,-2,-2,-11,-12
1501928095839552,-58,1,6,6,7,12,31,-2
1501928095862541,42,8,4,0,-2,-6,-29,-53
1501928095862541,25,-13,4,-3,-3,3,10,84
1501928095863542,35,5,-6,-6,-4,-1,-19,-16
1501928095863542,-50,-4,3,-4,0,-1,-20,-54
1501928095915585,-11,8,7,10,4,9,1,-12
1501928095915585,22,-2,3,8,3,0,9,-32
1501928095916554,45,2,-2,-27,-11,11,51,17
1501928095916554,18,1,-2,-1,-5,-13,-41,-49
1501928095917577,15,3,3,-6,-3,7,-6,-16
1501928095917577,10,-1,1,11,5,7,32,50
1501928095920613,-23,-3,-2,7,3,-7,-16,2
1501928095920613,-25,-2,-3,-5,-4,-1,12,-23
1501928095921579,30,-5,0,0,-2,-3,18,23
1501928095921579,-35,-1,-1,-10,-8,-8,-18,-2
1501928095935578,30,-3,-1,5,2,-3,-15,-47
1501928095935578,-55,-8,-3,-4,0,5,15,39
1501928095936545,3,2,-4,3,1,2,20,42
1501928095936545,-10,2,2,1,2,10,35,-2
1501928095958578,-10,1,-3,-3,-2,-6,-17,28
1501928095958578,-19,-2,0,6,3,1,0,24
1501928095959547,-20,-4,-5,-5,-1,15,69,-25
1501928095959547,-28,-2,7,4,3,2,-15,57
1501928095980546,8,0,3,2,2,2,-9,12
1501928095980546,51,0,8,1,2,-2,-21,16
1501928095981549,-14,4,1,0,-3,-11,-32,-20
1501928095981549,-8,4,4,-1,0,0,-18,-56
1501928096004563,15,0,1,8,2,3,12,-22
1501928096004563,-45,5,0,1,1,-1,-7,6
1501928096004563,14,-1,12,26,3,8,16,53
1501928096004563,12,-9,-18,-28,-9,-9,-15,5
1501928096018613,7,3,-3,-7,-9,-8,-17,-9
1501928096018613,21,1,8,7,2,2,6,32
1501928096019557,-23,-14,-13,-16,-6,-16,-62,-49
1501928096019557,12,4,3,13,3,0,-13,40
1501928096040590,-20,-6,1,1,0,3,20,-29
1501928096040590,40,3,2,-7,1,-3,-13,15
1501928096041592,-4,5,3,6,3,-2,13,-1
1501928096041592,17,-6,0,-4,-4,-5,10,-19
1501928096055596,-13,-1,-2,-3,0,1,-4,19
1501928096055596,-6,-7,-10,-5,-5,2,14,-9
1501928096056594,4,-2,-3,-10,-3,-7,-16,-1
1501928096056594,-4,0,-2,-2,2,-1,-14,-34
1501928096078616,-21,2,6,5,2,1,-3,40
1501928096078616,-19,1,1,7,0,1,14,-25
1501928096079552,8,-5,-6,-7,-3,-3,-14,-63
1501928096079552,-8,-4,-7,-6,-4,1,0,10
1501928096100609,-6,-4,-2,3,-1,-2,8,-9
1501928096100609,-6,7,-1,-2,-1,-1,-11,4
1501928096101573,-2,4,1,-2,0,-4,-14,14
1501928096101573,-9,-1,10,2,-2,0,8,-3
1501928096115555,6,-4,-14,-3,-2,-3,-9,-30
1501928096115555,7,-6,-3,-8,-5,-5,-5,-6
1501928096116562,-4,8,1,-3,1,0,-7,6
1501928096116562,72,-1,0,4,-1,4,24,6
1501928096138596,-32,-3,0,-6,-4,-2,5,41
1501928096138596,-10,-6,-7,-4,0,1,5,-15
1501928096139581,-10,-8,-5,-2,-1,-4,-8,5
1501928096139581,-2,1,3,1,-1,-6,-14,-10
1501928096160578,6,0,1,0,0,4,1,-26
1501928096160578,14,3,1,5,1,0,5,-7
1501928096161557,-11,-2,-2,-6,0,-6,-30,-2
1501928096161557,-13,-3,-6,1,1,0,0,-10
1501928096175591,-7,3,0,1,3,1,-4,7
1501928096175591,-9,2,6,6,4,3,8,54
1501928096183626,-3,-5,-9,-8,-5,-4,-18,-16
1501928096183626,-19,-1,-7,-5,0,1,3,11
1501928096198571,12,-1,1,4,-1,-2,-8,-10
1501928096198571,60,2,5,1,0,3,3,2
1501928096199570,-17,-3,1,0,-4,-1,16,26
1501928096199570,-5,1,4,2,0,-3,2,-15
1501928096220623,-10,4,1,0,2,1,11,-5
1501928096220623,-7,-5,-6,-5,-6,-5,-5,16
1501928096221597,20,-2,-2,-1,-2,-2,4,-34
1501928096221597,5,1,1,0,-2,-5,-16,3
1501928096236579,-16,-7,-6,-7,-6,-8,-19,-4
1501928096236579,-32,-4,-5,-3,-3,-2,3,1
1501928096243573,12,1,2,3,0,1,9,0
1501928096243573,8,-2,-4,-5,-1,0,-4,13
1501928096258608,-3,0,-3,2,0,-2,-5,-18
1501928096258608,0,-6,1,-4,-3,-1,10,-16
1501928096259564,5,1,-11,-8,-6,0,4,28
1501928096259564,-7,-1,-2,1,1,0,0,22
1501928096280610,3,-2,2,1,3,-1,-1,-20
1501928096280610,36,0,-3,-6,-3,-7,-32,12
1501928096281574,-21,-3,3,5,1,1,6,-27
1501928096281574,4,-5,1,-3,-6,-5,-7,-12
1501928096295610,-3,-1,-7,-3,-2,2,0,7
1501928096295610,-22,-2,-2,4,3,3,-1,-4
1501928096303565,-21,-4,-3,-2,-2,-2,1,-74
1501928096303565,-16,4,0,-1,-2,-1,11,-2
1501928096318585,-22,-2,-2,0,1,-4,-24,38
1501928096318585,-20,-7,-5,0,1,5,20,-38
1501928096319575,24,5,6,1,-1,0,-1,43
1501928096319575,-12,4,2,2,2,3,-6,5
1501928096340632,22,-11,4,-5,-4,-5,-22,-59
1501928096340632,-25,2,-9,-3,-1,-3,8,1
1501928096341567,2,-4,1,-1,1,-4,-3,30
1501928096341567,14,-5,-9,-7,-4,-6,-18,-27
1501928096355643,-2,-1,6,4,1,2,2,3
1501928096355643,8,-2,-3,-1,-2,-4,-13,-10
1501928096363608,-15,-6,-10,-7,-8,-5,10,-4
1501928096363608,-1,-12,-7,-5,-4,-7,-16,3
1501928096378611,-17,2,0,-3,2,5,15,31
1501928096378611,1,3,4,2,2,0,8,-32
1501928096379579,-8,-3,5,1,0,-2,-10,42
1501928096379579,-24,2,-10,-7,-2,2,17,-30
1501928096400632,4,3,2,-1,-2,1,4,2
1501928096400632,7,-1,-2,0,-2,-1,-3,2
1501928096401570,20,1,3,3,2,2,14,10
1501928096401570,-5,4,5,6,2,7,22,34
1501928096415642,30,-7,-7,-5,-5,-10,-8,8
1501928096415642,15,6,2,-1,0,-1,0,-13
1501928096423611,0,-2,-6,-4,-3,0,1,-12
1501928096423611,14,3,0,2,2,-1,-11,11
1501928096438639,8,6,3,3,-1,3,20,37
1501928096438639,15,-1,-2,-1,-3,-2,-2,-22
1501928096439578,-3,0,0,0,2,-2,-11,-35
1501928096439578,2,-2,-7,-4,-4,-1,-10,-14
1501928096460642,-18,-1,-1,0,-1,-2,-3,1
1501928096460642,-3,-6,-2,-3,0,-1,13,36
1501928096461575,24,1,6,3,0,-1,-10,-16
1501928096461575,-1,5,1,0,-4,-3,-3,-1
1501928096475619,27,-7,-5,-4,-3,-3,-6,-64
1501928096475619,-16,-3,-1,2,1,0,-9,-13
1501928096483617,-16,2,-5,-2,-1,1,-2,27
1501928096483617,-25,-8,16,6,-1,-3,-3,-10
1501928096498645,8,1,-18,-3,-3,-4,0,-6
1501928096498645,-19,-3,-2,-6,-3,-2,0,-7
1501928096499594,10,-8,-9,-3,4,0,-2,13
1501928096499594,-35,7,3,2,3,0,-12,-21
1501928096520650,-30,-2,4,0,1,1,2,5
1501928096520650,18,0,1,-3,-3,-2,-9,-17
1501928096521577,0,5,4,4,1,2,6,28
1501928096521577,4,-5,-5,-4,-4,0,18,30
1501928096544593,-13,-6,-7,-3,-1,-5,-35,-34
1501928096544593,-11,6,3,-2,-2,1,13,18
1501928096544593,-28,-1,1,-2,-5,-1,-9,-2
1501928096544593,3,0,0,1,1,0,3,-3
1501928096558652,-43,-9,-3,-4,-2,-1,5,-47
1501928096558652,12,-4,0,3,0,0,-5,-14
1501928096559583,-14,-1,-1,3,1,3,12,-3
1501928096559583,17,-1,-5,-3,0,-3,-6,-2
1501928096580646,12,4,0,4,0,0,14,-4
1501928096580646,-53,-8,-3,0,1,2,12,16
1501928096581593,64,7,6,1,5,-1,-3,14
1501928096581593,2,-1,-3,-3,-3,-3,-16,2
1501928096604583,14,4,5,1,-1,2,13,-16
1501928096604583,8,-3,0,-7,-6,-4,-15,85
1501928096604583,-3,0,-9,-5,-8,-8,-11,-19
1501928096604583,-16,4,3,5,3,2,-8,-58
1501928096618583,15,4,3,3,1,-3,-10,-47
1501928096618583,-17,1,-1,-1,3,3,-1,-8
1501928096619585,-7,-10,-17,-6,-3,-2,2,-7
1501928096619585,19,-1,2,-1,-2,-2,1,5
1501928096640585,-8,0,3,5,1,2,10,40
1501928096640585,26,5,2,3,1,2,9,-29
1501928096641587,7,-2,-4,-6,-6,-4,-6,61
1501928096641587,-14,-8,-5,-4,-3,1,10,-21
1501928096664586,31,-5,0,-7,-5,-1,2,37
1501928096664586,-3,2,0,0,0,-7,-19,-45
1501928096664586,-8,-3,6,2,0,-3,4,16
1501928096664586,2,2,3,7,3,-2,-15,84
1501928096678595,-47,-7,4,3,6,9,8,10
1501928096678595,2,9,-12,-6,-4,-6,-2,-15
1501928096679586,11,0,4,0,0,-3,-3,2
1501928096679586,17,4,-1,-3,-3,-5,-12,-20
1501928096700661,-5,-10,-3,-4,-1,-1,-4,27
1501928096700661,-2,7,1,1,1,0,-5,20
1501928096701588,1,0,0,3,2,1,2,-17
1501928096701588,8,-3,-1,-2,-3,-3,-2,9
1501928096724606,-2,-1,-6,-2,-3,0,5,24
1501928096724606,-8,-8,-2,-2,-2,-3,-6,-8
1501928096724606,8,4,3,1,0,2,6,-13
1501928096724606,4,-2,-4,3,3,5,9,8
1501928096738638,-8,0,-8,-6,-4,-5,-9,-5
1501928096738638,7,-8,1,1,-4,-3,14,56
1501928096739592,-60,-6,-3,-3,-2,5,15,64
1501928096739592,-7,-5,0,-2,0,-1,-6,-43
1501928096769609,-18,9,0,3,5,5,7,85
1501928096769609,11,1,1,1,-2,-6,-25,-113
1501928096769609,5,-6,-2,-4,-3,0,10,-48
1501928096769609,-1,1,2,0,-1,0,5,6
1501928096784610,-3,0,-4,-5,-2,-4,-1,-28
1501928096784610,-7,-1,4,2,2,1,3,14
1501928096790640,-31,-1,2,-2,2,4,-1,40
1501928096790640,6,3,-1,-2,-3,-6,-19,-99
1501928096798638,21,2,9,4,3,0,5,6
1501928096798638,-29,-4,-8,-4,-3,2,-1,3
1501928096799596,-36,-8,0,0,1,-1,-10,-51
1501928096799596,-7,-6,-3,-1,0,1,2,121
1501928096820664,-48,0,0,-2,-2,0,-7,12
1501928096820664,18,-13,-1,-1,-4,-3,2,9
1501928096821603,19,2,-3,-1,0,-2,-2,-38
1501928096821603,-21,-3,1,-1,2,0,8,47
1501928096843636,23,2,-4,-1,1,-1,-2,-74
1501928096843636,-51,-3,-3,1,2,5,9,7
1501928096844597,43,12,9,3,1,-3,-13,-53
1501928096844597,-5,-2,-1,-2,-3,0,6,-21
1501928096858670,-2,-2,-7,-2,-4,-2,-3,20
1501928096858670,32,3,5,2,1,3,7,-5
1501928096859599,-33,2,-7,-2,-1,-3,-10,-101
1501928096859599,10,2,2,3,0,-2,-1,-19
1501928096880643,-16,-8,-12,-5,-2,-1,1,-10
1501928096880643,-16,4,3,6,4,2,-7,-23
1501928096888643,-6,-1,0,1,-1,2,8,72
1501928096888643,12,-2,-6,-9,-6,-4,14,-5
1501928096903664,-31,2,8,0,1,1,6,-4
1501928096903664,17,4,0,1,0,-4,-6,3
1501928096904611,44,-3,0,1,0,-1,-15,-4
1501928096904611,19,1,-2,0,-2,2,19,-94
1501928096926672,41,-3,0,-4,-4,-4,-4,-36
1501928096926672,14,0,-4,-3,-1,-3,-1,3
1501928096927602,-2,1,0,-3,-2,-1,3,21
1501928096927602,-7,-4,-2,-2,-1,-2,-14,-8
1501928096940669,19,2,2,-1,-4,-1,-2,22
1501928096940669,4,-3,-4,-5,-4,-8,-26,-61
1501928096948648,17,6,-3,3,-1,1,20,-80
1501928096948648,-15,1,-3,-2,1,3,8,24
1501928096964621,-3,1,7,4,1,1,-4,-32
1501928096964621,-18,-4,-6,-4,1,-1,7,24
1501928096964621,30,-3,-5,0,-3,-2,-2,23
1501928096964621,0,3,8,0,-2,-4,-6,4
1501928096986670,51,7,-1,2,0,-3,0,-15
1501928096986670,19,-4,-5,-5,-1,3,7,-25
1501928096987617,-53,-15,-2,-2,-3,1,0,23
1501928096987617,42,14,1,4,0,2,1,-32
1501928097000673,3,1,6,4,1,-2,-6,78
1501928097000673,-7,-3,0,-4,-3,-2,-3,59
1501928097008648,-14,0,4,1,2,0,-2,37
1501928097008648,-20,-9,-15,-7,-5,-4,-13,-32
1501928097023651,-17,-3,-2,-3,-3,-6,-13,-76
1501928097023651,5,0,2,1,1,2,12,-6
1501928097024607,-19,-5,-1,-5,-1,-1,5,42
1501928097024607,24,-9,-5,-2,-3,-2,-6,-10
1501928097046646,-9,0,3,2,1,-2,0,-25
1501928097046646,37,-4,4,-3,-4,-1,0,2
1501928097047615,16,2,-3,-1,-1,-4,0,24
1501928097047615,-2,-8,-2,-2,0,-1,-4,63
1501928097069656,4,0,-2,-3,-3,-1,1,1
1501928097069656,18,-1,2,-1,-2,-1,4,16
1501928097070610,-9,6,2,1,-1,-2,-3,2
1501928097070610,-16,-4,-1,0,-1,-1,-5,22
1501928097091683,17,-3,-9,-6,0,-3,-1,7
1501928097091683,-39,1,-3,-2,-1,-1,-8,-2
1501928097092644,86,-1,2,3,0,-4,-44,37
1501928097092644,-41,12,4,1,2,2,20,-44
1501928097114636,-2,-1,1,2,2,1,1,27
1501928097114636,-4,3,3,7,7,3,6,-39
1501928097114636,-3,-3,-5,-7,-6,-3,-8,-65
1501928097114636,-5,-2,-7,-2,0,-5,-42,-18
1501928097129623,-25,-1,-1,1,1,7,30,29
1501928097129623,-14,-4,-4,-2,-1,-5,-16,49
1501928097129623,-22,6,6,3,-1,2,17,-1
1501928097129623,-3,-1,2,3,5,-1,-29,-5
1501928097143621,-50,-10,-6,-3,-2,4,-2,22
1501928097143621,-3,-4,-3,-1,-2,0,3,13
1501928097144616,5,-9,-7,-6,-9,-7,-27,26
1501928097144616,-22,-4,3,-2,-3,-1,30,68
1501928097166630,1,1,-2,2,3,-1,1,-2
1501928097166630,-8,-4,-7,-7,-6,-2,3,3
1501928097167617,14,-1,0,-1,2,6,12,1
1501928097167617,5,1,1,0,-2,-7,-27,-2
1501928097189639,11,1,3,3,2,3,2,-28
1501928097189639,-14,4,-2,-7,-3,-1,2,34
1501928097189639,-33,2,1,1,0,-1,20,-15
1501928097189639,21,-13,-7,-4,-5,0,41,14
1501928097203662,34,0,-3,-3,-5,-11,-20,-36
1501928097203662,-7,1,3,4,1,-2,-27,-10
1501928097204620,33,1,5,2,2,3,12,-47
1501928097204620,-52,0,-3,-2,-2,1,-7,-31
1501928097226680,4,-1,0,-1,-3,-3,-3,76
1501928097226680,-37,-4,0,0,-1,-4,-11,-41
1501928097227620,35,-7,-11,-4,-3,-3,-10,0
1501928097227620,11,-3,-2,-6,-1,0,3,-18
1501928097249641,-14,0,-4,-3,0,4,10,7
1501928097249641,8,2,5,3,0,0,26,-27
1501928097249641,-38,-5,-5,-3,-2,0,-2,14
1501928097249641,6,2,0,0,-3,0,6,38
1501928097263659,24,4,2,-1,-1,-3,-10,-7
1501928097263659,18,-1,0,-1,1,-1,-24,34
1501928097264622,48,5,4,6,3,0,12,-58
1501928097264622,-37,1,-2,1,2,5,21,2
1501928097286626,23,0,5,-1,-4,-6,-16,-86
1501928097286626,-2,-4,1,2,-2,-3,-8,11
1501928097287623,-14,0,-3,-8,-4,0,37,15
1501928097287623,-2,0,5,2,1,-1,-10,-16
1501928097309643,0,-6,-5,-5,-2,-3,-6,1
1501928097309643,20,-2,2,2,1,0,1,15
1501928097309643,-6,-3,-8,-3,-3,-7,-18,-6
1501928097309643,48,-1,-3,-2,-3,-4,-10,7
1501928097323664,-4,-3,1,3,3,6,7,30
1501928097323664,23,4,0,0,0,2,18,0
1501928097324624,1,-3,0,-2,-4,-2,-4,61
1501928097324624,-38,6,-3,-3,-1,-3,-18,-48
1501928097347663,10,0,1,2,0,-4,-24,6
1501928097347663,31,-4,-1,-4,-4,1,18,53
1501928097348626,-8,-5,-4,-1,1,6,10,17
1501928097348626,-15,2,10,3,0,1,8,41
1501928097369691,5,1,-11,-4,0,-2,-15,-10
1501928097369691,-17,-1,-3,0,0,1,7,32
1501928097371639,-21,0,4,4,0,-4,-8,-39
1501928097371639,14,-5,-3,-1,-3,-1,5,7
1501928097391669,-15,-1,7,1,-1,-1,-5,33
1501928097391669,13,-1,-6,-2,1,2,2,-13
1501928097393629,-14,0,-2,-1,-1,-3,-15,-7
1501928097393629,3,-1,-1,1,1,-1,-5,-26
1501928097406669,-25,1,-2,-2,-3,-1,12,4
1501928097406669,-62,-7,-5,-3,-3,-2,0,49
1501928097408631,26,9,0,0,-2,-3,-12,-64
1501928097408631,-1,-3,-6,-2,-1,-2,6,52
1501928097429640,7,-4,-2,1,3,4,17,-7
1501928097429640,-12,3,-4,-4,-4,-3,-13,-18
1501928097430640,-30,-6,-2,-1,-1,-1,-6,31
1501928097430640,39,-2,-7,-3,-5,-4,-12,-27
1501928097442673,6,0,-4,-2,-1,-3,-5,38
1501928097442673,11,3,3,3,3,2,31,-72
1501928097451631,-33,-1,-2,0,2,3,0,13
1501928097451631,0,-4,-2,-3,-1,-2,4,-21
1501928097466700,-14,-5,-2,-3,-7,-5,-9,0
1501928097466700,19,4,0,2,3,-2,4,3
1501928097468642,38,-3,-2,-3,-3,-3,-2,-6
1501928097468642,-42,7,3,5,5,5,5,15
1501928097488694,7,-5,-6,-8,-3,-6,-11,-69
1501928097488694,61,0,0,0,-5,1,11,29
1501928097490639,-19,-5,1,1,1,-3,-7,-37
1501928097490639,30,6,-1,0,-1,-3,-24,-4
1501928097502702,54,-2,-2,0,-2,-2,1,21
1501928097502702,-26,-8,-4,-4,-2,2,12,28
1501928097511637,24,1,-1,-3,-1,0,-7,39
1501928097511637,1,-9,-7,-4,-2,-5,1,49
1501928097526707,-18,-2,1,-7,-4,-5,-4,-1
1501928097526707,-55,-4,0,1,0,1,-3,2
1501928097528643,30,-7,-7,-3,-5,-9,-3,-22
1501928097528643,-11,7,5,1,2,1,10,-47
1501928097549659,-16,-2,2,2,0,4,29,96
1501928097549659,42,4,0,-2,1,-4,-22,-85
1501928097550676,-44,-2,0,3,0,1,30,-9
1501928097550676,-1,-2,-4,0,-1,3,-1,-50
1501928097562678,-9,-1,-4,-1,2,-1,-4,-22
1501928097562678,13,4,4,0,-2,-1,0,38
1501928097571638,28,14,16,9,4,4,-5,38
1501928097571638,-63,-5,-11,-9,-4,1,22,71
1501928097586685,28,8,5,4,3,2,2,-30
1501928097586685,28,-5,-6,-4,-7,-9,-41,-70
1501928097588640,-21,-14,-16,-10,-5,3,9,74
1501928097588640,-16,1,10,2,3,-1,-6,-23
1501928097608690,-20,9,2,-1,1,-2,-11,-41
1501928097608690,49,-3,-3,-1,-3,-8,-10,-87
1501928097610640,-20,3,5,3,4,3,1,3
1501928097610640,43,-7,-7,-7,-8,-5,-1,-24
1501928097622706,-38,-3,-3,1,1,-1,-6,28
1501928097622706,-22,2,3,-1,2,1,-12,-4
1501928097631660,52,3,3,-1,-4,-5,-3,-34
1501928097631660,-3,-3,-3,0,2,1,4,-9
1501928097646682,-4,-6,-4,-1,-3,-3,8,33
1501928097646682,-11,2,1,0,-1,-1,0,-46
1501928097648676,-32,-3,0,1,2,-2,-2,-10
1501928097648676,-2,-1,1,1,-2,-1,-2,68
1501928097669664,9,1,-3,-4,-2,1,3,-54
1501928097669664,-29,-2,1,1,1,-2,13,18
1501928097670674,-46,-2,-1,0,-1,3,8,-5
1501928097670674,26,-1,4,-3,-4,-7,-13,-20
1501928097682650,28,-2,-6,1,0,2,-3,106
1501928097682650,65,-8,-2,-4,-4,-3,-16,5
1501928097691645,-15,6,5,3,5,3,-3,-37
1501928097691645,-34,-3,-6,-4,-1,-1,6,32
1501928097706719,25,5,6,1,0,2,14,-36
1501928097706719,-27,-6,1,4,-1,0,8,75
1501928097708647,8,-4,-9,-9,-4,-3,-11,50
1501928097708647,-8,2,2,4,2,3,24,-105
1501928097729648,-42,-8,-4,-4,-3,-6,-9,-38
1501928097729648,-22,3,-5,-3,-2,-1,-5,52
1501928097730656,3,-4,0,1,0,0,-3,-12
1501928097730656,12,-5,-5,-5,-3,1,-6,49
1501928097742687,-3,-4,-2,1,-2,-1,-3,-28
1501928097742687,-5,1,1,1,-2,1,11,-20
1501928097751664,7,0,-4,-3,-2,-2,-9,21
1501928097751664,3,-10,0,-1,-3,0,0,66
1501928097766721,-1,-1,3,0,1,-1,0,-14
1501928097766721,-28,-3,-5,-2,-1,0,1,4
1501928097767655,-10,-8,-3,-1,-2,-2,-2,14
1501928097767655,39,-3,2,3,-1,-5,-20,29
1501928097788652,-15,-2,1,0,0,5,26,-1
1501928097788652,3,3,1,1,3,0,-16,-47
1501928097790652,24,15,8,5,2,-1,-10,-113
1501928097790652,12,1,-4,1,1,1,8,-13
1501928097802718,2,-3,-8,-6,-2,-3,-13,-56
1501928097802718,10,1,2,-1,0,-2,2,37
1501928097811654,-26,-4,-2,-2,-4,0,12,44
1501928097811654,-2,-1,2,1,0,0,3,-6
1501928097826699,5,3,0,1,-1,-1,-4,-27
1501928097826699,-1,-3,2,1,1,2,-3,11
1501928097828689,-1,3,-1,1,0,-1,9,39
1501928097828689,22,-4,3,-3,-3,-7,-20,-44
1501928097849691,-41,0,1,0,-3,0,-4,58
1501928097849691,4,-1,-4,-5,-2,6,34,20
1501928097850655,-41,10,1,0,1,0,-3,3
1501928097850655,-6,1,0,-1,-2,-3,-12,-37
1501928097862695,3,-5,7,2,0,-2,-6,7
1501928097862695,-8,-4,-5,-1,-2,-5,-14,-11
1501928097871655,-5,-1,-2,-4,-1,-1,-8,4
1501928097871655,2,1,-5,0,1,2,13,0
1501928097886721,-21,2,2,1,-1,1,2,9
1501928097886721,40,4,2,1,-4,-7,-17,-56
1501928097888658,-5,-4,-1,-2,-1,-3,-10,-13
1501928097888658,-12,1,-1,0,1,-2,-6,1
1501928097909696,26,-4,-2,-2,1,1,16,69
1501928097909696,-20,0,2,1,-1,-1,5,-16
1501928097910665,14,-2,-6,-6,-3,-2,-8,6
1501928097910665,40,-4,-3,0,-2,-2,-10,-8
1501928097923675,-70,-11,-1,0,-2,-4,-9,-2
1501928097923675,36,7,-2,2,6,6,5,11
1501928097931668,-21,-1,0,0,-2,-2,-7,-23
1501928097931668,-13,0,-2,-1,-1,0,3,16
1501928097946700,-10,2,3,4,-1,-5,-3,30
1501928097946700,-6,-10,-5,-6,-3,-1,5,-1
1501928097948661,21,2,0,-1,-2,2,4,-15
1501928097948661,-7,-4,-3,-1,-1,1,11,37
1501928097968704,69,0,-4,-5,-1,-2,-9,-38
1501928097968704,-87,-2,0,0,-3,-4,-4,-32
1501928097970671,19,-7,-4,1,-2,-4,-4,24
1501928097970671,-17,2,0,2,0,0,4,-6
1501928097991662,57,0,-6,-5,-3,-3,-21,-30
1501928097991662,-30,-3,-11,-5,-4,-3,-8,4
1501928097993663,25,-4,1,0,1,0,5,8
1501928097993663,-17,2,-1,-1,0,-3,-6,-27
1501928098006724,-18,2,-2,0,-4,-1,1,-6
1501928098006724,-11,0,6,4,2,1,-6,7
1501928098008664,-19,-4,-5,-2,1,0,-5,-19
1501928098008664,14,-1,4,1,0,-2,-1,-11
1501928098029673,-17,1,0,-2,-1,-1,-12,-6
1501928098029673,21,0,0,-2,-3,-2,5,-10
1501928098030666,13,-4,-2,2,-2,-4,-2,3
1501928098030666,-14,0,1,2,2,1,6,77
1501928098051705,-6,-3,-4,-7,-4,-2,16,-14
1501928098051705,-16,0,1,1,-3,-2,-5,8
1501928098053666,2,1,1,-2,0,2,5,25
1501928098053666,-27,1,-1,1,0,-1,5,4
1501928098066690,-19,6,2,2,4,5,-5,-12
1501928098066690,25,-2,0,1,3,1,15,17
1501928098068703,-14,-5,-5,-2,0,-2,2,-17
1501928098068703,-4,-6,2,-5,-3,-3,-6,-14
1501928098088712,9,3,-4,-2,-3,-7,-3,-5
1501928098088712,6,-4,2,3,2,5,3,29
1501928098090669,-2,2,2,1,1,2,4,-17
1501928098090669,6,1,-2,-2,0,-1,-2,-34
1501928098111735,0,-5,2,-1,-3,-3,-9,-4
1501928098111735,-15,-2,-6,-3,-3,1,2,65
1501928098113672,-4,-1,2,-3,-2,0,2,28
1501928098113672,-16,-1,-9,-5,-2,0,-4,-41
1501928098126671,14,4,5,4,2,2,13,2
1501928098126671,-4,0,-4,-4,-5,-4,-13,-7
1501928098128671,10,-1,-4,-2,-4,-2,6,1
1501928098128671,13,6,1,-3,-3,-4,-30,-12
1501928098148674,4,-6,-2,-2,-2,-1,23,7
1501928098148674,-3,0,2,-3,-2,-3,-5,13
1501928098150673,-1,-3,-5,-2,0,-1,5,-40
1501928098150673,14,-1,-1,4,-1,0,4,-21
1501928098178684,-12,-2,-5,-8,-6,-4,-6,3
1501928098178684,4,0,1,0,0,-4,-6,-14
1501928098180675,15,-3,2,-1,-3,-2,-3,69
1501928098180675,-96,-2,-4,-1,3,2,1,-33
1501928098185679,-22,-4,1,3,5,7,12,19
1501928098185679,0,-2,2,-3,-3,-1,2,-35
1501928098200685,2,-1,3,0,-3,-5,-16,-16
1501928098200685,19,-4,-1,-2,-4,-2,9,-9
1501928098208690,-3,-1,-3,-1,-1,-2,-9,12
1501928098208690,-34,-2,-2,-5,0,2,5,-32
1501928098210677,3,0,-3,-1,2,3,14,-32
1501928098210677,25,-1,0,-1,-2,-3,-3,25
1501928098231717,10,2,-3,-3,-1,-2,-9,-15
1501928098231717,4,-4,2,2,-1,-1,0,23
1501928098233678,17,7,-2,-6,-1,-4,-14,-25
1501928098233678,30,4,1,1,2,3,11,-39
1501928098245719,9,-1,0,0,0,0,1,-14
1501928098245719,-3,-2,2,6,-1,-2,-6,-12
1501928098252742,-11,-5,-11,-7,-6,-3,10,-42
1501928098252742,-3,-2,2,-1,0,-3,-1,-4
1501928098268727,-10,-2,-1,-1,-2,-1,-9,-14
1501928098268727,15,1,1,1,3,2,5,-10
1501928098270689,-17,-3,-3,0,-2,0,-14,0
1501928098270689,18,-2,-2,0,-2,1,3,32
1501928098291719,-3,-7,-4,-6,-6,-3,0,9
1501928098291719,12,3,-7,-5,0,-3,-9,-16
1501928098293682,-21,-4,3,1,-1,-3,-2,-7
1501928098293682,6,-3,-2,0,3,3,4,1
1501928098305743,-11,4,0,4,1,0,4,9
1501928098305743,-1,-8,-8,-9,-5,-3,-6,37
1501928098312760,-24,-1,4,-1,1,0,-1,-35
1501928098312760,0,4,-4,0,-2,0,8,5
1501928098328748,8,-2,2,0,1,0,4,-13
1501928098328748,-9,-1,-2,0,0,-1,-3,-20
1501928098330682,-19,1,-2,-1,-1,0,2,25
1501928098330682,21,-5,0,-4,-3,-5,-14,-5
1501928098351753,-1,2,-10,-6,-4,-2,-6,-26
1501928098351753,14,1,6,6,-1,-5,-6,-1
1501928098352693,-24,-6,-2,-3,-1,3,6,8
1501928098352693,1,7,7,8,1,-2,-5,-24
1501928098365685,0,-9,-13,-20,-3,-1,-2,14
1501928098365685,-13,1,0,2,0,0,-4,-28
1501928098372755,1,-1,-2,1,1,0,4,11
1501928098372755,-6,-2,0,1,-4,-7,-9,6
1501928098388751,5,-3,5,6,2,-1,-3,-17
1501928098388751,3,0,-6,-7,-2,0,-10,-13
1501928098390697,26,0,-3,-14,-3,-2,-7,-6
1501928098390697,-6,-3,-3,4,-5,-1,7,36
1501928098411726,6,-8,-4,2,-7,-5,-5,29
1501928098411726,-18,3,-5,0,-1,1,11,13
1501928098412696,-8,2,2,6,3,-2,6,-20
1501928098412696,-20,-1,1,-1,-2,-2,-10,11
1501928098425728,-2,4,5,-11,0,1,2,56
1501928098425728,-7,-7,-1,5,2,2,6,93
1501928098432758,-12,3,-1,-3,-3,-5,-7,7
1501928098432758,-24,-5,3,0,3,3,1,-13
1501928098448732,25,5,3,6,2,3,9,27
1501928098448732,15,1,-4,-7,-6,-5,-3,-68
1501928098450689,4,0,4,5,-1,-2,-2,-2
1501928098450689,54,2,-5,-11,-2,2,23,51
1501928098478749,-17,-3,-1,4,0,-2,-6,-18
1501928098478749,11,-1,-7,-4,0,-3,-7,-71
1501928098480705,7,-3,-3,0,3,3,4,39
1501928098480705,-1,0,-2,-2,0,-5,-28,-75
1501928098485733,-17,-1,1,0,0,-2,5,-25
1501928098485733,19,-2,-5,-3,-7,-6,0,35
1501928098500714,13,0,0,2,-2,-4,-10,14
1501928098500714,-10,-3,-2,-7,-3,-1,-6,-1
1501928098508734,4,1,3,5,0,0,1,5
1501928098508734,-22,-3,3,3,1,0,-5,-38
1501928098510693,9,1,-3,-7,-4,-3,-8,4
1501928098510693,-29,-5,-3,-2,0,3,14,87
1501928098531736,51,5,3,0,-3,-7,-16,8
1501928098531736,1,3,4,-1,-2,0,3,32
1501928098532722,-11,-10,-8,-17,-5,-3,5,-47
1501928098532722,-84,-11,2,24,-1,3,25,78
1501928098545705,-9,7,7,6,3,3,2,-81
1501928098545705,66,-3,2,2,-2,-3,-8,37
1501928098554701,41,6,-2,-24,0,2,2,11
1501928098554701,-15,-3,-3,-7,-3,-5,-13,50
1501928098568762,50,6,-11,-10,-5,-5,-18,-23
1501928098568762,-24,-1,0,3,5,4,6,17
1501928098570697,24,3,7,16,1,1,10,-12
1501928098570697,18,-6,-10,-12,-2,-1,-7,-58
1501928098591738,-32,-2,6,6,2,1,-11,14
1501928098591738,-51,-1,-2,-3,-3,-4,-5,-42
1501928098593698,23,2,-2,5,2,-2,-24,-47
1501928098593698,26,0,0,-4,0,-1,17,7
1501928098605710,-31,-8,-5,-1,1,-2,10,3
1501928098605710,-37,-5,-1,-6,2,6,0,5
1501928098614699,-15,-10,5,12,-3,-1,-1,8
1501928098614699,-2,1,-4,-14,0,-2,-5,-7
1501928098628772,-10,-4,2,12,-2,-2,-2,-26
1501928098628772,11,4,5,-2,-3,-1,5,30
1501928098630700,-25,-1,4,9,-2,-3,-2,54
1501928098630700,45,3,-3,3,3,2,-17,39
1501928098651745,-14,-7,-17,-19,-4,2,6,24
1501928098651745,25,0,-6,-17,-1,-5,-7,-26
1501928098653701,-48,0,-3,22,0,4,14,43
1501928098653701,55,3,6,3,-5,-7,-7,-80
1501928098665718,-75,-9,-2,-4,1,3,14,75
1501928098665718,42,2,6,3,4,1,4,-20
1501928098674703,-11,3,0,-1,-2,-1,-10,-37
1501928098674703,-4,7,4,3,5,1,-7,-28
1501928098688768,21,-3,-7,0,-5,-3,3,-8
1501928098688768,-10,-4,-5,4,-2,0,5,39
1501928098690704,34,4,5,-2,1,1,7,-64
1501928098690704,8,-2,0,3,-1,-1,-9,-76
1501928098711716,-42,-4,0,-3,-3,0,-5,8
1501928098711716,-39,-5,4,7,0,-1,12,-4
1501928098712713,-13,-2,0,-5,1,-1,-13,47
1501928098712713,-2,6,-4,-10,-4,1,-4,-66
1501928098733744,23,-2,-1,8,-3,-2,5,-47
1501928098733744,9,-2,-2,-2,0,0,3,79
1501928098735717,-5,-3,-11,-13,-4,-4,-11,30
1501928098735717,-53,-2,-1,-7,0,-2,1,62
1501928098756749,-7,-3,7,0,0,0,9,46
1501928098756749,40,0,-4,1,-4,-2,-9,-1
1501928098757713,-16,-2,3,0,-2,-1,4,9
1501928098757713,-3,-4,0,-2,-3,-2,-1,24
1501928098770770,28,3,-7,1,1,-1,-11,-5
1501928098770770,-14,-1,5,5,-3,-1,1,-18
1501928098778708,-11,-8,-10,-7,-2,-5,-17,-1
1501928098778708,-5,0,0,-2,2,0,14,32
1501928098785720,-12,-1,0,-3,-1,-2,-14,-20
1501928098785720,38,-3,-6,-2,-2,-3,-4,-74
1501928098794713,-22,0,4,3,-2,-2,6,-32
1501928098794713,15,-5,-5,-7,1,1,-3,-13
1501928098808759,53,-2,0,-2,-3,-4,-10,-34
1501928098808759,-5,3,4,4,-2,-4,-4,5
1501928098810711,28,-3,-7,-8,-4,-1,7,53
1501928098810711,1,-2,2,-3,-2,-1,-3,-27
1501928098831750,-36,2,4,4,2,4,9,3
1501928098831750,-36,-5,0,-6,-1,-3,-7,-19
1501928098832735,18,1,-4,3,-1,1,6,-3
1501928098832735,-17,-3,-1,-8,-2,2,18,70
1501928098845724,19,-4,-2,6,1,1,-7,-3
1501928098845724,-27,6,-6,-6,-1,-2,-2,11
1501928098854716,4,-1,1,5,-2,-1,-4,0
1501928098854716,-8,-2,-4,4,3,0,-7,-7
1501928098868759,26,-1,-2,-5,-2,-3,4,-31
1501928098868759,-36,-7,-5,-1,-4,-4,0,-12
1501928098870715,11,-5,4,-5,-1,0,6,45
1501928098870715,0,3,-3,6,-2,-3,-5,-48
1501928098891754,-3,-1,2,-22,-4,-3,19,3
1501928098891754,18,5,5,11,3,4,-3,-30
1501928098892724,31,-3,-7,2,-5,0,3,-68
1501928098892724,-5,-9,-1,7,-6,-2,-1,25
1501928098913744,1,2,5,1,4,-4,7,-2
1501928098913744,14,1,-5,-11,0,0,0,33
1501928098915717,-8,-2,-2,-10,-4,-3,-1,10
1501928098915717,-5,1,4,3,0,0,-11,-69
1501928098928760,-2,2,-2,6,1,-1,-12,-54
1501928098928760,-6,-5,-4,-8,-4,-2,-3,-14
1501928098930750,-13,1,5,3,1,3,11,2
1501928098930750,2,2,-3,-2,0,-2,-9,17
1501928098951757,-39,-1,-3,-6,-4,0,-7,2
1501928098951757,-1,-1,-3,0,-1,0,-4,9
1501928098952738,13,2,-2,-4,-1,-3,-7,3
1501928098952738,35,2,2,-2,-1,-1,17,3
1501928098973760,-17,0,6,12,0,-1,-1,15
1501928098973760,21,-5,-3,2,-2,0,3,-26
1501928098975752,-22,-3,-5,-16,0,-3,-7,-3
1501928098975752,-1,-1,5,-1,0,-1,-9,9
1501928098989761,14,1,0,1,-2,0,11,-58
1501928098989761,-5,-5,-4,-1,-1,-1,-5,-33
1501928098990733,-43,3,6,6,1,2,0,23
1501928098990733,-2,-4,-8,-6,-4,-6,-23,-12
1501928099011764,16,2,-1,-6,0,1,8,25
1501928099011764,-24,-2,2,18,-3,0,7,35
1501928099012722,7,-3,-1,0,1,-2,-4,-32
1501928099012722,-4,-1,1,2,0,-1,3,11
1501928099033724,-76,-4,2,3,2,3,4,77
1501928099033724,44,5,-5,-9,3,2,6,-3
1501928099035757,-42,3,7,8,2,-2,-4,7
1501928099035757,5,0,-2,9,-1,1,2,-16
1501928099056795,15,-6,-12,-14,0,-3,-12,23
1501928099056795,1,-1,0,-6,-4,-1,-2,0
1501928099057726,8,-1,-2,4,-2,-2,-1,-9
1501928099057726,-19,0,1,-3,-1,1,0,15
1501928099071765,-38,1,4,9,0,1,-6,-20
1501928099071765,-15,-4,-7,-8,-2,0,0,25
1501928099072735,40,-2,-4,-8,-7,-7,-6,36
1501928099072735,-3,1,-1,-2,1,-3,-1,-13
1501928099093769,17,2,3,4,1,3,0,-3
1501928099093769,9,0,-2,1,0,-4,-7,9
1501928099095763,-20,1,-1,0,-1,0,3,73
1501928099095763,-1,-3,-2,0,-2,1,17,-25
1501928099108795,23,-3,-5,0,-4,-2,-1,-2
1501928099108795,15,5,13,-1,0,-3,0,-11
1501928099115739,-18,-4,-8,0,2,1,-6,-11
1501928099115739,19,0,0,1,0,0,0,-1
1501928099131768,10,2,2,0,-2,-3,-2,-5
1501928099131768,-22,-5,-6,-9,-2,0,4,8
1501928099132747,5,-5,-6,5,1,-2,-19,-19
1501928099132747,10,2,2,-11,-5,-1,6,39
1501928099153772,-2,-2,-1,8,0,-1,-2,-7
1501928099153772,5,0,5,2,1,0,-5,-32
1501928099155767,-8,-2,-1,10,-1,-2,-3,-36
1501928099155767,11,-1,-2,-25,-1,-5,-6,14
1501928099168806,-6,-7,-8,9,-6,-4,-9,11
1501928099168806,9,1,3,6,2,4,30,-1
1501928099175746,67,2,8,0,-1,-1,0,-33
1501928099175746,-19,0,4,6,4,3,1,-20
1501928099191771,11,-1,-11,-17,0,-2,2,9
1501928099191771,-13,0,2,6,1,-3,-10,8
1501928099192754,-19,-3,-8,-5,-4,-3,6,9
1501928099192754,3,-3,-2,-8,-2,-1,2,-6
1501928099213773,22,-1,1,-7,-2,-1,-7,-15
1501928099213773,-1,-1,0,10,-1,-2,-6,8
1501928099215736,0,5,1,-12,2,3,12,-6
1501928099215736,7,-4,-1,16,-2,-5,-14,-29
1501928099228810,19,-2,-4,1,0,-1,5,7
1501928099228810,-17,-1,3,-4,-1,1,-2,47
1501928099235756,-7,0,-5,-7,-1,-1,0,-25
1501928099235756,-9,-1,-1,-8,-2,1,1,-14
1501928099251780,-15,2,11,16,0,2,1,43
1501928099251780,5,-4,-10,-10,2,-1,7,-41
1501928099252754,-19,-3,2,0,-2,-2,-1,4
1501928099252754,10,2,1,7,0,2,1,-14
1501928099273783,-17,-6,-2,-8,-5,-2,-5,-12
1501928099273783,-5,-5,-2,1,1,-4,-19,1
1501928099275738,15,1,6,10,-2,0,7,-24
1501928099275738,-17,-3,-10,-6,-4,-3,-4,2
1501928099288778,1,3,2,-4,0,1,-1,-16
1501928099288778,-24,-1,1,-4,-5,-3,-7,-9
1501928099295769,-45,-5,-17,-8,-1,2,3,-54
1501928099295769,58,4,11,15,5,3,5,21
1501928099311780,-5,-1,-10,-12,-3,-3,-8,-26
1501928099311780,22,2,1,1,0,-1,5,-73
1501928099313741,-31,0,3,-4,-1,-2,-2,11
1501928099313741,-31,-3,1,0,-3,-1,-1,4
1501928099333781,7,-2,-6,-4,0,-4,-2,-23
1501928099333781,21,1,1,3,-1,-3,-13,25
1501928099335752,24,-4,-4,-2,0,1,-1,54
1501928099335752,-4,-6,-5,2,0,1,4,-6
1501928099348779,14,8,7,-6,1,0,1,1
1501928099348779,2,-8,-10,-3,-5,-3,-10,15
1501928099355757,-22,-2,0,-2,-1,-1,-12,-8
1501928099355757,-15,-2,0,-5,-2,-2,10,20
1501928099371781,-7,-2,-5,1,1,-1,-1,-5
1501928099371781,-1,2,3,5,0,1,12,4
1501928099372750,26,0,4,-2,-1,0,-1,-15
1501928099372750,-5,-1,-4,-1,-1,-1,-4,-17
1501928099393785,-2,-2,0,4,-2,0,6,2
1501928099393785,-25,-5,-5,-10,-5,-3,-1,40
1501928099395747,16,-1,-1,-3,0,0,0,-6
1501928099395747,-19,-3,0,-3,-6,-5,-8,-10
1501928099407783,-1,-1,6,9,1,2,8,7
1501928099407783,11,0,-1,-3,-1,-1,-3,24
1501928099416774,-12,0,3,6,0,-3,-9,-1
1501928099416774,-32,-7,-10,-7,-3,-3,-4,10
1501928099431786,27,3,0,-1,2,0,-17,-2
1501928099431786,8,-3,6,2,-3,-3,19,-45
1501928099432764,-14,0,3,-3,1,3,5,-15
1501928099432764,-2,-1,-3,1,-1,-2,-4,-4
1501928099453788,-3,-1,-5,-7,-1,-2,-7,1
1501928099453788,-5,-1,-4,-2,1,1,-4,-2
1501928099455748,-18,-8,-6,-3,-1,-2,-1,7
1501928099455748,17,1,2,5,1,0,-1,14
1501928099467819,-10,-4,-2,-5,-2,-2,-1,4
1501928099467819,-10,-2,0,-1,2,1,-8,-54
1501928099476759,17,5,-1,9,-1,-2,5,7
1501928099476759,19,0,-4,-13,0,-2,-10,-1
1501928099491754,-7,0,3,4,-2,-2,6,0
1501928099491754,0,-2,-6,-7,-1,-1,-8,-11
1501928099492786,7,-2,-2,1,-5,-3,-4,25
1501928099492786,1,2,5,8,0,1,9,-7
1501928099513789,5,-2,-2,-3,-3,-4,-9,-11
1501928099513789,-12,-4,-12,-11,-3,-5,-11,2
1501928099515784,4,1,2,12,5,5,9,19
1501928099515784,3,-1,1,-4,-4,-2,-4,-4
1501928099527793,-7,-2,0,3,-2,-3,-4,-17
1501928099527793,-2,2,1,-3,-1,-2,-2,21
1501928099537755,-1,-3,1,-3,2,-2,-4,-19
1501928099537755,-28,-2,1,1,-2,1,-1,7
1501928099551792,15,-1,-3,-6,-1,-4,-4,-19
1501928099551792,6,-6,-5,-1,-3,-1,0,-2
1501928099552763,-1,1,-3,-4,-1,0,3,4
1501928099552763,-6,-2,-2,3,0,1,5,-5
1501928099573795,-15,-4,-7,-5,-1,3,4,-2
1501928099573795,22,4,3,1,0,1,3,22
1501928099575756,5,-5,-3,-6,-3,-3,-4,-20
1501928099575756,-13,-1,3,0,-3,-3,-5,2
1501928099587817,-7,-2,-4,-7,-3,0,5,-4
1501928099587817,10,3,7,3,2,1,2,13
1501928099596756,11,0,-8,0,-1,1,-2,-2
1501928099596756,9,-2,-6,-5,-1,0,-2,-9
1501928099611798,-4,-2,0,-1,-3,-4,0,12
1501928099611798,-7,2,3,0,-1,0,-2,-14
1501928099613757,3,1,1,-3,-1,0,1,5
1501928099613757,-10,-1,1,2,0,-1,0,2
1501928099633816,13,2,3,9,2,3,6,24
1501928099633816,-19,-5,-3,-4,-3,-2,1,-3
1501928099635759,0,0,2,-2,-2,-2,-8,-12
1501928099635759,10,0,-1,3,2,1,-3,-11
1501928099647802,-9,2,-3,-6,-1,-2,0,0
1501928099647802,-1,3,5,2,-1,0,2,6
1501928099656760,52,-3,-4,-3,-2,-3,-2,19
1501928099656760,13,2,0,1,0,-1,-3,13
1501928099671799,0,-2,3,0,1,2,4,1
1501928099671799,-18,-1,-8,2,3,1,3,1
1501928099672771,-2,-3,2,4,0,-2,3,-4
1501928099672771,-29,-1,-1,-2,-1,-1,0,-2
1501928099693800,41,2,-2,-6,-2,-2,-10,-12
1501928099693800,4,2,5,0,1,1,-3,-24
1501928099695793,-29,0,-4,3,2,2,2,2
1501928099695793,19,0,0,-11,-1,-1,3,18
1501928099707761,-8,-3,-7,-1,-3,-3,-4,-6
1501928099707761,-52,0,-4,-10,-2,-2,-2,5
1501928099716762,30,3,2,0,0,2,-2,-18
1501928099716762,-22,-2,3,5,-2,-4,-2,-6
1501928099731803,6,2,1,0,0,1,4,9
1501928099731803,-16,-7,-3,-3,-2,-5,-5,0
1501928099732769,-32,-2,1,-2,-2,-2,-5,9
1501928099732769,13,3,-2,0,-3,-1,-1,-9
1501928099753809,-7,-2,2,4,1,1,8,8
1501928099753809,-6,-7,-9,-5,-1,0,-2,-17
1501928099755798,10,-1,1,0,-3,-3,-2,16
1501928099755798,0,-7,-9,2,-1,-3,-2,-5
1501928099767776,-15,-2,1,-1,-1,-2,-6,-4
1501928099767776,8,2,8,4,1,3,4,16
1501928099776767,-9,-3,-8,1,1,-1,2,11
1501928099776767,21,7,-6,-5,-2,0,-3,2
1501928099791806,-9,1,3,4,4,2,1,-4
1501928099791806,19,-2,-1,-2,-4,-3,-2,10
1501928099792778,-16,-4,-2,-6,-1,-2,0,-21
1501928099792778,19,-3,1,2,1,2,3,23
1501928099813803,-5,-4,-8,-5,-5,-4,-7,14
1501928099813803,32,6,5,3,4,2,-1,12
1501928099815802,-3,0,2,5,-3,-2,0,6
1501928099815802,-10,-2,-3,-15,-5,1,7,7
1501928099827810,-13,-2,1,0,-2,-3,-2,-34
1501928099827810,-17,-5,-9,-1,-2,-5,-1,2
1501928099842828,36,2,2,-1,4,4,1,-16
1501928099842828,1,-2,-2,4,1,-1,3,-5
1501928099851810,-3,-2,7,3,0,1,4,12
1501928099851810,17,1,-12,-7,-7,-5,-1,7
1501928099852780,-10,1,3,1,-1,-2,-2,-2
1501928099852780,-10,1,2,3,1,-1,-3,-13
1501928099874834,-27,-4,1,-4,-2,0,-1,0
1501928099874834,20,0,1,3,1,1,5,5
1501928099876802,-3,-2,1,-4,-3,-2,-5,-3
1501928099876802,7,0,6,8,0,-1,1,-6
1501928099896811,-9,-6,-9,-7,-4,-3,-6,-20
1501928099896811,1,4,-1,3,2,1,-1,-1
1501928099897791,-8,-2,2,-2,-1,-1,-1,-5
1501928099897791,-11,-1,1,5,2,1,4,-5
1501928099911814,4,-2,-9,-5,-2,0,-3,5
1501928099911814,13,-5,-1,-1,-3,-1,1,23
1501928099912774,-35,10,4,-2,1,2,3,-21
1501928099912774,-5,-5,-8,-3,-1,-4,-12,1
1501928099933815,3,1,3,3,2,2,12,3
1501928099933815,-5,1,1,-3,-4,-3,-8,-3
1501928099935779,17,-2,-7,0,0,0,-1,4
1501928099935779,-17,-2,-3,-4,-2,-4,-7,-18
1501928099956841,3,-3,1,0,1,0,-1,2
1501928099956841,-8,-1,5,4,0,3,6,0
1501928099957789,5,-3,2,-5,-4,-4,-7,-2
1501928099957789,-7,-3,-10,-9,-4,-4,-2,-2
1501928099971824,9,-3,-6,-2,-1,-1,-2,-4
1501928099971824,-2,2,0,0,1,2,-1,-6
1501928099972787,-4,-3,-2,-3,-1,-1,-1,4
1501928099972787,1,0,5,1,-1,1,-1,-7
1501928099993852,-2,2,1,0,-2,-3,-1,6
1501928099993852,-5,-2,-3,-2,-1,-1,0,-5
1501928099995780,3,-3,-1,0,-1,-1,2,11
1501928099995780,4,-3,-5,-3,-2,0,0,6
1501928100016848,5,3,-1,-4,-1,1,1,11
1501928100016848,-2,-1,4,0,-1,-2,-4,-2
1501928100017787,5,-2,-2,-1,-3,-2,-3,6
1501928100017787,-6,-1,1,2,0,0,1,-4
1501928100032817,-8,0,0,0,-2,-2,-1,-27
1501928100032817,9,0,-4,-3,-2,2,2,14
1501928100037783,12,-1,-1,0,-3,-4,-2,-10
1501928100037783,-3,-5,-1,-4,-1,-1,-1,-5
1501928100053818,-9,-1,-2,-2,-1,-2,1,6
1501928100053818,-9,-1,5,4,-1,-1,-2,1
1501928100055820,-6,-2,-13,-4,-3,1,4,-1
1501928100055820,3,2,-2,-3,-2,-1,-4,-5
1501928100076851,49,3,1,-1,-1,-1,0,5
1501928100076851,-28,-4,-6,-2,0,-2,-3,-10
1501928100077794,-1,-6,-2,-4,-1,-1,2,6
1501928100077794,-4,4,-1,0,-1,0,-1,0
1501928100090842,-6,-1,5,2,2,2,4,24
1501928100090842,-5,-4,-3,-6,-3,-2,-3,-39
1501928100097833,-5,2,-1,1,2,0,1,2
1501928100097833,20,-1,0,-1,-1,-2,4,16
1501928100114834,-13,-1,-5,2,1,0,-2,-1
1501928100114834,19,2,5,3,2,0,-2,16
1501928100116790,-8,-3,-4,-8,-4,-4,-2,2
1501928100116790,-8,-3,-2,-1,-1,-1,-2,-9
1501928100144855,1,1,8,3,-1,0,-1,12
1501928100144855,-9,-3,-6,-5,-1,-2,-1,-3
1501928100145789,3,-1,0,2,1,0,-2,-6
1501928100145789,0,0,-2,-1,-2,-1,1,6
1501928100150856,-6,-5,-5,-4,-4,-3,-1,5
1501928100150856,-15,-4,-2,-2,-1,-5,-8,-8
1501928100164829,-7,2,4,3,0,1,3,1
1501928100164829,5,-4,1,-3,-3,-4,-5,-3
1501928100173829,-14,0,-2,0,1,-1,-3,-10
1501928100173829,6,2,2,0,-1,1,7,8
1501928100175790,1,-3,-3,-1,-2,-3,-2,5
1501928100175790,-3,-4,-1,0,-1,-2,-4,0
1501928100196830,10,1,-1,-1,1,-1,-1,2
1501928100196830,-3,1,3,2,2,0,-4,4
1501928100197791,-9,-5,0,1,-1,2,-1,-8
1501928100197791,-3,1,-3,-1,-1,0,2,4
1501928100210809,-5,-4,-4,-2,-1,1,0,-4
1501928100210809,-8,-2,-5,-4,-2,-1,-2,-2
1501928100217831,-7,2,1,1,-2,-1,-1,2
1501928100217831,-14,0,1,2,1,2,-3,-13
1501928100233834,-21,-1,1,-1,-1,-1,-3,-8
1501928100233834,3,-1,-2,1,-1,0,2,-6
1501928100235793,3,-1,0,0,-2,-2,0,13
1501928100235793,0,1,0,-6,-1,0,-3,-5
1501928100256835,-3,-2,-1,5,-1,0,1,1
1501928100256835,18,-2,1,0,-3,-3,-11,-18
1501928100257797,-6,-1,6,0,-1,-3,-2,-6
1501928100257797,4,-3,-9,-3,0,1,0,6
1501928100270860,6,-5,-1,0,1,-1,-1,-4
1501928100270860,-1,6,-3,-3,-1,-2,0,13
1501928100277836,2,-1,-3,-3,0,-1,2,3
1501928100277836,16,3,8,7,4,1,2,-12
1501928100293839,-2,-3,-5,-7,-1,1,2,-12
1501928100293839,-17,-5,-2,0,1,1,3,2
1501928100295797,22,-1,1,-2,0,-2,-1,6
1501928100295797,-3,1,3,4,0,0,0,5
1501928100316808,-2,-1,-6,-5,-5,-2,-1,3
1501928100316808,2,-2,1,-1,-2,-2,-1,0
1501928100317799,-11,-1,2,0,3,3,-2,-1
1501928100317799,-3,-2,-6,-4,-3,-3,-1,2
1501928100330849,4,2,4,4,0,-2,-3,-1
1501928100330849,-6,-1,4,7,-1,-2,0,-6
1501928100337841,10,2,-5,-10,2,1,2,3
1501928100337841,-3,-4,-6,-1,-2,1,0,3
1501928100353843,-5,-2,-2,-2,-1,-4,-4,-9
1501928100353843,1,4,9,5,4,1,2,-7
1501928100355812,-13,-5,-12,-4,-5,-1,-4,-27
1501928100355812,12,2,5,0,-1,-1,-2,-4
1501928100376871,-8,3,1,-3,-3,-1,0,22
1501928100376871,-4,-5,-10,-4,1,1,1,-14
1501928100377837,39,-2,-4,0,-2,-2,-4,8
1501928100377837,-1,5,-1,0,-1,-2,-1,-2
1501928100398843,-3,-2,0,2,-2,-3,-5,3
1501928100398843,-7,-2,3,-1,0,0,-2,0
1501928100400805,6,2,1,1,-1,-3,-5,-11
1501928100400805,-9,-4,2,-1,0,-2,1,13
1501928100421842,5,-4,-10,-5,1,2,-1,-21
1501928100421842,-1,2,-1,-5,-3,-2,0,3
1501928100422812,-16,1,3,2,1,-1,2,5
1501928100422812,2,-3,-5,-2,-1,-1,-2,-3
1501928100443845,-5,-1,0,-3,0,1,2,4
1501928100443845,5,-1,-4,-5,-3,0,-2,-1
1501928100445806,-12,1,2,0,-3,-2,-1,17
1501928100445806,-6,-1,2,-1,0,-1,0,-10
1501928100449872,23,1,-2,-1,-3,-2,-3,-14
1501928100449872,-1,-4,-7,-5,-2,-3,-2,-3
1501928100458850,-5,1,2,0,-2,0,3,6
1501928100458850,-9,0,3,0,0,0,-1,-4
1501928100473846,-3,2,8,0,3,0,0,3
1501928100473846,8,0,-3,-3,-2,0,2,20
1501928100475817,2,-2,-4,-2,-2,-3,-9,-24
1501928100475817,-2,-4,-7,-5,-3,0,1,1
1501928100496846,1,1,-2,2,-1,0,0,-15
1501928100496846,-7,-3,-3,-3,-2,0,0,8
1501928100497808,-2,-2,-5,-3,-1,0,1,4
1501928100497808,-3,-2,-4,0,-1,-1,-2,-2
1501928100509852,8,-4,-2,-3,-1,0,2,-2
1501928100509852,-11,-3,2,-1,-2,-1,0,2
1501928100518836,-16,-1,-2,1,-2,0,-2,-4
1501928100518836,8,1,-1,-1,0,-1,-7,4
1501928100533852,-2,2,0,1,-1,3,14,8
1501928100533852,0,0,0,-1,-1,-3,-11,0
1501928100535812,-5,-3,-4,-3,-2,1,12,-24
1501928100535812,-5,0,5,3,2,2,0,-4
1501928100556881,-15,-3,-3,-3,-3,-2,-3,36
1501928100556881,19,2,1,-1,-3,-2,-4,-21
1501928100557812,-6,-2,1,2,0,-4,-3,5
1501928100557812,5,-2,-8,-6,-1,-2,-2,-2
1501928100569855,16,3,-8,-4,-1,-1,-8,-21
1501928100569855,-3,1,4,3,2,1,7,4
1501928100578886,1,-4,-9,-5,0,-2,-6,0
1501928100578886,-6,-2,-3,-3,-4,-1,-4,1
1501928100593854,0,-4,3,1,-2,-3,-2,11
1501928100593854,1,-2,-3,2,0,1,-2,-4
1501928100595833,1,5,5,-3,-2,0,0,3
1501928100595833,0,-3,2,-4,-3,-2,0,-4
1501928100616883,-2,-1,3,-2,-1,-1,-1,12
1501928100616883,-3,-2,-4,4,-1,-2,0,20
1501928100617823,-5,-3,-3,-2,-3,-2,-4,-1
1501928100617823,-5,1,-4,-3,-2,-4,-2,-5
1501928100629852,6,-1,3,3,2,-1,-3,-15
1501928100629852,15,3,-3,-4,-3,-1,-1,-6
1501928100638854,0,0,1,2,1,2,6,16
1501928100638854,-1,-1,0,-2,-1,-2,0,2
1501928100653860,-8,-1,-3,1,2,0,-2,-8
1501928100653860,10,-2,1,-1,1,1,0,0
1501928100655817,19,-4,3,1,0,-4,-3,0
1501928100655817,-4,3,3,1,-2,-2,1,-16
1501928100676887,-15,-4,-1,0,-2,-3,-2,10
1501928100676887,-1,1,-7,-3,0,1,3,-2
1501928100677818,-1,-2,-3,-3,-2,-3,-4,-4
1501928100677818,-5,-1,-1,1,1,1,2,-1
1501928100698857,2,0,5,1,-1,0,-4,2
1501928100698857,-14,-3,-8,-9,-5,-2,-1,1
1501928100700820,-7,-3,3,3,1,-3,-2,-14
1501928100700820,1,-2,0,-1,0,0,1,0
1501928100721840,-1,-1,-2,1,1,-1,-3,7
1501928100721840,0,-3,-1,-5,-1,0,-2,-21
1501928100722822,-6,-1,-2,-2,-2,-1,-1,0
1501928100722822,-2,-3,-4,-2,-1,-2,-2,-4
1501928100736888,-6,-2,-1,-3,-3,-3,1,-10
1501928100736888,-5,1,5,7,-1,-1,-1,1
1501928100737823,-4,-5,-2,-5,-2,0,0,-8
1501928100737823,0,-2,-2,-2,-1,-1,-1,7
1501928100749838,10,-1,-5,-4,-2,0,-1,-5
1501928100749838,-6,-1,0,0,3,-1,1,2
1501928100758854,0,3,6,4,0,2,-1,-12
1501928100758854,-3,-3,1,-2,-1,-3,-1,1
1501928100773864,-3,-3,-1,1,0,-1,-2,-6
1501928100773864,11,-1,2,-2,-3,-3,-1,16
1501928100775835,-5,0,-2,-2,0,2,-2,-14
1501928100775835,-9,-2,-1,-3,-3,-1,2,-2
1501928100796863,2,-3,3,4,2,0,-6,-9
1501928100796863,-3,-4,-6,-2,-4,-3,-1,7
1501928100797826,2,1,0,-1,-1,-1,2,-7
1501928100797826,11,2,1,0,-1,0,0,11
1501928100818872,-1,-1,-2,0,0,1,1,-6
1501928100818872,-3,-3,-2,0,-1,0,-2,-13
1501928100820827,15,2,-5,-2,-3,-2,-1,18
1501928100820827,0,-5,0,1,2,-1,0,5
1501928100833827,2,2,-2,-2,-2,-1,0,9
1501928100833827,-4,-2,1,1,2,-2,-9,-16
1501928100835829,2,-3,-3,-1,-1,-1,0,4
1501928100835829,0,0,2,-3,-2,-1,0,-3
1501928100856898,-7,-1,-2,-3,-1,-2,0,12
1501928100856898,-4,-2,-4,-1,-1,-1,2,-5
1501928100857831,-14,-5,1,-5,-2,-2,-6,-14
1501928100857831,-3,2,-6,-3,-2,-1,-1,-3
1501928100878898,-3,0,0,-1,-1,-3,-1,-5
1501928100878898,-1,0,2,0,0,0,3,3
1501928100880831,1,0,1,2,-1,-1,-2,12
1501928100880831,-8,0,-1,-1,-1,0,-3,-4
1501928100893879,3,0,-1,-5,-4,-4,-4,-16
1501928100893879,-13,3,0,4,1,-1,0,-2
1501928100895833,-3,-2,-2,1,3,0,0,6
1501928100895833,17,-3,-6,-5,0,-2,-2,-3
1501928100916854,-2,0,-4,1,-1,-2,-3,-2
1501928100916854,-2,-2,-2,-3,-2,-1,0,-1
1501928100917842,2,0,-2,-1,-1,1,1,6
1501928100917842,-40,-3,-3,-1,-2,-1,-4,11
1501928100938894,-7,-3,4,1,-3,-3,-10,-36
1501928100938894,8,1,0,3,-1,0,0,6
1501928100940836,-4,0,-4,-6,-4,-1,0,1
1501928100940836,10,-2,1,1,0,-1,-3,7
1501928100953856,-1,-5,-6,-6,-3,0,1,5
1501928100953856,-14,-2,1,0,0,-2,2,1
1501928100955836,8,0,3,5,2,2,2,5
1501928100955836,5,1,-5,-3,-2,-3,-2,-4
1501928100976902,-4,-1,1,1,1,-1,0,9
1501928100976902,3,-2,-5,-7,-2,0,-2,-14
1501928100977837,-2,-1,-5,-6,-2,-3,0,8
1501928100977837,-2,-2,3,3,-2,1,1,-10
1501928100998878,2,0,-6,-2,-1,1,2,5
1501928100998878,4,-2,0,0,0,-1,1,20
1501928101000851,-15,-2,-2,-4,-6,-4,-12,-37
1501928101000851,15,-2,3,1,0,-2,-8,0
1501928101013845,-35,1,0,-2,-1,-3,5,-1
1501928101013845,1,-3,-2,-1,-1,3,2,7
1501928101019902,1,-2,-4,-4,-3,-1,1,22
1501928101019902,2,-1,1,-1,-4,-2,-2,-16
1501928101036908,18,-2,2,-1,-3,0,-3,-5
1501928101036908,-8,-1,-2,-1,-1,0,-1,-2
1501928101037840,-7,0,1,0,0,0,1,3
1501928101037840,0,-2,0,2,1,1,-1,0
1501928101058840,0,0,-1,-4,-2,0,1,13
1501928101058840,-4,-3,3,1,-2,-2,-2,-14
1501928101060841,14,0,1,-1,0,-2,-3,1
1501928101060841,-2,-2,-4,-1,-1,1,8,13
1501928101073853,1,0,2,3,-1,-3,0,-9
1501928101073853,9,-2,-1,-1,0,-4,-6,-8
1501928101079875,-7,1,6,7,4,-1,2,2
1501928101079875,2,-1,-1,-2,-1,-1,2,0
1501928101096880,-44,-2,-5,-4,-1,0,-2,-4
1501928101096880,1,2,1,-4,-3,-1,-1,1
1501928101097858,-2,-3,0,1,-1,-1,-1,3
1501928101097858,-2,3,1,0,0,-1,-2,4
1501928101118888,15,-2,-1,-3,-1,-2,-3,-5
1501928101118888,0,0,-1,-2,-1,-2,-1,3
1501928101120846,-8,-6,-6,-4,-3,-1,1,-1
1501928101120846,2,2,0,1,0,0,-3,-1
1501928101133845,6,-2,-3,-6,-2,-1,-2,-1
1501928101133845,-2,0,-6,-2,1,0,-1,2
1501928101139885,6,-1,6,2,1,2,1,3
1501928101139885,-5,-3,0,0,0,-3,1,-33
1501928101156899,5,2,0,2,2,-1,-4,0
1501928101156899,-11,-1,2,2,1,-1,-3,-2
1501928101157860,3,0,-8,-5,-1,-1,2,-2
1501928101157860,13,-2,-2,-2,0,0,3,17
1501928101178910,-30,1,-1,0,0,-1,-6,-10
1501928101178910,4,-1,2,0,-1,0,-3,-18
1501928101180859,-8,0,0,2,-1,-1,-7,0
1501928101180859,2,0,-3,-5,-1,1,13,1
1501928101193865,17,-3,-3,1,-1,-1,1,-5
1501928101193865,-1,-1,2,1,1,-1,-2,9
1501928101199891,-3,-1,-4,-2,0,0,-1,-3
1501928101199891,-8,0,3,0,-1,0,-6,-17
1501928101216894,8,-3,1,3,-1,0,0,10
1501928101216894,-2,-2,-3,-1,0,-2,3,9
1501928101217850,4,2,1,-2,-4,-2,-3,-13
1501928101217850,-9,-1,2,1,-1,1,-2,-2
1501928101238890,13,-2,-2,-1,1,-1,3,13
1501928101238890,0,-2,-3,-4,-3,-1,-4,0
1501928101240853,-1,-1,0,1,-1,-2,0,2
1501928101240853,7,-1,0,2,1,-1,-5,5
1501928101253865,-6,-2,1,-1,0,-3,-4,-6
1501928101253865,7,-3,-4,-1,-1,0,6,-12
1501928101259893,-9,-5,0,-2,0,1,-1,-9
1501928101259893,-3,0,-4,-1,-3,0,-3,4
1501928101276853,2,0,1,-1,0,1,1,2
1501928101276853,12,-2,0,-2,-1,-2,-2,6
1501928101277853,-38,1,0,0,-1,-4,-8,14
1501928101277853,-6,-3,-2,-1,1,-4,0,-19
1501928101298901,2,4,1,-1,0,3,5,11
1501928101298901,1,-1,-2,-3,-3,-2,-1,-13
1501928101300865,10,2,0,0,0,-1,-4,-3
1501928101300865,-2,0,0,-3,-2,-1,-5,9
1501928101312929,-2,-2,0,0,-1,0,1,14
1501928101312929,-12,-3,-3,0,0,-1,-2,-8
1501928101321856,12,4,0,1,-1,-3,1,-24
1501928101321856,-1,-2,-1,-1,1,1,3,13
1501928101336899,7,-5,-11,-7,-2,-1,-5,-18
1501928101336899,-6,0,-1,0,1,-1,-4,-2
1501928101337858,5,-3,-3,0,-2,0,2,8
1501928101337858,-2,-1,-2,0,-2,-3,-4,-3
1501928101358919,-1,-1,4,-1,-2,0,0,15
1501928101358919,-5,1,-3,-1,2,-1,-2,-16
1501928101360859,8,-3,-2,0,0,-1,0,0
1501928101360859,-3,0,0,-1,-2,-1,1,14
1501928101372906,-1,-4,-3,0,-2,0,0,-13
1501928101372906,-2,-1,-4,-1,-2,-3,-1,8
1501928101381872,1,0,1,-1,0,1,0,2
1501928101381872,15,-1,-1,0,0,1,-3,-5
1501928101396893,-33,2,-3,2,-2,-2,-1,-1
1501928101396893,-2,-3,1,-3,-5,-2,-3,3
1501928101397860,1,-5,-15,-10,-4,-4,-4,1
1501928101397860,3,-2,-1,-3,0,1,12,12
1501928101418904,8,5,7,1,-1,0,-5,-11
1501928101418904,-1,0,-1,0,-1,-2,-4,2
1501928101420864,-8,-5,2,0,-1,-2,6,-5
1501928101420864,-4,0,-2,-2,-1,-2,-2,7
1501928101432906,3,-1,-2,-1,2,0,-2,-11
1501928101432906,-5,-3,-4,-2,-1,0,-5,2
1501928101441876,6,-2,1,-1,-2,1,-10,1
1501928101441876,-6,0,-3,0,-1,3,30,5
1501928101456929,5,-2,0,0,-3,-4,-2,-5
1501928101456929,3,0,7,2,1,-1,-1,6
1501928101457864,-5,0,-5,-4,2,1,8,-9
1501928101457864,-8,-5,-2,-2,0,-3,-22,1
1501928101478934,-4,-1,-6,-4,-2,2,-2,-17
1501928101478934,13,-4,6,2,-1,2,6,6
1501928101480875,-1,8,14,5,2,1,16,4
1501928101480875,4,-2,-3,-1,0,-4,-12,-9
1501928101492908,7,-2,1,0,-3,0,9,7
1501928101492908,-3,2,-3,-1,0,-1,-2,6
1501928101501868,0,-1,0,0,1,0,-14,-8
1501928101501868,-4,-4,-6,-6,-4,-4,1,-23
1501928101516885,-2,-1,-3,-3,-2,-1,-6,1
1501928101516885,0,-3,-2,-2,-2,0,14,6
1501928101517867,18,-2,-3,3,2,3,14,-13
1501928101517867,-39,1,-3,-1,-3,-3,-11,-5
1501928101538885,4,0,0,0,1,1,3,3
1501928101538885,0,3,-5,-2,-4,-5,-17,-4
1501928101540881,-2,-2,0,-2,-3,-6,-6,24
1501928101540881,8,4,11,6,2,10,31,-18
1501928101552911,1,-1,-5,-2,-1,-3,-3,8
1501928101552911,-7,1,1,-2,-1,-2,-8,-18
1501928101561906,-2,-3,-1,-1,-2,-5,-10,5
1501928101561906,3,-1,-4,1,0,-4,-22,16
1501928101576946,-7,-3,0,1,-3,-3,2,-16
1501928101576946,5,-2,-1,0,0,3,2,2
1501928101577871,-7,-3,-7,-8,-4,-2,1,6
1501928101577871,2,-1,-2,-2,1,-1,-16,-10
1501928101598919,6,-2,0,1,0,-1,9,10
1501928101598919,-4,-1,-1,-1,-1,-3,1,7
1501928101600887,-10,3,3,1,-1,2,6,-3
1501928101600887,2,-3,-5,-2,-1,-1,2,8
1501928101612921,0,-1,0,0,-1,0,-7,1
1501928101612921,-1,-3,-2,-3,-3,-1,0,1
1501928101621886,-5,-1,5,1,1,3,23,-2
1501928101621886,6,1,1,1,0,-1,-11,7
1501928101636917,-2,-2,-2,-4,-2,-5,-6,-3
1501928101636917,25,-3,-1,-2,-1,0,0,14
1501928101637883,-28,0,-1,-1,0,-3,-15,-26
1501928101637883,3,1,4,-1,-1,1,1,-5
1501928101658932,2,1,2,2,2,0,1,1
1501928101658932,3,-5,-4,-3,0,2,22,17
1501928101660886,7,-4,-6,-6,-6,-7,-21,-14
1501928101660886,3,0,-2,-2,0,-2,-4,-16
1501928101672917,-8,1,-1,-3,-2,1,9,2
1501928101672917,-6,3,1,0,1,0,-2,-7
1501928101681891,5,-5,-5,-2,-1,0,7,5
1501928101681891,-2,-1,-1,1,0,0,3,12
1501928101696916,7,0,3,0,0,-2,-11,1
1501928101696916,-12,0,-2,2,-1,1,-3,-10
1501928101697878,8,0,0,2,0,1,7,13
1501928101697878,-10,-5,-3,-5,-3,-2,-9,-24
