timestamp,emg1,emg2,emg3,emg4,emg5,emg6,emg7,emg8
1501932019465207,21,-3,22,6,3,-9,-36,43
1501932019465207,-30,11,-26,14,7,-3,-112,58
1501932019466207,0,2,26,23,4,10,47,-42
1501932019466207,40,-21,-39,-33,-11,-18,-70,-29
1501932019466207,89,10,-2,15,3,10,27,41
1501932019466207,103,-8,31,4,3,10,50,5
1501932019469268,-46,0,-53,-37,-7,7,26,-55
1501932019469268,-41,24,15,9,3,-6,-70,0
1501932019477209,-38,-24,-31,-10,0,-3,-22,-50
1501932019477209,8,-3,-52,4,-5,-11,-11,47
1501932019485242,-27,7,1,10,1,-9,-84,-15
1501932019485242,59,-5,0,3,3,10,105,51
1501932019492249,10,33,-1,2,1,7,-8,-68
1501932019492249,-22,-2,-5,6,3,0,11,-27
1501932019506274,4,-18,36,-8,-11,-10,-26,47
1501932019506274,-14,-8,26,10,4,6,69,40
1501932019516250,-120,-1,-47,-2,2,-3,-26,3
1501932019516250,8,-6,-35,-15,-6,4,27,-48
1501932019530244,85,-4,20,7,4,-10,-55,80
1501932019530244,-24,9,21,38,4,21,71,-17
1501932019537205,-8,-24,2,-47,-8,5,80,57
1501932019537205,-31,9,29,-3,-2,-4,14,-75
1501932019551269,5,-4,-69,-8,-9,-11,-44,62
1501932019551269,31,-1,6,-3,4,1,-41,46
1501932019592222,29,11,46,-29,0,-12,-13,7
1501932019592222,-39,4,-13,4,0,9,76,67
1501932019593210,30,-5,-2,2,-3,-9,-61,-30
1501932019593210,39,8,37,14,4,10,88,-60
1501932019594220,23,-3,9,5,-6,-8,-53,-10
1501932019594220,-17,-7,-24,-9,-6,-12,-2,16
1501932019597251,38,8,-3,-7,3,4,-26,4
1501932019597251,-65,-13,11,6,1,6,56,12
1501932019604212,49,8,-10,-4,-8,-14,-70,30
1501932019604212,29,-5,-18,4,4,5,18,-36
1501932019612251,-6,-10,15,6,-2,-2,18,4
1501932019612251,46,-12,-48,-15,-3,-3,23,-43
1501932019619210,-51,-6,-12,8,2,6,26,-7
1501932019619210,42,11,26,7,1,1,8,-21
1501932019634253,-34,14,-22,9,6,-3,-29,-27
1501932019634253,-15,11,35,-21,-6,-4,3,93
1501932019641251,4,-30,-26,0,-6,2,11,-73
1501932019641251,-100,13,10,-10,3,11,33,-28
1501932019665255,-25,-3,32,15,-1,-10,-40,-25
1501932019665255,-14,-6,-53,18,1,6,7,-36
1501932019667223,32,-20,-51,-25,-1,14,87,41
1501932019667223,38,23,8,17,0,-6,-69,-43
1501932019679251,16,11,-11,4,4,-3,-4,80
1501932019679251,10,-13,4,-7,-8,-3,-104,-72
1501932019686273,45,-4,51,16,2,-4,-9,49
1501932019686273,5,-5,1,-9,0,6,-53,-63
1501932019703235,60,8,-20,-7,-2,7,48,17
1501932019703235,60,16,-4,-3,-3,-10,-81,23
1501932019704215,-36,-14,-32,11,1,-3,0,41
1501932019704215,14,-1,9,-6,-5,-9,-30,29
1501932019725257,43,-17,5,-1,-3,3,22,-1
1501932019725257,-33,-3,5,-10,-5,-17,-112,58
1501932019727216,-9,1,-17,-3,-1,-3,-23,-40
1501932019727216,37,-28,42,3,-4,-11,29,37
1501932019739259,-23,18,22,-8,-3,0,-8,-24
1501932019739259,-21,4,-53,-7,-2,-5,6,-16
1501932019746275,-48,12,21,4,-2,-1,-36,-38
1501932019746275,20,0,-13,9,2,1,-12,30
1501932019762264,-111,-32,8,-21,-6,4,53,32
1501932019762264,57,8,20,26,8,3,14,7
1501932019764218,-10,6,-13,-7,4,5,1,-13
1501932019764218,22,-3,17,-5,-5,-10,-55,-34
1501932019785264,-74,-25,-11,4,-2,-1,22,35
1501932019785264,-16,15,13,-20,-2,-3,-10,-43
1501932019787220,-4,-10,-69,-1,-1,-3,-26,-19
1501932019787220,-2,-29,57,2,-4,-6,10,-10
1501932019799292,39,1,2,6,-1,-2,-31,-31
1501932019799292,18,43,35,11,4,1,47,-12
1501932019806290,21,9,24,10,3,7,82,56
1501932019806290,-39,-32,5,-5,1,-4,-15,3
1501932019822248,-26,0,-51,-16,-6,-10,-34,-101
1501932019822248,-6,-10,14,5,2,5,-6,-5
1501932019824223,-45,-5,-48,-6,1,1,12,27
1501932019824223,-15,34,6,2,-2,2,-8,-21
1501932019845263,-18,4,27,7,1,1,18,28
1501932019845263,-64,-10,12,0,0,7,41,27
1501932019847228,25,-2,5,-5,2,-2,-24,-48
1501932019847228,-11,4,-47,-7,-2,4,60,27
1501932019859287,-36,5,-2,-2,-4,-4,-6,-21
1501932019859287,-78,-34,-21,-7,-5,-6,-8,-30
1501932019866225,69,23,31,3,-2,-2,3,-9
1501932019866225,-30,17,23,-3,-5,-7,-26,-27
1501932019882224,74,27,-4,-10,-1,-5,-39,-10
1501932019882224,30,-19,-10,-3,0,3,54,44
1501932019884237,-2,-34,4,0,-3,-5,12,5
1501932019884237,-5,18,-29,-1,-1,2,23,-49
1501932019905268,-17,-13,-21,5,6,10,40,21
1501932019905268,90,13,-19,-3,0,-2,-19,-5
1501932019907227,-16,15,71,-3,-6,-2,-10,-36
1501932019907227,56,12,-4,3,5,2,27,9
1501932019919290,14,-25,-2,-11,-8,-11,-33,-2
1501932019919290,-53,-9,-21,-6,-4,-6,27,-53
1501932019926295,49,4,-1,3,-2,3,-6,15
1501932019926295,27,-23,-30,-5,0,-5,-67,11
1501932019942247,-43,-1,-5,-6,-5,2,25,-36
1501932019942247,-14,8,19,0,-3,-9,-64,14
1501932019944261,-10,3,-26,1,0,0,29,7
1501932019944261,-21,2,9,-1,-5,-8,-42,-43
1501932019965288,-22,-5,6,5,2,-1,47,33
1501932019965288,15,-22,5,3,1,7,22,63
1501932019966230,-48,-3,-1,6,3,-3,-17,-80
1501932019966230,10,10,-33,1,6,14,64,30
1501932019979232,49,7,-4,5,-3,-13,-75,-16
1501932019979232,-12,29,49,8,3,3,42,38
1501932019988231,64,-35,-17,14,2,0,-52,4
1501932019988231,-34,24,-1,-2,1,-4,-32,42
1501932020002297,16,2,-10,-28,-10,1,-19,-12
1501932020002297,-11,-17,-7,1,-1,-3,-25,-50
1501932020004242,37,24,4,-12,-2,0,11,-52
1501932020004242,32,-9,23,10,3,-3,2,43
1501932020025297,4,18,50,14,3,4,-18,14
1501932020025297,-54,2,-25,-4,-2,-1,-14,0
1501932020026247,-106,10,22,2,-2,1,11,88
1501932020026247,-60,-5,-53,-6,-3,8,59,2
1501932020039249,15,-20,-13,-3,1,2,30,22
1501932020039249,25,-1,-5,-7,-4,-4,-16,4
1501932020048236,27,-3,-4,-4,-3,-1,25,-30
1501932020048236,10,-23,8,-3,-2,-11,-31,-18
1501932020070280,3,21,-35,2,3,9,22,58
1501932020070280,-17,-11,38,8,-5,-1,7,-22
1501932020072251,-16,-6,-15,-4,-2,-6,-23,17
1501932020072251,46,-8,-36,-24,-6,-13,-67,-17
1501932020085276,75,20,23,5,2,8,55,-19
1501932020085276,11,-4,1,3,-3,-6,-27,77
1501932020086237,-10,0,-2,4,1,-2,-54,19
1501932020086237,-61,-16,31,3,-6,-11,-55,20
1501932020099263,5,-3,-21,-1,2,2,-20,-80
1501932020099263,0,7,-28,-1,3,5,2,7
1501932020108240,-20,-15,-21,-9,-4,-4,1,12
1501932020108240,9,-11,7,-8,-2,-1,10,-31
1501932020122303,-1,-20,9,4,-3,-6,-11,35
1501932020122303,-30,-7,-22,-11,-1,2,19,-21
1501932020124271,8,12,-7,3,-1,4,45,-7
1501932020124271,13,14,10,5,-1,4,32,5
1501932020145280,-53,-3,12,1,-2,-7,-1,6
1501932020145280,9,11,6,-1,3,-3,-22,3
1501932020147241,-45,-10,-9,-11,-6,-10,-41,-12
1501932020147241,-32,7,-13,4,2,14,110,55
1501932020159259,-75,15,23,-7,1,-1,-1,57
1501932020159259,21,1,6,6,5,-1,-4,-5
1501932020168253,-24,-18,-45,-7,-4,-8,-67,-1
1501932020168253,-1,-6,-10,4,1,15,20,-37
1501932020182307,5,4,-18,4,-1,0,-19,-24
1501932020182307,-72,-32,-25,-15,-5,-2,25,-22
1501932020184277,-49,0,32,-5,-1,7,65,38
1501932020184277,57,14,-11,4,3,4,52,-6
1501932020205313,10,-9,33,5,3,0,-13,33
1501932020205313,89,-8,-20,5,-7,-1,0,11
1501932020206265,43,31,-22,-12,0,0,-3,-21
1501932020206265,9,-1,-27,9,-4,-5,-31,-38
1501932020219256,16,-21,12,3,-2,-4,2,-29
1501932020219256,-37,9,6,-4,1,-4,-36,-16
1501932020228276,-1,-9,31,4,3,5,44,35
1501932020228276,-7,3,-11,0,6,4,-6,28
1501932020242309,38,-9,-4,14,0,-6,-41,-31
1501932020242309,-21,-1,6,-23,-1,-2,0,-30
1501932020244281,-5,22,-4,11,2,2,11,-10
1501932020244281,-4,-30,18,-7,-6,-19,-108,35
1501932020265247,13,13,0,-9,-3,0,-32,39
1501932020265247,22,-2,6,14,0,0,9,39
1501932020266249,-38,-12,-3,3,-3,0,-12,-24
1501932020266249,47,12,-2,-7,-6,-13,-46,-36
1501932020279247,-3,-5,-8,-1,-1,1,-22,21
1501932020279247,91,-1,43,3,-5,-12,-39,-4
1501932020287248,59,-3,-8,1,3,1,-56,23
1501932020287248,-13,-8,29,1,-4,2,-32,11
1501932020302315,-21,-17,-59,-13,0,3,6,-77
1501932020302315,-10,7,5,0,-4,-12,-63,-19
1501932020304253,-20,5,42,5,4,4,26,-27
1501932020304253,-39,28,12,-6,-1,-1,-23,-37
1501932020325292,10,1,-20,-5,1,3,17,-7
1501932020325292,2,-16,-74,-2,-4,-4,-5,21
1501932020326263,-49,-20,-25,-14,-10,-7,-7,-3
1501932020326263,30,-6,5,12,3,9,18,7
1501932020339273,17,8,1,-8,1,3,55,6
1501932020339273,-82,8,-29,1,4,7,43,-22
1501932020348252,11,-8,27,5,3,1,-31,-1
1501932020348252,36,-16,7,-7,-2,3,66,10
1501932020362264,-52,-7,-1,1,-1,0,-3,-14
1501932020362264,21,12,-12,2,1,9,29,-45
1501932020364264,-9,-4,18,-1,-2,-5,-19,26
1501932020364264,-26,-3,5,3,-2,-9,-53,26
1501932020385254,2,11,20,7,1,2,54,17
1501932020385254,68,-10,4,-4,-3,5,62,29
1501932020386254,20,8,-10,5,3,0,-37,-42
1501932020386254,68,34,16,0,0,1,26,12
1501932020407315,-59,-24,19,10,0,1,10,26
1501932020407315,-6,-11,-40,0,0,1,-7,-20
1501932020409267,10,13,31,-13,-3,-1,68,32
1501932020409267,11,-4,-9,0,1,4,14,-62
1501932020422329,29,23,11,-4,-5,-12,-30,2
1501932020422329,12,-10,44,10,5,11,55,-41
1501932020422329,25,3,-33,4,-1,0,1,-21
1501932020422329,-83,-28,-19,-1,0,4,79,-15
1501932020444319,12,22,5,3,1,-2,3,-5
1501932020444319,-2,10,31,-13,-3,-5,-58,-6
1501932020445270,-16,5,-2,-6,0,8,45,2
1501932020445270,23,-5,-6,-7,-3,-2,-5,14
1501932020467329,22,-18,15,-1,-6,-7,-67,-28
1501932020467329,-2,-13,-18,-5,-3,-6,-33,9
1501932020467329,-10,10,26,3,0,8,53,-5
1501932020467329,-4,-1,-7,0,-1,-4,-18,52
1501932020482274,-5,6,10,-1,-2,0,-3,-20
1501932020482274,-15,7,6,0,0,-2,3,20
1501932020482274,47,-2,-13,-11,-4,-3,26,23
1501932020482274,7,-6,-9,-9,-4,1,10,59
1501932020504300,-19,-16,-16,3,-2,-3,-69,-17
1501932020504300,29,-2,23,8,1,4,42,21
1501932020505273,-14,8,-34,5,-2,-4,-41,-4
1501932020505273,-4,8,53,7,6,-1,-60,-11
1501932020527303,-16,-19,-23,36,-5,-3,56,26
1501932020527303,26,-2,-10,-3,-1,0,-38,32
1501932020527303,-13,-4,-24,-13,-4,-2,50,-19
1501932020527303,-8,-2,43,-4,3,0,-11,-17
1501932020542322,5,-2,-47,-15,-4,-1,-8,8
1501932020542322,-19,5,9,18,1,-5,-26,6
1501932020542322,2,-6,-1,6,-1,-3,-14,62
1501932020542322,-46,-6,0,25,-1,2,29,22
1501932020572331,18,15,62,-11,3,3,36,-20
1501932020572331,-20,0,1,-9,-4,-5,4,22
1501932020573310,-18,-5,5,-1,0,-3,-43,-38
1501932020573310,-14,2,-11,1,1,-1,1,-18
1501932020587266,18,5,12,-14,-1,0,21,18
1501932020587266,-34,6,-10,-8,0,1,-38,-29
1501932020587266,96,-6,15,15,-1,0,42,4
1501932020587266,-10,3,-24,-9,-3,-4,-6,-15
1501932020609341,-4,3,-8,-10,-1,-1,11,-17
1501932020609341,65,-7,-17,0,-4,1,14,2
1501932020610278,-86,-15,-2,-2,1,-3,-40,3
1501932020610278,11,-2,-11,-2,2,2,38,-24
1501932020632337,27,0,25,11,1,4,27,7
1501932020632337,-16,0,-29,-5,-5,-7,-9,18
1501932020633276,-4,-3,17,-8,-5,-5,-17,-7
1501932020633276,-8,2,-28,-11,1,2,8,-8
1501932020647338,-4,-4,17,4,-3,-6,-17,-17
1501932020647338,-34,-1,6,9,4,6,49,-14
1501932020647338,-6,7,25,14,-3,0,-19,-17
1501932020647338,17,-7,-13,-14,0,-4,-15,-13
1501932020669330,-10,-17,-24,-6,1,-2,-3,16
1501932020669330,-32,13,-2,18,1,-2,16,-24
1501932020670313,19,-5,14,-13,1,-1,-21,-19
1501932020670313,-26,-16,46,4,1,5,28,56
1501932020692335,-28,-6,-4,-1,1,2,-17,-1
1501932020692335,15,1,2,-15,-2,4,-9,40
1501932020693285,-41,2,8,-5,0,-3,-15,-36
1501932020693285,68,-8,-6,7,-4,-1,0,7
1501932020707342,-4,4,-15,-5,3,-3,-20,11
1501932020707342,-37,-7,-31,-14,-5,1,-41,0
1501932020707342,8,1,14,13,5,2,9,8
1501932020707342,-52,-21,-37,-3,-11,-12,-42,-8
1501932020729315,72,17,-40,-6,-1,3,29,22
1501932020729315,-44,8,43,-4,2,1,21,-40
1501932020730309,10,-14,-8,7,0,4,54,-3
1501932020730309,-44,1,2,-16,-4,-8,-53,-77
1501932020752319,-13,-5,2,3,0,-4,-14,-3
1501932020752319,38,-13,21,3,-3,-4,-5,3
1501932020752319,16,25,-2,-7,-4,0,-13,3
1501932020752319,-18,3,-2,-2,-1,0,21,28
1501932020767348,-69,-9,-7,4,-6,-3,9,-10
1501932020767348,20,-2,-49,-16,-5,-1,-8,-58
1501932020767348,23,-7,-12,-1,-5,-9,-15,0
1501932020767348,17,11,-45,0,3,6,20,9
1501932020789346,21,-3,29,-4,-1,-1,7,5
1501932020789346,-3,-11,14,1,1,-3,16,17
1501932020790278,0,23,12,3,1,7,18,22
1501932020790278,-14,5,-9,2,0,2,25,33
1501932020812326,-4,9,-7,1,5,4,-12,-13
1501932020812326,-70,-26,-21,8,1,1,-12,10
1501932020812326,-80,-5,-46,-16,1,-5,-32,-33
1501932020812326,16,14,27,-2,-2,-3,-24,-19
1501932020827351,7,8,21,-1,0,6,34,38
1501932020827351,72,8,29,7,2,-2,-4,14
1501932020827351,33,-2,-37,2,-1,-4,-22,3
1501932020827351,-8,-2,-17,-10,-1,-4,-58,-29
1501932020849336,-11,-12,2,-3,-4,-1,-3,-20
1501932020849336,13,7,-12,-6,-6,0,8,-10
1501932020850315,-10,0,9,-2,0,-5,-20,7
1501932020850315,-20,4,25,9,0,2,19,-3
1501932020872352,-27,-1,-8,-3,0,-2,29,26
1501932020872352,-1,0,-6,-9,-3,-5,-52,-7
1501932020872352,42,9,14,1,1,4,3,15
1501932020872352,42,-7,-45,-3,-5,1,20,-18
1501932020887320,-82,0,15,-2,-4,-7,-40,7
1501932020887320,0,-9,28,5,-3,0,12,15
1501932020887320,-12,-9,-12,-11,-1,-1,-8,9
1501932020887320,12,-1,25,9,2,-1,-17,-8
1501932020909351,127,-10,-20,-8,-4,2,10,1
1501932020909351,-10,36,15,2,3,-1,28,-11
1501932020910296,-42,-16,-7,2,-5,-8,-26,-21
1501932020910296,-12,2,-37,-8,-2,-1,15,13
1501932020932350,-3,-5,-18,-3,-1,-2,0,-13
1501932020932350,-10,3,4,6,2,1,18,4
1501932020932350,22,-16,9,-6,-2,-4,12,48
1501932020932350,-32,12,39,5,-1,1,-3,1
1501932020947357,18,-10,-21,-3,-1,-3,-65,-17
1501932020947357,13,6,-18,-1,3,4,35,-1
1501932020947357,39,3,30,13,3,2,-17,-15
1501932020947357,12,-17,26,-3,-1,1,44,-15
1501932020969350,9,-1,1,-6,0,0,10,-13
1501932020969350,-7,1,20,-9,-2,-4,-21,-28
1501932020970312,-12,9,4,10,1,1,14,-18
1501932020970312,-4,-10,-63,-22,-2,3,16,34
1501932020992329,-16,6,-3,12,1,-8,-28,-25
1501932020992329,-16,-3,16,10,-2,3,44,15
1501932020992329,15,-7,6,5,0,1,8,-11
1501932020992329,-10,4,4,1,-2,-4,-10,-7
1501932021007361,-10,-7,-18,-7,4,7,59,34
1501932021007361,53,-6,-17,4,0,-5,-27,-30
1501932021007361,-36,9,21,-9,-2,0,12,-8
1501932021007361,-32,-1,-2,1,0,-5,-11,-12
1501932021029358,-18,6,-7,-3,0,8,86,31
1501932021029358,56,8,11,5,0,2,5,83
1501932021030325,-40,-6,-7,-4,1,0,-10,14
1501932021030325,-34,-12,-74,-18,-4,-5,-32,-26
1501932021052351,31,-17,51,-1,-5,-2,-27,20
1501932021052351,-23,-2,-8,-4,-3,-1,-23,-24
1501932021052351,-27,-3,4,1,0,0,27,6
1501932021052351,-1,-4,7,-3,-1,-4,-52,4
1501932021067335,-21,12,-10,6,1,-5,-19,-10
1501932021067335,-14,-2,-5,-6,-7,-4,3,-54
1501932021067335,35,-11,20,5,0,-1,-30,3
1501932021067335,8,4,20,13,4,10,36,-14
1501932021089335,-39,3,-3,-3,-4,1,30,-35
1501932021089335,-10,-1,11,-3,5,3,-11,8
1501932021090306,87,20,-2,1,0,3,21,1
1501932021090306,5,15,46,6,4,-6,-14,37
1501932021112323,-25,7,-13,5,2,-3,-30,-2
1501932021112323,-9,22,12,5,0,-5,-36,-2
1501932021112323,-14,-14,-33,-10,-7,-5,18,-28
1501932021112323,15,-1,-14,-3,-3,-5,-8,18
1501932021127336,-4,10,15,1,4,5,-28,21
1501932021127336,-23,-15,-40,-9,-4,-5,1,-7
1501932021127336,4,-4,26,-4,-5,0,-27,4
1501932021127336,14,5,18,5,1,0,10,-10
1501932021149365,7,-5,3,-2,-3,-6,-9,-1
1501932021149365,-6,-12,-22,-5,-1,-2,-10,14
1501932021150311,-3,8,-12,-3,-1,1,4,9
1501932021150311,18,-2,41,9,-1,2,20,16
1501932021172341,-34,-21,-50,-14,-8,-8,-22,12
1501932021172341,-84,5,14,4,2,-2,-35,4
1501932021172341,-14,6,-21,0,2,-2,-18,-49
1501932021172341,-12,10,10,-18,-4,0,11,-54
1501932021187323,41,-5,9,10,1,2,-3,10
1501932021187323,31,-1,35,1,-4,-1,-10,-39
1501932021187323,-11,4,-7,1,-2,-10,-36,-4
1501932021187323,-6,-10,-10,4,1,4,-4,53
1501932021209344,50,0,-4,-4,-1,0,4,-39
1501932021209344,28,-11,-15,-8,2,5,21,7
1501932021210312,-34,15,35,3,-2,2,13,-1
1501932021210312,4,-7,-18,-10,-7,-9,-12,12
1501932021232320,-12,9,18,2,2,2,-22,-26
1501932021232320,-10,-2,-28,4,0,-1,-3,-12
1501932021232320,-43,-25,-9,-15,-2,-5,20,-2
1501932021232320,63,-4,17,8,1,1,-19,43
1501932021247327,17,-3,-58,-4,-1,-1,29,-64
1501932021247327,1,-6,-12,2,-2,-7,-34,-12
1501932021247327,-9,1,45,-13,2,11,80,35
1501932021247327,3,11,-16,15,-3,-3,1,-5
1501932021269344,-20,-1,-15,-1,1,3,-12,10
1501932021269344,-10,2,-2,1,3,3,13,11
1501932021270318,31,15,4,-3,-2,-2,-16,18
1501932021270318,-10,-6,-45,-7,0,-3,-33,-36
1501932021292316,13,-9,32,-5,-10,-8,-64,-1
1501932021292316,61,-5,-27,-27,-2,2,48,12
1501932021292316,9,2,-10,9,-1,0,1,9
1501932021292316,-2,-10,2,-2,1,-5,-22,-42
1501932021307335,-22,10,25,12,2,-1,59,83
1501932021307335,14,-5,-31,-5,-5,-4,-29,-1
1501932021307335,-75,-10,-18,-1,-2,-6,-29,-32
1501932021307335,20,10,-2,11,7,11,80,16
1501932021329345,-16,-12,-15,-23,0,0,-26,-11
1501932021329345,29,10,31,8,-1,0,8,45
1501932021330308,7,0,-21,2,3,8,9,0
1501932021330308,-7,-4,19,-4,-4,-7,-25,-6
1501932021352352,-22,11,43,4,1,-2,10,-10
1501932021352352,-34,-2,-13,-13,-3,-3,12,-5
1501932021352352,80,-19,-23,-3,-2,-1,19,-5
1501932021352352,-37,1,39,-3,2,1,-39,-16
1501932021367343,-10,10,-8,16,1,6,63,15
1501932021367343,-30,1,-19,4,-1,0,9,-18
1501932021367343,8,-1,-2,4,-4,-7,-19,1
1501932021367343,11,6,2,-17,1,12,60,19
1501932021389330,-46,1,16,-11,0,-3,-24,0
1501932021389330,3,-3,6,4,2,2,16,11
1501932021390312,-8,-8,-5,-10,-4,-5,-18,-5
1501932021390312,-18,-6,-8,14,2,-3,-35,-29
1501932021412349,82,-3,-7,-18,-12,-15,-41,24
1501932021412349,10,-1,-13,9,6,6,14,-14
1501932021412349,20,12,-14,-2,-3,1,-2,21
1501932021412349,48,-2,10,10,3,7,41,-7
1501932021426379,-6,2,-20,3,3,3,-29,-30
1501932021426379,21,7,42,11,3,13,90,73
1501932021434362,16,-1,-22,7,2,-4,-18,8
1501932021434362,-19,-10,-52,3,-8,-23,-71,-13
1501932021449382,-43,-5,4,3,3,11,24,-7
1501932021449382,-54,-10,25,-23,-10,-7,-93,20
1501932021450315,-6,-5,-73,-12,-1,-4,-4,-12
1501932021450315,-11,-2,39,-4,-7,-3,10,18
1501932021472358,2,0,8,15,-1,-2,-26,-40
1501932021472358,3,-2,11,-2,-4,-11,-39,-16
1501932021472358,-7,-12,4,-1,2,6,32,4
1501932021472358,4,0,0,-2,-1,-4,-40,3
1501932021486375,12,2,-16,-3,-1,-5,-72,14
1501932021486375,4,5,-23,-5,0,11,100,-46
1501932021494359,10,0,68,10,2,2,10,-8
1501932021494359,0,-9,-46,-11,-4,-4,56,55
1501932021509384,61,2,18,-4,-5,-6,32,5
1501932021509384,71,-5,8,6,1,-5,-48,-32
1501932021510354,-46,0,-9,-3,-1,-8,-40,-30
1501932021510354,-42,-4,0,-5,0,5,-10,9
1501932021532330,3,6,-44,-4,2,0,-17,1
1501932021532330,-27,-12,21,9,2,-1,16,21
1501932021532330,54,1,-28,-6,-4,3,57,15
1501932021532330,-4,-7,31,-8,-4,1,17,-30
1501932021546384,-9,12,1,0,0,0,41,7
1501932021546384,-42,9,20,6,2,1,-17,-49
1501932021554360,-20,3,0,7,2,0,-33,-28
1501932021554360,-41,4,19,-6,-4,1,33,-12
1501932021569390,14,-10,14,-5,-3,-3,-3,-21
1501932021569390,10,1,-9,-3,-2,-4,-16,11
1501932021570336,-26,7,-2,5,2,4,21,7
1501932021570336,46,5,-22,-1,0,0,-26,-17
1501932021592343,-12,-5,-7,-4,0,-3,1,-12
1501932021592343,-15,0,0,8,2,2,9,-9
1501932021592343,-20,-9,6,-9,-3,-3,-29,35
1501932021592343,-61,4,-3,-12,-3,-13,-83,0
1501932021606387,38,-3,10,4,6,17,82,23
1501932021606387,-2,7,-15,-7,-5,-6,-40,-3
1501932021614387,2,-1,8,-3,-2,-5,4,8
1501932021614387,3,-12,11,7,0,-4,-5,3
1501932021629394,-32,0,-20,-9,-7,-4,-12,-13
1501932021629394,6,-13,16,2,-2,-4,-1,-54
1501932021630338,-5,2,-16,2,1,5,22,6
1501932021630338,41,6,7,-1,-2,-7,-18,-31
1501932021652372,-12,-1,17,2,0,3,56,59
1501932021652372,3,3,-15,-6,-1,-2,12,15
1501932021652372,-37,-2,10,-3,-6,-5,-31,-41
1501932021652372,-3,1,-14,-1,4,7,37,-3
1501932021666369,6,4,18,0,-3,-2,-39,-10
1501932021666369,13,-5,-4,-3,0,4,22,38
1501932021674353,-4,-1,22,7,0,-1,-13,1
1501932021674353,-22,4,-32,-14,-1,-2,-9,49
1501932021689391,6,-6,20,2,-3,-10,-28,7
1501932021689391,-9,-5,4,-3,-2,2,-5,29
1501932021690366,4,3,-8,7,-1,-5,-25,-16
1501932021690366,13,-9,7,3,0,5,33,8
1501932021712347,-16,-8,30,2,-1,-13,-84,-24
1501932021712347,-10,2,-2,-3,-3,0,22,7
1501932021712347,56,-3,-7,-7,-3,-3,23,3
1501932021712347,-13,14,5,6,1,-6,-21,-18
1501932021726377,84,-14,-2,-5,-5,4,16,8
1501932021726377,-24,6,-19,0,2,-1,-23,-2
1501932021734340,-25,1,22,6,3,0,0,-4
1501932021734340,0,-4,-7,4,1,6,-2,15
1501932021749396,-46,-7,11,-8,-4,-2,16,-9
1501932021749396,61,11,-1,1,1,2,28,-17
1501932021750349,3,-3,4,-6,-5,-1,24,11
1501932021750349,18,-1,-11,1,-1,-1,-11,0
1501932021772346,-22,9,-13,0,-1,-4,-34,-18
1501932021772346,-15,0,2,5,-3,-2,18,0
1501932021772346,-12,-2,-5,-13,-1,2,-13,-18
1501932021772346,18,-12,20,13,0,0,41,-7
1501932021786395,-1,-5,-26,-20,-3,-2,0,-13
1501932021786395,-11,-2,-23,16,-2,-8,-33,0
1501932021794336,14,-5,16,-1,-1,5,14,37
1501932021794336,-27,6,13,0,3,6,18,-16
1501932021809338,-14,-2,8,11,-2,-3,55,15
1501932021809338,-2,-4,19,-2,2,6,29,4
1501932021810341,-9,1,-6,1,1,-2,-24,-8
1501932021810341,3,-2,17,1,-1,5,16,-7
1501932021832387,-3,7,-2,10,2,9,23,-21
1501932021832387,14,-17,20,-2,-8,-10,-15,-27
1501932021832387,9,9,10,-18,-5,-5,-4,1
1501932021832387,-29,-18,-31,-7,-1,-3,3,0
1501932021855352,13,5,-13,-2,-2,-2,-29,-19
1501932021855352,-27,-8,-1,-1,-3,-7,-55,-41
1501932021856340,-3,-5,-16,7,0,-1,4,-21
1501932021856340,20,7,4,-5,-1,-1,-5,10
1501932021869342,-9,3,-10,0,2,5,-17,8
1501932021869342,-6,-4,4,-5,-2,-6,-74,6
1501932021870341,15,0,0,-2,-3,-3,26,7
1501932021870341,3,11,-1,-9,0,-1,-9,2
1501932021892341,15,-3,0,22,-1,-1,39,-10
1501932021892341,7,1,-53,-5,-1,-1,-6,-2
1501932021892341,14,-5,-18,2,1,3,32,16
1501932021892341,11,15,20,6,-1,-2,-12,6
1501932021915384,-29,-7,-51,-12,-2,-3,-32,10
1501932021915384,51,0,14,-6,-1,-5,14,-4
1501932021916343,-24,-2,65,3,0,3,15,-16
1501932021916343,9,-6,-64,1,1,0,-14,-13
1501932021929402,1,4,29,4,1,-3,10,5
1501932021929402,-18,-3,-17,-13,-4,-3,-23,1
1501932021930343,-30,12,3,3,0,0,-20,0
1501932021930343,13,-13,-3,-6,-3,-3,19,2
1501932021952355,0,-2,1,1,-1,-8,9,-25
1501932021952355,-42,-15,-1,6,3,9,27,18
1501932021952355,-54,-13,1,-4,-3,-3,5,-14
1501932021952355,45,11,18,3,-2,0,-21,0
1501932021975354,-14,-8,-7,-15,-6,-4,-17,0
1501932021975354,7,3,-7,-3,1,-2,0,24
1501932021976350,17,-12,30,6,2,3,-2,8
1501932021976350,-26,6,-12,-2,0,1,14,-3
1501932021989387,-9,-1,0,0,-1,4,-19,-3
1501932021989387,17,-10,10,6,1,5,-21,8
1501932021990383,27,4,15,-16,-2,-1,-20,4
1501932021990383,-16,-6,-21,-1,-2,-4,-49,-18
1501932022012366,-39,6,-6,-3,5,11,45,53
1501932022012366,-3,14,-2,4,0,-1,21,-8
1501932022012366,12,2,-32,4,-3,-2,-30,5
1501932022012366,-3,-8,32,-5,-2,-3,-5,-13
1501932022035391,4,-8,-15,7,-1,-2,-10,5
1501932022035391,-35,11,6,-25,-2,-1,24,-11
1501932022036360,40,-1,-46,3,0,0,14,7
1501932022036360,2,-9,41,6,-2,2,1,-10
1501932022049392,6,-8,-30,-4,-1,-6,-58,-18
1501932022049392,1,-2,8,-9,-5,-8,-16,21
1501932022050366,7,-5,-38,-6,-4,-2,18,-3
1501932022050366,-13,-3,6,2,0,-9,-19,-18
1501932022072363,4,15,19,2,1,5,47,-7
1501932022072363,-34,-17,11,1,-1,-2,20,20
1501932022072363,-13,5,-7,1,-2,-10,-35,-15
1501932022072363,1,0,-1,6,0,6,36,5
1501932022095395,-5,-6,-22,-19,-6,-11,-87,-24
1501932022095395,18,15,14,1,-1,4,11,1
1501932022096354,-6,-5,1,7,1,1,45,27
1501932022096354,-6,-3,-6,-2,-1,-5,-17,-16
1501932022109418,-19,7,22,7,0,-8,-51,-4
1501932022109418,30,2,1,5,2,8,59,16
1501932022110390,22,-11,0,-4,1,2,-36,6
1501932022110390,-5,-6,-13,-1,-6,-1,24,0
1501932022132364,-40,-7,3,-1,0,0,18,-2
1501932022132364,23,5,-4,0,-1,-3,-35,6
1501932022132364,4,0,-7,2,-2,-2,-27,1
1501932022132364,-12,4,25,-8,-2,-4,7,12
1501932022155399,33,-6,-8,-3,-3,2,38,12
1501932022155399,-22,-6,19,9,3,1,-10,-12
1501932022156357,-12,6,9,2,-3,-12,-77,-35
1501932022156357,13,6,-10,5,2,17,76,28
1501932022169402,14,7,1,-5,-1,2,15,-9
1501932022169402,-2,-3,23,2,-4,0,20,-3
1501932022170379,-9,6,-2,4,0,-4,-11,-15
1501932022170379,24,-4,-11,-1,-1,-1,18,41
1501932022192370,8,-3,-9,-1,-3,1,0,-19
1501932022192370,-5,-1,-9,-1,1,5,-24,-5
1501932022192370,-45,1,-13,-4,-3,-4,13,-12
1501932022192370,-21,-18,-1,-5,-6,-17,-78,-29
1501932022222401,7,7,8,0,2,10,19,12
1501932022222401,4,-4,-16,-4,-2,-8,-20,6
1501932022223398,6,-13,10,0,-4,8,13,52
1501932022223398,-7,26,5,2,3,0,-10,-1
1501932022229429,-1,-9,-2,3,-1,-6,-37,-18
1501932022229429,-18,-4,2,-9,-3,-12,-47,-31
1501932022230384,24,6,10,-9,2,-1,7,-3
1501932022230384,-42,-4,6,-7,-6,-8,-24,-20
1501932022252432,1,6,20,11,0,2,30,-5
1501932022252432,5,-10,-36,-4,-2,4,40,-9
1501932022252432,10,6,50,2,-2,-1,0,-1
1501932022252432,20,-6,-25,-3,1,-9,-62,41
1501932022275430,-16,3,12,9,5,5,2,16
1501932022275430,-8,2,0,-10,-3,-8,-30,-5
1501932022276374,-2,-2,-35,0,-1,-5,-35,-12
1501932022276374,-1,2,-9,4,1,4,50,12
1501932022289405,2,-1,0,0,0,-3,-1,-20
1501932022289405,-10,-16,15,-1,-3,3,35,27
1501932022290376,37,-6,-22,-4,0,8,8,-15
1501932022290376,2,-1,33,5,1,4,7,2
1501932022312377,42,0,-7,-3,-2,-1,-29,6
1501932022312377,-3,12,-6,1,1,1,11,15
1501932022312377,-15,-10,-10,-4,-1,3,46,8
1501932022312377,9,6,5,2,0,2,-20,-16
1501932022335425,-19,-9,-13,-3,-5,0,48,10
1501932022335425,1,0,-37,4,0,-7,-54,-17
1501932022336367,-16,2,29,6,1,2,18,7
1501932022336367,3,3,-23,-5,5,3,36,-6
1501932022349433,16,12,11,-4,-2,-1,-16,3
1501932022349433,12,1,-9,9,-1,4,2,-3
1501932022350369,1,7,-5,0,-2,-6,-8,6
1501932022350369,14,-5,-3,-4,0,2,2,-24
1501932022372396,1,1,-31,-6,-3,-16,-54,-24
1501932022372396,-2,5,35,-3,-1,-1,20,-11
1501932022372396,-7,-2,-5,-1,-4,-9,-25,-28
1501932022372396,-15,-4,-1,3,-2,3,-13,-16
1501932022395385,4,-10,-7,-21,-3,-4,-4,-2
1501932022395385,-2,2,3,2,-1,-4,-17,-16
1501932022395385,-21,-6,-3,-4,3,5,16,7
1501932022395385,0,0,13,4,-4,-3,11,6
1501932022408399,-22,-11,-12,-4,0,3,35,-8
1501932022408399,-5,3,-6,-2,0,-5,-10,3
1501932022417397,4,3,2,7,3,9,7,20
1501932022417397,-2,-11,47,-7,-3,-2,0,-2
1501932022432385,3,-3,3,2,-3,-5,-1,5
1501932022432385,-1,-1,-3,-3,-1,0,10,10
1501932022432385,0,1,-57,-5,-3,-3,6,-6
1501932022432385,23,8,9,-4,1,4,20,1
1501932022455416,-9,-7,-9,2,-1,-2,-9,16
1501932022455416,16,1,7,-2,-2,-5,-15,-43
1501932022456375,-6,-1,3,-6,-2,-1,25,6
1501932022456375,-22,-4,-15,-2,-2,-5,-11,-6
1501932022468441,-3,3,12,-1,3,9,20,-30
1501932022468441,6,-1,-42,-1,0,-1,-18,1
1501932022477439,21,-1,30,0,-2,-4,18,3
1501932022477439,11,4,-24,-6,-1,2,26,26
1501932022492409,-12,2,21,4,1,3,0,-17
1501932022492409,-5,3,0,0,-2,-4,-36,7
1501932022492409,-25,-3,-9,6,7,10,46,4
1501932022492409,19,10,8,-9,-5,-3,7,-26
1501932022515417,12,3,-25,-4,-2,-2,-4,8
1501932022515417,-4,9,32,5,1,8,46,0
1501932022516379,-8,-12,-4,-6,-2,-7,-15,-29
1501932022516379,-22,-3,-32,4,0,-5,-3,-4
1501932022528441,-21,-9,20,4,-1,0,0,27
1501932022528441,15,-5,20,-4,-2,-2,3,-28
1501932022537385,1,9,11,4,-4,-4,-40,-7
1501932022537385,2,-5,-7,3,1,4,-13,1
1501932022552391,51,3,-15,1,2,-5,-21,-9
1501932022552391,-22,0,-10,4,2,4,13,35
1501932022552391,7,-8,-65,-8,-8,-3,-22,-23
1501932022552391,-1,-4,-24,-8,1,-3,-27,62
1501932022575400,41,-8,-1,-2,-3,-6,33,-45
1501932022575400,7,7,27,-2,-1,0,13,-57
1501932022576381,-17,8,28,6,4,3,3,35
1501932022576381,17,-7,-8,6,-1,-4,-17,-5
1501932022588446,8,5,-17,-2,0,8,29,-45
1501932022588446,25,-6,-12,-4,-3,-6,-15,27
1501932022597383,-43,-2,24,4,3,7,0,-22
1501932022597383,0,4,1,1,-1,-2,-13,-53
1501932022612402,-50,-7,23,-7,1,-5,-24,82
1501932022612402,10,-4,-20,-5,-3,5,-11,-7
1501932022612402,23,-8,48,4,2,2,45,69
1501932022612402,-28,-3,-2,-3,-4,-2,9,32
1501932022642450,-3,4,-8,3,-2,-3,-16,-30
1501932022642450,-18,-8,-3,-5,-2,-2,-35,-5
1501932022643419,5,-15,-29,-11,-5,-2,2,19
1501932022643419,-3,-1,23,-2,0,-1,10,-7
1501932022648424,-7,3,-31,-2,-1,3,-10,5
1501932022648424,-19,3,-14,1,2,2,11,20
1501932022657385,0,5,10,0,-2,-1,-11,-20
1501932022657385,15,-6,-48,-5,-3,-1,-21,-10
1501932022672404,-1,1,31,5,-2,0,-5,21
1501932022672404,23,9,32,-9,-6,-10,-38,-59
1501932022672404,-9,-24,-35,-1,-1,-3,16,-47
1501932022672404,-67,-7,11,-13,-3,1,18,-28
1501932022695429,-8,1,-5,-4,-3,-4,20,-31
1501932022695429,-36,-2,-15,2,2,6,32,88
1501932022696389,9,5,7,-4,-1,-7,-27,-49
1501932022696389,-16,4,36,3,-2,-6,-13,-15
1501932022717456,14,1,33,5,2,3,4,33
1501932022717456,-14,-3,-4,-1,-3,1,20,4
1501932022718422,-3,0,-40,2,1,-1,-9,9
1501932022718422,29,0,5,7,-2,-3,-41,-56
1501932022732414,18,4,-9,-3,-3,-7,-57,-22
1501932022732414,-10,-1,1,5,5,4,-4,46
1501932022732414,26,8,5,-4,0,-3,-10,-1
1501932022732414,-46,-4,-5,-7,-2,-1,-10,41
1501932022755406,-9,-3,4,-2,-3,-2,9,-6
1501932022755406,-6,-1,-8,-6,-5,-6,-24,-33
1501932022756391,0,8,16,3,-1,-3,-18,-1
1501932022756391,7,-4,-21,0,4,1,5,15
1501932022777395,28,24,12,-1,-1,1,7,4
1501932022777395,2,-15,-36,-3,-3,-1,52,-27
1501932022778425,-2,10,29,1,-3,0,14,2
1501932022778425,27,18,4,2,1,0,-13,6
1501932022792411,-25,-25,3,2,4,2,29,50
1501932022792411,-15,-1,-11,-8,-6,-2,-13,-56
1501932022792411,15,1,-27,-4,-3,-4,-12,-10
1501932022792411,-2,-12,12,6,1,5,2,-34
1501932022815467,-52,-19,12,-6,-1,-4,-21,-1
1501932022815467,28,7,-32,0,2,-8,-42,27
1501932022815467,3,-4,70,10,4,1,0,-7
1501932022815467,2,8,-2,-5,-1,-1,8,14
1501932022837396,-9,-1,-13,-1,-2,0,25,-47
1501932022837396,-1,4,-3,-4,1,-2,-3,-11
1501932022838395,21,5,-18,-1,-1,-2,-28,16
1501932022838395,20,-8,11,4,2,-1,29,56
1501932022852416,7,0,-14,-1,0,10,-17,5
1501932022852416,-11,-1,33,0,-1,-2,-8,12
1501932022852416,10,6,-15,-2,1,5,12,-15
1501932022852416,5,-11,-14,1,0,7,49,8
1501932022875440,-10,0,27,1,-4,-8,-14,0
1501932022875440,7,-10,-57,-5,0,7,47,16
1501932022876399,-8,-6,-6,-4,-4,-7,-24,13
1501932022876399,8,7,17,2,-1,-2,-25,-12
1501932022897439,-6,0,-7,0,-1,0,4,48
1501932022897439,19,6,29,5,5,3,13,-4
1501932022898400,13,10,-11,-5,-2,0,2,34
1501932022898400,-9,-2,-1,0,-1,-2,-16,-54
1501932022912420,10,4,-54,-4,0,3,15,-13
1501932022912420,0,-1,36,5,0,-1,9,0
1501932022912420,9,2,-4,-2,-2,2,14,-2
1501932022912420,4,-5,-3,-7,-4,-3,3,10
1501932022935443,10,11,17,1,1,-1,-20,11
1501932022935443,-8,-19,7,2,1,0,3,-2
1501932022936403,11,-3,-18,-9,-5,-5,-5,-6
1501932022936403,9,-5,-21,-1,-2,-6,-5,16
1501932022957444,-14,-10,-6,3,0,2,-20,-11
1501932022957444,0,3,-10,-7,-1,5,19,33
1501932022958414,20,-2,23,0,-2,-7,-21,-18
1501932022958414,-16,3,-22,-5,-2,-7,-28,-11
1501932022972411,-5,-12,-28,-1,-3,-1,28,-9
1501932022972411,5,5,13,-3,-5,-8,-42,-7
1501932022972411,-11,-3,10,-2,3,5,21,41
1501932022972411,-5,7,3,-3,-2,-5,-22,-43
1501932022995446,9,8,38,5,-1,-5,18,-1
1501932022995446,-4,-8,-13,3,0,0,-19,-10
1501932022995446,-21,-1,-32,-6,-1,-1,-2,3
1501932022995446,-58,-7,-46,0,-1,1,-4,14
1501932023017448,10,-2,37,-5,-5,-3,6,-6
1501932023017448,13,2,-9,3,2,-4,-5,1
1501932023018409,-32,9,28,4,0,2,31,-25
1501932023018409,1,-6,-5,-3,2,5,-10,-22
1501932023032437,-9,-6,-19,-4,-1,-1,14,1
1501932023032437,-19,-3,5,-1,-3,-8,-63,-32
1501932023032437,13,-5,-11,3,2,6,50,35
1501932023032437,19,6,36,-1,-1,-5,-2,-10
1501932023055451,-6,1,-1,1,-1,-6,-29,4
1501932023055451,1,5,6,4,0,0,-3,15
1501932023056421,-9,-11,-20,-11,-6,-7,-27,-16
1501932023056421,21,-3,-6,-5,-1,5,44,12
1501932023077450,13,1,4,0,-2,-3,-20,-4
1501932023077450,10,-1,6,-2,2,4,26,73
1501932023078445,-22,0,10,3,3,2,3,-37
1501932023078445,4,0,-15,2,1,1,-6,11
1501932023092426,1,-5,-11,-6,-2,-3,-7,-15
1501932023092426,7,2,-17,0,-1,-2,10,0
1501932023092426,-7,-3,24,2,-1,-3,-34,19
1501932023092426,-15,-1,26,2,-2,-5,-38,-6
1501932023115455,48,7,-4,6,3,4,8,16
1501932023115455,-6,7,34,1,-1,3,42,2
1501932023115455,-4,-5,-41,-4,-2,-9,-10,-6
1501932023115455,-17,0,-21,0,0,5,32,12
1501932023137453,-7,3,34,2,-3,-5,-25,-19
1501932023137453,-11,-4,-16,-4,-6,-11,-51,23
1501932023138422,4,-6,-4,0,-1,-3,-43,12
1501932023138422,15,9,34,1,1,-3,44,-15
1501932023152413,-18,-11,-10,-10,-2,3,56,23
1501932023152413,2,0,0,-1,-2,3,14,-16
1501932023152413,1,-1,2,0,-2,0,0,-12
1501932023152413,-12,-5,-14,1,-1,0,-10,1
1501932023175485,-9,3,-22,-3,1,0,-11,-16
1501932023175485,1,2,28,-3,-4,-1,5,-8
1501932023176417,-4,-5,-37,-6,-3,-3,-18,-13
1501932023176417,31,-2,5,-4,-2,-1,-17,-4
1501932023197457,1,4,7,8,4,2,24,-4
1501932023197457,-6,-2,-12,-4,-1,0,2,-12
1501932023198444,-23,-3,0,2,0,-1,-39,-34
1501932023198444,-10,-7,-28,0,-1,-1,15,1
1501932023212437,-12,5,44,0,-1,3,30,16
1501932023212437,-15,-12,-31,-9,-6,-4,27,3
1501932023212437,6,5,14,-8,-3,0,6,-3
1501932023212437,16,-3,7,3,-1,-1,20,17
1501932023235486,-16,-8,-18,2,0,-6,-13,-16
1501932023235486,-28,6,6,-4,2,1,-2,-80
1501932023235486,11,-9,1,-2,-1,1,34,5
1501932023235486,-11,-2,14,1,-1,-6,-27,28
1501932023257464,13,-1,-3,-1,-3,-3,-12,12
1501932023257464,18,-2,-5,2,-2,-3,14,18
1501932023258433,5,0,-19,2,0,1,10,6
1501932023258433,-61,-26,-3,-2,3,1,16,15
1501932023272446,14,29,29,3,1,4,-8,-2
1501932023272446,11,-3,-32,-1,3,2,4,-15
1501932023272446,3,0,11,-1,-3,-11,-85,-2
1501932023272446,-27,-3,-20,2,-5,-1,-9,0
1501932023295476,-9,-9,-18,-8,-3,-6,-23,-11
1501932023295476,21,2,5,-1,-2,2,-6,9
1501932023295476,-26,15,30,12,1,0,28,10
1501932023295476,16,8,14,3,-2,-9,-75,-69
1501932023317467,-43,-27,-62,-12,-3,1,28,67
1501932023317467,17,5,4,-3,-2,1,-7,-11
1501932023318436,-3,-3,-3,1,0,4,35,-5
1501932023318436,29,3,-6,-5,-2,-2,-8,9
1501932023332440,12,3,33,-1,-1,-1,-18,-6
1501932023332440,-6,-12,-22,0,0,-6,-11,26
1501932023332440,-18,-11,-10,1,1,2,-13,-24
1501932023332440,48,0,8,-1,-2,-2,32,10
1501932023355503,21,8,-30,-1,0,5,16,-7
1501932023355503,-24,-4,25,-1,-4,-3,-4,10
1501932023356428,7,4,23,1,-1,-3,-14,-1
1501932023356428,5,2,-13,-5,1,1,20,-3
1501932023377502,17,-7,10,2,0,-2,-5,-26
1501932023377502,-31,-3,-26,-2,-1,0,-12,-14
1501932023378460,38,5,-2,0,1,1,35,12
1501932023378460,4,-3,-11,-5,-4,-5,1,-5
1501932023391475,3,-3,6,-2,-1,-3,-28,-19
1501932023391475,-18,-4,26,1,1,0,-37,-28
1501932023399492,-4,-3,5,5,1,8,59,31
1501932023399492,-10,-6,-8,-6,-2,-3,-19,-2
1501932023415472,-10,3,12,1,2,5,44,-10
1501932023415472,-14,-11,13,-9,-8,-17,-59,-25
1501932023416431,-4,4,-1,-1,-4,-4,-11,-16
1501932023416431,32,7,0,4,2,5,4,11
1501932023437450,-11,-6,7,1,1,6,27,-2
1501932023437450,4,7,34,10,0,-2,16,11
1501932023438441,8,-11,-27,2,0,0,-38,-1
1501932023438441,-6,-3,20,-25,-10,0,1,28
1501932023451474,-11,-9,-13,15,-1,-9,-63,-9
1501932023451474,15,9,23,0,1,5,14,4
1501932023459480,-15,-6,-35,-18,-10,-10,-38,-11
1501932023459480,-7,8,0,19,7,11,15,3
1501932023475506,8,-3,-19,-26,-2,-1,-9,-3
1501932023475506,8,4,14,18,1,2,31,-8
1501932023475506,-1,1,23,28,3,1,13,-29
1501932023475506,5,1,-12,-26,-6,1,-8,10
1501932023497475,30,-1,-2,11,-2,-6,-22,-11
1501932023497475,13,7,-14,-2,3,4,0,-3
1501932023498445,-24,-9,-5,-11,-1,1,31,-9
1501932023498445,3,5,7,15,1,-3,18,-2
1501932023511499,21,-6,6,7,0,-4,-34,-13
1501932023511499,-9,-8,-21,-7,-1,6,14,18
1501932023519483,10,7,-1,-10,-2,-1,-19,14
1501932023519483,-28,-13,-8,4,-1,-3,-25,-14
1501932023535497,-5,4,5,-6,-5,-8,-14,4
1501932023535497,-23,-10,1,-2,-2,-7,-38,2
1501932023535497,-21,4,10,2,1,1,40,2
1501932023535497,0,0,-1,2,0,2,2,-9
1501932023557494,2,3,-22,-7,-3,-5,-20,0
1501932023557494,-15,-2,-7,7,1,1,1,12
1501932023558448,6,-11,2,-17,-9,-4,16,-17
1501932023558448,8,0,4,-2,-2,-11,-20,-19
1501932023571481,-25,3,-4,-9,1,11,46,3
1501932023571481,17,-10,-6,15,-2,2,15,15
1501932023579480,7,6,8,-19,1,4,14,9
1501932023579480,-10,-2,7,0,0,0,7,-6
1501932023594449,-20,3,0,9,1,1,9,6
1501932023594449,8,-3,14,-12,-2,-9,-16,-26
1501932023595442,2,5,6,13,3,1,-15,2
1501932023595442,17,-1,-11,0,-1,5,61,9
1501932023617481,7,8,7,0,3,13,31,2
1501932023617481,9,-2,-7,5,2,2,38,2
1501932023618452,-17,-8,-2,1,-1,-5,-60,-6
1501932023618452,35,13,8,2,1,1,-10,-16
1501932023631509,-22,-13,0,3,-3,-5,-45,-11
1501932023631509,-8,0,-3,-2,3,5,52,-2
1501932023639489,5,-2,-7,1,0,4,35,7
1501932023639489,-27,-10,8,17,0,-9,-59,-5
1501932023654483,1,2,3,-30,-3,-6,-1,-9
1501932023654483,-11,0,-15,-10,-5,-4,-14,4
1501932023655454,5,0,-8,1,2,-7,-36,-11
1501932023655454,-3,3,2,3,1,-2,-16,0
1501932023677486,-5,-2,-12,5,-3,-6,-21,-26
1501932023677486,12,2,-5,-2,-2,4,64,31
1501932023678456,3,6,8,-2,-1,3,3,14
1501932023678456,-6,-5,-16,-9,0,0,14,-5
1501932023691484,18,-1,15,-1,-3,-4,20,35
1501932023691484,13,-5,-15,-8,-6,-9,-45,-2
1501932023699487,8,7,-9,5,-1,3,13,10
1501932023699487,-31,-8,3,-1,-1,1,-4,-30
1501932023714516,10,-3,0,-1,-2,-4,-21,-3
1501932023714516,-11,4,0,-4,1,-1,-11,-17
1501932023715479,9,1,10,2,1,-1,8,-4
1501932023715479,25,-6,11,-9,-6,-7,-36,22
1501932023737461,-20,4,-17,5,1,4,52,20
1501932023737461,10,-3,-3,5,4,7,48,-4
1501932023738456,-45,-9,-16,-5,-4,-1,32,0
1501932023738456,46,8,7,-6,-2,-2,20,20
1501932023760499,-1,-6,-5,7,0,-4,-28,-12
1501932023760499,-4,2,10,-2,-6,-12,-80,-13
1501932023761451,14,-5,9,3,0,-1,-2,16
1501932023761451,-70,-7,-28,-8,-2,-2,24,-32
1501932023774517,24,8,18,2,-1,0,10,0
1501932023774517,20,2,-4,-5,0,-2,-9,2
1501932023775450,-7,-2,-6,-4,-1,-4,-14,-19
1501932023775450,-11,4,9,5,2,3,11,-6
1501932023797517,-5,-10,-10,-2,0,-2,-20,-4
1501932023797517,-2,1,13,-1,1,5,13,14
1501932023798463,0,2,-7,-3,-1,-1,-16,-4
1501932023798463,38,-9,-6,4,5,16,99,51
1501932023820483,-6,13,9,-2,-3,-4,-4,0
1501932023820483,-4,-3,3,1,-1,2,23,-2
1501932023820483,-19,-10,3,0,-1,0,5,-14
1501932023820483,26,1,-3,-1,-3,-6,-42,28
1501932023834525,-6,-9,-12,-2,-2,3,17,0
1501932023834525,-10,1,6,-3,-3,-3,-6,-9
1501932023835465,-2,4,1,-4,-4,-6,-23,-7
1501932023835465,11,-11,-6,4,-1,-7,-42,-18
1501932023857498,2,1,4,22,2,-1,-8,-9
1501932023857498,37,1,1,-37,-6,-6,-47,-27
1501932023858466,-11,-10,-41,-4,-2,1,21,11
1501932023858466,-36,-1,18,-1,0,-3,-24,11
1501932023879498,8,-3,-9,-3,-2,1,10,-16
1501932023879498,-33,-3,-5,9,1,-4,-33,-22
1501932023880486,16,5,1,0,0,1,-5,8
1501932023880486,-4,9,17,-3,-1,-1,18,6
1501932023894496,-22,-6,0,-3,-2,-5,-15,4
1501932023894496,16,-3,1,6,0,-1,6,8
1501932023895469,1,3,-2,-5,-2,3,3,26
1501932023895469,11,2,3,1,-2,-2,4,-8
1501932023917519,-29,-1,-3,-6,0,0,5,-1
1501932023917519,1,-1,-28,1,0,4,41,-1
1501932023918493,-22,-9,30,2,-2,-6,-20,-4
1501932023918493,2,8,-1,-2,-1,-1,-19,-9
1501932023940523,16,-3,-22,-8,-2,-4,7,2
1501932023940523,-7,6,7,4,-1,-2,3,-7
1501932023941461,2,10,5,1,1,0,-17,-4
1501932023941461,-10,2,-10,-2,-3,-4,-5,-8
1501932023954507,-6,-11,1,-4,-3,-7,-13,4
1501932023954507,-14,-2,5,3,1,0,54,12
1501932023955460,9,-5,-6,-2,0,0,24,20
1501932023955460,-60,-5,1,-3,-2,-1,7,-9
1501932023977523,-5,3,28,-1,-1,-2,-30,-12
1501932023977523,6,-1,0,3,-1,-3,-12,0
1501932023978497,1,-3,-2,-3,-2,-5,-59,-3
1501932023978497,1,1,25,-1,-4,3,14,-11
1501932024000491,0,-2,-28,0,1,-4,-21,11
1501932024000491,-12,5,7,-1,-4,0,10,2
1501932024001465,9,16,-1,2,1,2,-8,-13
1501932024001465,2,-1,-2,-2,-3,-1,-41,7
1501932024014528,-2,0,6,-1,-2,-2,13,-2
1501932024014528,12,0,-9,0,-1,-5,-62,-20
1501932024015464,18,-6,-14,0,-2,-3,18,-6
1501932024015464,-6,0,-1,-2,-3,-5,-3,-39
1501932024037505,-17,-4,12,-3,1,5,73,31
1501932024037505,-12,-3,-25,-4,-3,-8,-56,-13
1501932024038498,-2,-9,-2,2,2,4,39,-20
1501932024038498,7,-4,3,-3,-1,3,13,21
1501932024060509,7,-4,-35,15,-1,0,-25,-18
1501932024060509,-1,-2,15,-31,-5,-2,0,-8
1501932024060509,24,-17,0,-8,-7,-13,-70,17
1501932024060509,17,3,-10,2,5,6,6,-1
1501932024074516,-3,6,5,3,2,0,1,-3
1501932024074516,-4,-6,-5,9,2,3,-1,10
1501932024075469,-31,-5,2,-1,-1,-2,15,-9
1501932024075469,13,-1,1,0,-1,0,11,29
1501932024097529,11,2,6,3,1,0,1,5
1501932024097529,-20,-3,-3,-4,1,3,5,10
1501932024098490,18,2,9,-1,-1,5,22,10
1501932024098490,11,8,9,32,1,-4,-27,-8
1501932024120473,-15,-3,-23,-40,-5,-1,-4,-14
1501932024120473,-7,-4,-2,-2,-2,-6,8,-1
1501932024120473,51,6,3,-7,0,4,77,7
1501932024120473,11,-5,-11,-22,-5,-1,10,-22
1501932024133510,-3,8,5,22,2,5,39,6
1501932024133510,-10,-4,5,-3,-5,-1,-1,-1
1501932024142485,-32,-1,-12,28,6,-2,-22,4
1501932024142485,-8,-3,-17,-7,4,-5,-2,7
1501932024157533,3,-1,26,-19,-4,3,3,17
1501932024157533,-2,1,2,15,3,4,51,7
1501932024163483,-15,3,2,-3,-3,2,34,-5
1501932024163483,-10,-5,-3,5,5,4,44,33
1501932024180491,26,-3,-17,5,-2,-2,-41,-21
1501932024180491,13,1,1,3,1,2,-9,-11
1501932024181475,1,4,6,-2,-2,0,-20,-11
1501932024181475,-9,-11,-4,-6,-4,-6,-19,-25
1501932024193481,-5,0,5,1,0,-8,-14,0
1501932024193481,-33,-11,0,1,-3,-2,15,26
1501932024202476,-38,1,-6,-7,0,-3,-42,-23
1501932024202476,32,2,11,-2,-5,-2,-2,-1
1501932024217546,-12,-9,-6,1,-3,-2,-25,15
1501932024217546,27,-3,-15,31,5,5,26,7
1501932024219508,-18,4,-1,-37,-4,-4,-10,-7
1501932024219508,-13,-3,-11,-3,-2,0,8,-6
1501932024240516,6,0,4,-2,0,-4,-36,-7
1501932024240516,3,3,-4,-5,-2,-1,-17,6
1501932024241486,15,-3,11,13,3,-6,-14,-15
1501932024241486,-27,-8,-2,4,2,3,38,7
1501932024253515,25,15,2,-3,-1,6,-1,-17
1501932024253515,0,4,-1,-1,0,-2,-44,16
1501932024262509,16,0,1,6,-2,-4,24,-9
1501932024262509,-12,-4,-10,-11,-4,-3,-10,-7
1501932024277528,-17,-5,0,6,-2,-4,13,5
1501932024277528,4,2,0,-7,2,5,10,-9
1501932024279479,16,0,1,2,-2,6,58,17
1501932024279479,6,6,-2,2,1,3,12,6
1501932024300540,-7,-4,5,-1,0,-3,1,-3
1501932024300540,9,5,3,-2,-1,8,27,10
1501932024301488,-1,-2,0,2,-1,4,28,12
1501932024301488,-2,1,0,0,-2,-2,-28,-32
1501932024313522,-2,-5,-5,-4,-5,-3,24,-12
1501932024313522,6,-2,1,-3,-3,-7,-14,-9
1501932024322493,-8,-6,-3,0,-2,-3,-35,-2
1501932024322493,6,3,1,0,-1,-1,-2,-1
1501932024337497,1,1,2,-2,2,7,-20,1
1501932024337497,-1,-3,-3,-3,-2,-5,-30,-2
1501932024339484,4,0,1,-1,0,4,20,10
1501932024339484,0,2,-2,-1,-1,-4,-20,4
1501932024360541,-4,-3,-1,-2,-3,-2,-5,6
1501932024360541,-2,-1,0,0,0,3,68,-5
1501932024361493,-4,-1,-3,-3,-3,-3,-27,6
1501932024361493,-6,-2,-2,0,-3,-3,-9,-1
1501932024373524,-5,1,-1,1,-1,3,17,5
1501932024373524,0,1,1,-3,-2,-3,-13,-1
1501932024382502,-2,-1,-1,2,1,2,19,5
1501932024382502,0,-1,-2,-2,0,1,3,1
1501932024397532,-2,-2,0,0,0,1,25,-3
1501932024397532,-9,1,1,-2,-2,-5,-49,-15
1501932024399514,11,-1,2,1,-2,2,18,21
1501932024399514,2,2,-3,0,2,1,-6,4
1501932024420492,-3,-2,-1,-1,-1,1,10,0
1501932024420492,-1,-2,-2,-2,-1,-5,-7,-6
1501932024421489,-6,-1,-4,-3,-2,-4,-21,-11
1501932024421489,-1,0,-1,-3,-2,-1,-1,-7
1501932024442532,0,-1,-1,-2,-5,-9,-24,1
1501932024442532,-1,-1,-3,-1,3,-1,-1,-4
1501932024444489,-3,-3,-1,-3,1,4,-10,-7
1501932024444489,0,0,1,-2,2,0,-7,2
1501932024457512,0,-2,0,-3,-8,-4,-6,-3
1501932024457512,0,0,-2,1,-10,0,9,5
1501932024459492,-4,-3,-2,2,7,3,-19,-7
1501932024459492,1,-2,-1,-1,-1,1,-8,1
1501932024480541,-2,1,-3,0,-9,-1,-6,-3
1501932024480541,-1,0,0,0,7,-1,0,-6
1501932024481500,-2,-1,0,-2,-4,-4,-20,-3
1501932024481500,-1,-2,-1,-1,-1,-1,-6,-5
1501932024493532,-2,-2,-2,-4,2,-4,-3,3
1501932024493532,3,-2,-3,-2,-5,-2,4,1
1501932024508539,-1,-1,-1,-2,-4,-6,-14,-6
1501932024508539,0,-1,-1,-1,-2,-1,-1,6
1501932024518529,1,-1,-2,1,3,0,-35,10
1501932024518529,0,-2,-1,-3,1,5,22,7
1501932024523552,0,0,-1,-2,1,-2,-1,-4
1501932024523552,0,-3,0,1,-4,-4,-10,-7
1501932024540516,-1,-3,2,22,5,-1,-1,4
1501932024540516,-1,-1,-4,-32,-6,-3,-21,-3
1501932024541507,1,0,-2,0,2,3,18,8
1501932024541507,-1,-1,-2,-6,-1,1,3,4
1501932024553560,0,-2,2,1,2,3,12,-3
1501932024553560,-1,-1,1,23,-1,-6,-7,-1
1501932024562507,-1,0,5,20,1,1,-7,-3
1501932024562507,0,0,-5,-7,-5,-3,-7,-3
1501932024577535,-2,-3,-2,-19,-7,1,12,0
1501932024577535,0,1,3,1,2,4,2,3
1501932024579511,-3,-2,-2,-6,-5,-10,-15,-2
1501932024579511,-1,0,-2,2,6,4,2,-2
1501932024600534,1,-1,-3,15,3,-1,2,-4
1501932024600534,1,0,0,-2,-4,-3,1,2
1501932024601510,-2,0,-1,-21,-8,-3,-7,-4
1501932024601510,-3,-3,1,17,1,-5,-21,-2
1501932024613540,-2,-1,-4,-29,-1,4,24,2
1501932024613540,0,0,0,6,-3,-1,-5,2
1501932024622526,-1,-2,-2,33,5,2,0,-2
1501932024622526,-2,-2,-8,-52,-8,-3,-6,0
1501932024637502,0,0,7,10,3,-2,-5,-2
1501932024637502,0,-3,-6,4,5,2,4,1
1501932024643544,-1,-3,-18,-52,-9,-4,-8,-1
1501932024643544,-2,-2,8,81,-3,-2,2,0
1501932024660519,-1,3,22,17,5,3,0,-2
1501932024660519,-3,-3,-10,-25,-6,-4,4,-3
1501932024661511,-1,-1,2,-23,-4,-4,-4,-1
1501932024661511,0,-1,-8,-13,2,3,3,-3
1501932024682573,-1,-2,-8,10,2,0,-1,-1
1501932024682573,-1,0,5,19,-1,-3,-3,-2
1501932024684536,1,-1,-8,-37,1,3,-2,-2
1501932024684536,-1,1,1,10,2,-5,-2,0
1501932024697525,-2,-2,0,-10,-9,2,2,0
1501932024697525,-2,-3,-1,-5,4,5,2,-1
1501932024703571,-1,0,-1,22,-3,-2,-3,0
1501932024703571,0,-1,5,-5,1,2,1,-1
1501932024720505,-2,-3,-7,-13,1,-5,-9,-4
1501932024720505,1,1,-3,3,-4,-2,5,0
1501932024721505,-2,-2,3,7,-1,0,1,2
1501932024721505,0,1,3,14,5,0,-1,3
1501932024742564,0,0,-15,-67,-8,0,-3,0
1501932024742564,-1,2,4,58,6,0,-4,-3
1501932024744542,-3,1,24,10,8,-2,-4,-3
1501932024744542,0,0,-10,22,1,1,2,-1
1501932024756574,-6,-7,-1,-48,-15,-4,-4,-5
1501932024756574,0,-2,-8,-46,-13,-5,-2,0
1501932024763552,-1,-3,-4,10,2,2,0,0
1501932024763552,-1,-2,-1,-17,6,1,3,3
1501932024780546,1,1,-5,61,10,5,2,0
1501932024780546,1,0,4,24,-4,0,-1,-2
1501932024781509,-2,-2,-1,-22,-2,-5,-5,-4
1501932024781509,-1,-2,-5,-24,-7,-4,-2,-3
1501932024802573,1,1,8,5,3,-1,-1,-1
1501932024802573,-1,-1,2,43,2,6,4,3
1501932024804509,-1,-1,4,60,3,-3,0,-2
1501932024804509,0,-1,-6,13,-4,2,0,-1
1501932024816584,0,2,5,-29,4,-2,0,-1
1501932024816584,0,0,-8,-27,2,5,0,-1
1501932024823544,-1,-1,-5,-24,-5,-1,2,-1
1501932024823544,-1,-1,-9,49,-19,-12,-2,-3
1501932024840523,0,-2,1,-67,-2,3,-3,-2
1501932024840523,-4,-7,-1,-65,-6,-11,-6,-3
1501932024841521,0,0,-5,13,-1,6,3,-1
1501932024841521,-1,-1,9,-51,4,1,-3,-1
1501932024862555,0,0,-8,45,-2,-3,0,1
1501932024862555,0,-1,3,61,9,2,-1,-1
1501932024864545,-1,-2,-4,-72,-11,-7,-1,-2
1501932024864545,-1,1,-2,-44,0,2,1,1
1501932024876576,-2,0,4,53,1,-1,-1,-1
1501932024876576,-1,-1,-7,-11,0,-1,-3,-2
1501932024883554,0,-2,1,48,4,-2,0,0
1501932024883554,0,-1,-2,-41,-8,2,2,0
1501932024900531,0,0,5,53,5,-2,-2,-3
1501932024900531,0,-1,1,-11,0,-2,1,0
1501932024901517,-3,-2,0,8,0,1,-1,-1
1501932024901517,-1,-1,-3,7,1,-2,-1,1
1501932024922550,-2,-3,-6,-12,-3,-8,-3,-3
1501932024922550,1,2,3,-9,2,4,-2,0
1501932024924551,2,3,-1,4,2,1,3,1
1501932024924551,-1,-2,-3,11,0,2,0,-1
1501932024936584,-1,0,6,-58,-5,0,0,-1
1501932024936584,-2,-2,-1,5,-4,-4,-4,-2
1501932024943582,-1,-2,-4,-28,-1,-1,0,1
1501932024943582,-2,0,1,13,0,-2,-3,-3
1501932024960532,2,1,-5,4,8,1,3,1
1501932024960532,-2,-1,-5,-26,-5,-2,0,1
1501932024961521,-4,-3,4,32,-4,-6,-4,-3
1501932024961521,2,1,9,9,4,-5,0,1
1501932024982563,-1,-2,-7,23,-5,-3,0,-1
1501932024982563,-1,-1,1,-9,5,8,1,1
1501932024984534,0,-1,-9,33,3,2,-1,-1
1501932024984534,-3,-1,4,-46,-6,-1,-2,-2
1501932024997537,-2,0,3,24,2,0,-2,-1
1501932024997537,-1,0,7,16,-1,-3,-1,-1
1501932025003566,-2,-4,-7,-28,-10,-5,-4,-1
1501932025003566,0,-1,0,-14,3,2,1,-2
1501932025020525,-1,-3,-5,15,-4,1,-2,-1
1501932025020525,-1,-1,-1,9,-3,-4,-1,-2
1501932025021524,-1,3,0,-20,2,1,-3,1
1501932025021524,-1,0,-1,18,3,0,1,0
1501932025042568,-1,-2,-6,-28,-6,-3,1,-4
1501932025042568,2,-2,2,-19,-2,-5,0,-1
1501932025044536,-1,-3,4,-2,1,-3,-3,-2
1501932025044536,-2,-2,-8,-5,1,4,2,-1
1501932025056525,-3,0,9,52,10,2,0,-1
1501932025056525,0,-5,-9,-72,-16,-8,-3,-3
1501932025063567,1,2,2,9,3,2,-2,0
1501932025063567,-2,-5,-4,-17,-6,-6,-5,-2
1501932025080540,0,-2,-8,-15,-3,0,-1,4
1501932025080540,-1,2,1,25,4,6,3,-6
1501932025081529,1,-1,-3,-20,-8,-2,-8,-1
1501932025081529,1,1,-4,8,-3,2,14,4
1501932025102566,0,1,2,20,3,0,-2,2
1501932025102566,-2,1,1,3,0,-2,0,-6
1501932025104528,1,-1,-3,-8,-1,2,0,0
1501932025104528,-1,-1,5,22,-1,-4,-8,-3
1501932025116591,0,-3,-6,-17,-10,-3,2,-1
1501932025116591,-1,0,1,7,1,1,0,3
1501932025123548,0,-1,-1,-15,-1,-1,-3,-3
1501932025123548,-1,-2,-2,1,0,-1,-2,2
1501932025140546,-1,-2,2,-2,-4,-5,-2,-4
1501932025140546,0,-2,-8,-6,1,3,-1,0
1501932025141529,-1,1,-1,34,2,0,3,-1
1501932025141529,2,1,6,57,-2,-3,-4,0
1501932025162544,-2,-5,-6,-39,-10,-3,-1,-2
1501932025162544,1,2,8,-2,11,-3,-15,-4
1501932025164532,11,-3,-7,-48,-15,-1,23,7
1501932025164532,-10,-5,8,36,6,1,-6,-7
1501932025176592,-1,2,-3,-14,-4,3,-1,-1
1501932025176592,-1,-1,-1,-12,-1,-5,-1,-1
1501932025183579,2,0,2,16,1,4,-5,0
1501932025183579,1,1,-2,-28,-2,-2,-8,-5
1501932025200547,0,-1,5,-38,1,1,0,-1
1501932025200547,-1,-5,2,53,-3,-2,-6,1
1501932025201546,-7,1,-6,1,0,-2,4,-1
1501932025201546,-3,-3,-7,-7,-4,5,7,0
1501932025222595,-3,-1,-8,-22,-1,-1,0,-1
1501932025222595,-3,-1,-6,-4,-5,-2,2,0
1501932025224535,0,1,-2,41,7,-2,-10,-3
1501932025224535,-1,0,2,-67,-3,-4,-18,-4
1501932025236606,-1,-1,2,108,4,-3,9,-1
1501932025236606,9,-2,-3,-11,-18,-4,0,-6
1501932025245536,-7,-1,17,-23,1,-1,-5,-4
1501932025245536,1,-6,-7,46,-5,-3,3,5
1501932025260556,2,-1,-13,45,11,1,-20,-2
1501932025260556,-4,0,-19,-88,-3,2,6,4
1501932025261538,-2,-1,1,76,-4,-3,1,0
1501932025261538,1,5,10,-30,0,0,-8,-9
1501932025282607,-3,0,5,12,7,1,2,7
1501932025282607,-1,-2,-1,4,-8,0,9,3
1501932025284551,1,2,3,-52,-1,-2,-16,-7
1501932025284551,-7,-2,6,12,3,5,10,6
