timestamp,emg1,emg2,emg3,emg4,emg5,emg6,emg7,emg8
1499877187178005,-78,-5,4,3,1,7,99,-23
1499877187178005,2,3,-3,0,-1,1,10,-25
1499877187179016,14,-20,7,-5,-4,-3,14,67
1499877187179016,13,11,75,9,-2,0,-14,-6
1499877187179991,47,-10,3,5,6,-3,-43,-4
1499877187179991,-13,-3,9,4,4,-5,-74,-71
1499877187180994,-48,-3,-11,-15,-9,4,76,-86
1499877187180994,-38,44,-21,-14,-9,-4,37,-62
1499877187191001,29,22,18,28,6,-5,-46,16
1499877187191001,-37,-24,-5,-14,-7,-19,-90,-61
1499877187200006,-7,-20,-4,-8,-2,-2,48,11
1499877187200006,29,5,13,-6,3,14,82,25
1499877187208003,21,1,-22,1,-4,-7,-57,-8
1499877187208003,-20,49,22,19,0,-1,-6,-30
1499877187222073,-37,14,1,-8,-2,-12,34,-46
1499877187222073,-8,-33,-16,13,-2,6,-26,-17
1499877187230008,24,16,15,2,2,2,14,63
1499877187230008,5,-23,-28,-9,-1,6,62,-24
1499877187245008,64,8,-12,-6,-2,6,48,38
1499877187245008,-53,-18,12,5,12,-8,-19,44
1499877187253006,15,5,-7,-3,-1,-2,-46,8
1499877187253006,49,1,21,10,5,-19,-119,98
1499877187266055,-75,-21,2,0,-5,43,82,-54
1499877187266055,46,-33,-30,7,-12,32,10,107
1499877187307995,-13,-3,-2,-12,-14,-6,-41,-16
1499877187307995,-7,-6,10,1,6,14,104,-27
1499877187312018,15,11,3,18,3,-3,-56,-49
1499877187312018,12,9,0,11,-5,3,-81,-6
1499877187312993,-12,49,10,26,31,-3,-16,-47
1499877187312993,-26,-35,-29,-16,-12,6,20,-3
1499877187313997,37,-7,-21,-2,-6,-5,-24,52
1499877187313997,-90,-12,-30,16,-17,-13,36,-122
1499877187318022,6,-15,-14,-32,-8,-8,-30,18
1499877187318022,-17,-1,5,-15,8,19,44,-3
1499877187327010,-37,-5,-8,-19,11,-43,-97,34
1499877187327010,27,-21,23,-24,-9,64,100,110
1499877187334010,-14,-31,25,113,27,8,-48,49
1499877187334010,-11,4,-54,-68,-44,-25,-128,9
1499877187349007,-25,3,25,-72,-9,-8,-31,-17
1499877187349007,-15,24,-9,24,8,-27,18,-40
1499877187356040,-64,-4,9,-36,-7,7,127,-112
1499877187356040,51,7,24,64,-9,-24,-124,-2
1499877187379041,8,22,-16,-27,-16,22,120,-12
1499877187379041,53,4,13,9,29,4,-68,58
1499877187380001,-28,-12,-14,-7,20,9,56,-65
1499877187380001,7,0,-18,54,-24,-37,-111,62
1499877187396000,-6,9,4,9,16,43,96,13
1499877187396000,15,-1,24,-47,4,-23,-97,11
1499877187396000,44,-6,-2,4,-15,14,97,98
1499877187396000,-11,9,3,4,30,12,-17,-13
1499877187417012,-24,-40,2,25,-5,-6,-36,-19
1499877187417012,-46,27,18,10,1,-14,-57,-71
1499877187417012,1,-10,-20,-39,-15,-1,-19,73
1499877187417012,1,4,4,-4,-4,-13,-36,-53
1499877187439046,-23,-4,-27,46,9,18,82,-49
1499877187439046,-32,-37,35,-15,-3,10,-11,-85
1499877187440002,-14,-7,-45,-3,-21,-33,-128,-52
1499877187440002,-7,-1,9,-11,6,33,127,50
1499877187454052,21,-4,-9,42,8,-13,-52,19
1499877187454052,27,0,-13,-11,-14,-14,16,8
1499877187455013,20,-4,11,21,0,-1,-52,18
1499877187455013,20,-10,-1,-33,11,8,35,1
1499877187477015,-10,-3,4,14,-14,-8,-52,-15
1499877187477015,1,-2,-16,10,-6,-1,37,34
1499877187477015,10,4,13,-22,-8,-9,-75,-21
1499877187477015,-6,6,-6,13,17,8,96,8
1499877187499053,47,-11,-3,-73,-19,4,-59,50
1499877187499053,-28,-5,6,-5,2,3,59,-9
1499877187500007,4,21,20,20,-2,10,72,-38
1499877187500007,7,-16,-3,-48,3,-9,-52,-28
1499877187514074,-30,5,5,0,4,-2,32,-54
1499877187514074,38,5,-8,-33,-8,-6,-32,35
1499877187515018,-22,-13,-9,-11,-1,1,32,-70
1499877187515018,-11,24,-2,12,-13,-9,-21,-3
1499877187537019,3,3,4,4,9,-1,-2,40
1499877187537019,7,2,-8,29,5,-11,-29,24
1499877187537019,45,-5,9,12,2,4,-27,58
1499877187537019,-10,6,-7,11,-12,-5,10,-33
1499877187559052,-25,-1,-8,19,-9,-15,-34,-48
1499877187559052,3,-25,-63,5,1,0,0,4
1499877187560022,13,8,-6,-27,-9,-5,-8,44
1499877187560022,6,3,11,-23,-3,-4,-51,23
1499877187574058,1,3,37,7,5,-1,30,-4
1499877187574058,10,-7,5,30,-6,0,56,24
1499877187575011,8,-2,-19,-10,-4,10,41,-50
1499877187575011,4,0,8,-28,12,9,42,42
1499877187597022,15,-5,-9,3,-4,-9,-25,55
1499877187597022,-6,15,16,-23,1,-6,-65,-9
1499877187597022,-20,1,8,28,-4,-7,-41,-50
1499877187597022,11,-11,-15,17,-5,3,14,49
1499877187619058,-5,-4,-11,-44,-4,5,23,7
1499877187619058,-9,-7,-4,-17,5,3,6,12
1499877187620047,8,1,3,26,15,3,-42,44
1499877187620047,-12,-16,-10,-11,-1,-7,-1,-63
1499877187634060,32,5,-5,20,2,-12,-94,33
1499877187634060,17,-7,26,32,-2,13,43,-13
1499877187635015,0,4,-7,-31,-6,-12,-27,21
1499877187635015,-8,2,8,5,-7,-1,-10,2
1499877187657023,-2,-4,-1,4,-7,-6,-12,-36
1499877187657023,-10,21,6,-19,-1,-10,-25,-23
1499877187657023,40,5,-2,5,12,11,40,82
1499877187657023,-21,-16,-7,-7,-17,-13,-79,-18
1499877187679062,22,7,-9,-1,9,15,75,56
1499877187679062,7,6,-7,19,0,5,-21,-42
1499877187680017,9,11,14,-24,-2,7,88,-13
1499877187680017,6,-7,7,40,24,1,-36,-21
1499877187694017,-9,2,-7,-50,-23,0,5,8
1499877187694017,-5,1,1,-11,-11,-3,-17,12
1499877187695018,-3,1,-9,-18,2,-1,11,44
1499877187695018,9,18,32,40,12,-3,-56,-42
1499877187717026,-50,-12,-14,7,-2,3,67,-92
1499877187717026,6,-1,-5,-20,0,-7,-20,33
1499877187717026,-21,-7,1,8,-15,-5,21,-34
1499877187717026,6,0,43,17,13,3,4,10
1499877187739066,9,6,14,7,5,0,-30,32
1499877187739066,-15,-14,-14,0,-8,-7,67,3
1499877187740054,-17,-11,-7,-15,-6,2,14,55
1499877187740054,-17,2,-8,21,-12,-5,4,3
1499877187753058,13,6,-10,-50,9,1,-24,48
1499877187753058,-23,-10,26,-4,-4,-1,1,-36
1499877187762046,2,-5,-6,31,8,-5,-27,0
1499877187762046,2,0,-13,-16,0,7,40,-9
1499877187777032,-6,-6,-7,2,-10,-11,-69,13
1499877187777032,12,1,-10,9,1,5,-12,12
1499877187777032,6,5,23,5,10,1,-16,-1
1499877187777032,1,-2,-4,-11,-11,-2,-44,-27
1499877187799072,-2,4,15,34,4,0,9,-28
1499877187799072,-14,12,-13,9,10,13,40,-39
1499877187807034,-5,-2,0,-76,-20,-12,-15,-45
1499877187807034,-2,-16,-13,-5,20,4,6,-7
1499877187813035,2,0,3,17,-6,2,34,-16
1499877187813035,-3,-2,13,-20,-9,0,8,-10
1499877187822030,-4,9,13,15,7,-3,-23,17
1499877187822030,7,9,1,23,-14,0,21,35
1499877187837036,-22,-7,-3,-39,0,-7,-55,-56
1499877187837036,0,-5,-13,-4,12,7,79,16
1499877187837036,-3,-7,1,-5,-17,-7,-2,-15
1499877187837036,-5,1,-9,-11,-1,-3,-7,1
1499877187859075,0,1,18,46,3,5,27,-15
1499877187859075,9,3,-6,3,-2,-2,-42,-12
1499877187860063,-3,-6,-16,-25,-5,-2,-26,-7
1499877187860063,-3,4,-5,0,6,0,51,29
1499877187873041,2,-7,0,-5,-6,5,73,-106
1499877187873041,10,-2,7,-8,-2,-4,-26,10
1499877187882046,-7,-3,9,29,3,-1,1,-4
1499877187882046,-2,13,-16,-21,-1,5,6,2
1499877187897039,5,13,21,5,1,-3,-15,3
1499877187897039,-2,-15,-1,-16,-5,-2,-27,-4
1499877187897039,-7,-1,-5,12,-2,-1,-58,-44
1499877187897039,18,-5,-13,-10,-5,3,72,32
1499877187919070,-38,-6,5,-5,5,-4,-28,-50
1499877187919070,2,1,-4,54,-3,-1,-5,25
1499877187920030,4,7,-9,-8,-7,0,-21,-17
1499877187920030,-16,-6,12,7,19,4,3,-21
1499877187934055,12,-1,0,-5,-8,6,6,39
1499877187934055,-2,-1,5,-7,-1,-8,-8,11
1499877187942043,-10,-10,-11,30,-3,0,15,-3
1499877187942043,16,-5,6,-28,-7,-1,1,-13
1499877187957044,8,-4,-8,22,5,3,25,8
1499877187957044,-5,2,0,-4,4,-2,-14,-2
1499877187957044,9,0,-2,3,4,-1,-12,18
1499877187957044,0,-6,-10,-18,-13,-4,-3,-11
1499877187979067,8,15,-6,-5,-12,-15,-57,20
1499877187979067,-6,5,-3,-29,-3,0,-5,-1
1499877187980035,9,6,-1,13,11,6,28,77
1499877187980035,-11,6,22,3,0,1,-9,-5
1499877187993035,-4,-4,-10,-4,4,2,-9,18
1499877187993035,2,0,-1,9,-5,-10,-31,-37
1499877188002035,-1,-1,1,-6,-3,-1,0,5
1499877188002035,-14,-1,1,1,0,-2,-3,-16
1499877188017048,27,-4,2,-2,2,2,-5,27
1499877188017048,-21,-2,-13,7,0,-4,1,21
1499877188017048,-2,-9,0,-6,1,3,-1,-10
1499877188017048,1,-10,-10,-7,-7,-6,-22,10
1499877188039080,8,-6,3,25,2,-4,15,35
1499877188039080,1,4,5,3,6,6,15,0
1499877188040038,-4,-7,-8,-17,-4,-2,-10,-17
1499877188040038,9,3,-7,6,0,0,-10,-6
1499877188053052,-1,-6,-12,-8,-5,-4,-4,9
1499877188053052,8,-1,9,7,-3,1,-2,9
1499877188062056,-4,2,3,-2,0,-6,-3,-13
1499877188062056,-4,0,4,2,-1,-1,-3,-5
1499877188077049,-9,-5,11,5,2,0,12,-9
1499877188077049,5,0,-6,-6,-3,0,-21,-8
1499877188077049,9,2,-1,-10,-4,-2,7,33
1499877188077049,-9,3,1,6,2,-1,8,-51
1499877188099104,6,1,-3,-2,1,2,2,34
1499877188099104,2,0,-2,-3,0,1,6,14
1499877188100041,-2,3,3,-6,1,-3,-35,6
1499877188100041,0,-2,-5,1,-4,-12,-39,-2
1499877188113042,2,2,0,1,1,8,78,-24
1499877188113042,-1,0,4,-4,-2,-1,-16,-2
1499877188122063,-3,-1,3,5,4,5,6,-31
1499877188122063,0,-3,5,-1,-3,-3,2,29
1499877188137059,-19,-14,-7,-10,-4,-12,-56,-67
1499877188137059,2,3,-4,1,0,3,36,-6
1499877188137059,-20,0,0,-6,-4,-1,14,-55
1499877188137059,-1,-4,2,3,4,0,-6,-5
1499877188160063,3,-1,-3,-5,-2,1,-4,34
1499877188160063,4,0,-14,0,3,1,-10,-32
1499877188161044,3,-5,2,-4,-7,-7,3,-1
1499877188161044,6,-2,-4,0,-1,6,7,6
1499877188182091,2,2,3,0,-4,1,6,12
1499877188182091,6,1,-5,4,5,-5,-25,5
1499877188183081,-1,1,8,20,-3,2,34,15
1499877188183081,3,-3,9,-23,-8,-2,-19,10
1499877188197085,-4,-5,6,-6,-1,1,-6,1
1499877188197085,-1,-1,1,-22,-15,-8,-13,-10
1499877188197085,5,-7,-12,-5,0,5,14,-5
1499877188197085,9,3,-13,1,-2,1,8,-4
1499877188219091,1,3,8,10,4,-3,-6,-59
1499877188219091,-2,1,0,4,-2,6,17,38
1499877188220053,-2,4,-6,22,0,-4,-9,-26
1499877188220053,-4,2,-6,-24,-5,-9,-25,-35
1499877188242090,-7,1,7,-7,3,16,42,3
1499877188242090,-2,-5,-5,0,-2,-9,-24,-27
1499877188243061,3,0,10,11,6,6,12,8
1499877188243061,-2,-1,3,7,4,3,5,31
1499877188257061,2,2,-6,1,-1,-6,-25,7
1499877188257061,-6,-8,2,7,1,2,18,0
1499877188257061,-1,4,-1,-14,-3,0,-1,5
1499877188257061,-7,-6,-10,5,-1,-1,8,-11
1499877188278096,-1,-4,-5,-21,-5,0,-10,3
1499877188278096,2,2,1,12,0,-1,1,9
1499877188287063,0,0,-4,12,-5,-3,-5,-3
1499877188287063,-1,-5,-7,-37,-7,2,1,11
1499877188302127,-3,-1,-9,23,3,-8,9,31
1499877188302127,0,2,2,23,4,7,-1,-22
1499877188303063,4,4,11,-30,0,-3,-4,23
1499877188303063,-3,-2,16,45,-5,-3,-15,-15
1499877188325096,-4,-5,-11,-53,-1,6,30,4
1499877188325096,0,2,-4,8,0,1,-4,1
1499877188326064,-2,1,-8,15,7,0,-10,7
1499877188326064,-12,-1,-9,-5,0,5,22,-52
1499877188338094,2,1,4,7,-1,-3,-18,2
1499877188338094,-5,-4,-2,-4,1,-2,-19,-6
1499877188347059,-5,-7,-7,-22,-4,-7,-13,-24
1499877188347059,11,1,-6,2,2,2,9,-12
1499877188362123,-11,1,4,14,-2,-4,-4,11
1499877188362123,2,-2,-13,-14,1,2,9,3
1499877188363058,-1,-1,-9,-6,4,-1,-16,1
1499877188363058,19,1,12,14,-4,-2,-1,49
1499877188385107,11,2,-1,19,2,-2,5,19
1499877188385107,-3,-2,0,-48,-8,-3,16,30
1499877188386058,1,-4,-1,31,1,5,-10,23
1499877188386058,-2,-2,-8,-54,-6,-5,7,23
1499877188398097,0,3,-2,14,-2,-6,-15,-19
1499877188398097,1,-1,2,5,1,0,2,-2
1499877188407058,-1,-3,0,3,0,2,-3,-11
1499877188407058,-3,1,-3,26,1,0,11,47
1499877188422103,0,2,9,-30,-4,-3,-21,-11
1499877188422103,-4,-4,-1,9,0,2,17,0
1499877188423069,0,-3,1,-10,-3,-8,-6,13
1499877188423069,-11,1,-1,19,1,2,17,-11
1499877188445132,3,1,-7,4,0,-1,-22,-8
1499877188445132,-5,-1,2,-5,-4,-2,-2,-36
1499877188446066,-3,1,1,-4,-2,0,6,-5
1499877188446066,-9,-1,8,-6,1,-3,-19,-17
1499877188459091,-3,-5,2,2,1,0,-18,-12
1499877188459091,1,-4,-3,-13,-6,-9,9,21
1499877188467061,3,2,2,-4,-3,2,2,-5
1499877188467061,-3,-2,-2,-2,-4,-1,-4,-12
1499877188482132,3,4,-9,-1,3,4,9,11
1499877188482132,4,1,3,12,8,4,-12,6
1499877188483098,-2,-3,-2,-13,0,-5,10,-8
1499877188483098,-6,-1,-8,-8,-6,-5,-7,-8
1499877188505105,2,-4,-3,11,-6,-6,2,12
1499877188505105,8,-1,-1,-4,-2,-1,-4,39
1499877188506065,-11,-5,-3,-6,-4,-5,-8,-10
1499877188506065,-4,1,14,0,5,8,-10,-55
1499877188518066,-2,-5,-3,-9,4,-4,-8,-2
1499877188518066,-3,4,0,-1,-1,4,23,-1
1499877188527066,-2,-4,-6,0,-3,0,8,15
1499877188527066,0,3,0,6,3,-5,-5,6
1499877188542096,-7,-1,7,3,-3,-2,-3,-10
1499877188542096,10,-1,-8,-8,-1,1,-13,11
1499877188543068,3,-5,-4,-1,-1,2,21,5
1499877188543068,0,-4,-2,-2,-4,-1,13,17
1499877188564095,-1,-1,-5,-3,-1,0,-1,-5
1499877188564095,-3,1,6,3,-3,-2,-2,-13
1499877188572069,3,-3,3,5,-1,-4,-8,10
1499877188572069,10,0,0,-2,0,1,-4,28
1499877188579070,-2,0,-1,-2,0,2,15,-15
1499877188579070,0,-1,-8,-1,-6,-6,-25,-13
1499877188587069,0,3,-7,-4,2,0,6,-38
1499877188587069,-7,0,13,9,2,0,-5,-3
1499877188602098,0,-1,-12,-6,-7,-2,-2,-2
1499877188602098,-5,1,4,-1,-4,-2,7,-1
1499877188603076,-6,1,0,0,0,-2,-13,-39
1499877188603076,7,1,-3,-2,4,6,7,18
1499877188625072,-3,1,12,10,5,2,7,-4
1499877188625072,-5,-6,2,-3,-3,-5,-8,9
1499877188626071,6,-2,-5,-11,-5,0,3,19
1499877188626071,-2,1,-2,4,-1,0,-9,-8
1499877188647108,0,-2,-4,4,-2,-2,-1,3
1499877188647108,-3,0,-5,-4,1,1,4,-10
1499877188648070,10,-1,2,1,-6,-3,-2,22
1499877188648070,-3,-2,-3,-11,-4,-7,-3,-5
1499877188662082,9,2,-1,-1,-2,-2,2,1
1499877188662082,-3,-2,2,4,-1,-2,-15,-6
1499877188662082,0,1,4,-3,-2,1,-4,-10
1499877188662082,-2,-3,-4,6,1,-2,14,23
1499877188685125,7,-2,-2,-2,0,0,3,34
1499877188685125,-8,0,0,2,0,1,5,-35
1499877188686079,-2,4,0,1,0,2,-1,5
1499877188686079,11,1,0,-3,-3,-3,-9,-4
1499877188707082,-4,0,-1,-3,-1,0,11,19
1499877188707082,-6,-3,-2,4,-1,-4,-2,-20
1499877188708081,-6,-1,1,10,6,0,-7,3
1499877188708081,-4,-4,-16,-12,0,4,2,-17
1499877188722088,-4,-1,5,10,1,-1,-8,-15
1499877188722088,-4,-3,-4,-4,-1,-2,1,12
1499877188722088,-3,-1,6,1,10,0,0,-8
1499877188722088,-6,-3,-7,12,-4,-2,-13,-6
1499877188745126,-3,-2,-12,-44,-18,0,6,-31
1499877188745126,-7,-3,10,0,5,3,20,7
1499877188746079,-4,-1,2,10,-3,-8,-5,10
1499877188746079,-5,-5,-7,-17,-4,0,6,4
1499877188767124,2,-2,-2,2,5,-5,-48,8
1499877188767124,1,2,3,-6,-6,3,23,3
1499877188768093,-2,4,1,-6,-2,1,11,-8
1499877188768093,0,2,0,12,7,1,2,17
1499877188782093,-1,0,-3,13,-1,-5,-4,-24
1499877188782093,5,6,-2,3,3,0,-14,-4
1499877188782093,0,1,5,-3,1,0,5,-2
1499877188782093,-11,-2,-4,-12,-8,-3,-6,0
1499877188805129,-17,2,9,-5,1,2,19,-65
1499877188805129,-3,-5,-5,9,4,-3,-19,4
1499877188806086,1,-3,-5,-7,-3,-1,4,-1
1499877188806086,2,-1,-4,-1,-2,-3,-1,-7
1499877188827127,-1,-3,-4,1,-1,0,4,16
1499877188827127,1,0,-1,-3,-2,-3,-3,-12
1499877188828081,3,-3,-5,-5,-3,1,-13,5
1499877188828081,2,-7,-3,-7,-5,-2,5,7
1499877188842097,2,-1,-7,4,2,2,-3,18
1499877188842097,5,0,-1,3,-1,0,-2,-4
1499877188842097,-10,-5,-4,-11,-4,-2,3,-21
1499877188842097,-1,1,5,4,3,1,-4,5
1499877188865132,9,4,1,6,-1,-1,15,-11
1499877188865132,-5,-1,7,0,-2,-6,-13,-6
1499877188866097,-4,-4,-10,5,2,6,-16,-4
1499877188866097,6,3,1,-19,-1,-1,-8,7
1499877188895133,12,1,1,4,-2,1,23,57
1499877188895133,-13,-5,-7,1,1,-2,-17,2
1499877188896084,-4,-3,2,-5,-4,-4,-2,12
1499877188896084,-3,1,5,7,5,2,1,-20
1499877188902099,-1,-2,-4,2,1,3,-10,37
1499877188902099,5,-1,-1,-1,-5,-5,5,6
1499877188902099,-5,-6,-6,-4,-2,0,8,-28
1499877188902099,-3,-2,1,8,-3,-5,-4,11
1499877188925157,-1,1,2,-8,-1,0,-11,-13
1499877188925157,13,0,-7,3,1,-1,9,14
1499877188925157,1,-2,2,-9,-5,-3,8,-18
1499877188925157,5,1,-1,2,0,-3,-4,5
1499877188947131,-3,-5,1,3,-3,1,-4,-13
1499877188947131,2,-1,-3,-13,-4,2,-7,-3
1499877188949089,5,-1,0,2,-1,-3,-13,29
1499877188949089,-2,1,0,10,1,1,3,-20
1499877188961159,-8,-5,-3,-2,-3,-3,4,-7
1499877188961159,-1,-2,-5,-7,-4,-2,5,27
1499877188970112,4,5,9,5,3,1,-2,-8
1499877188970112,-7,-6,-7,-6,-2,1,-1,-6
1499877188985138,-4,0,-6,-3,2,-2,-9,-13
1499877188985138,-1,-1,0,2,1,-5,-8,-13
1499877188986090,7,5,5,3,2,4,18,-4
1499877188986090,-4,0,1,6,-4,-3,1,-21
1499877189007133,-3,-2,-2,-4,-1,-2,-4,2
1499877189007133,-2,-8,-14,-8,-2,0,2,-3
1499877189009092,2,-1,5,4,-2,-3,-3,15
1499877189009092,2,0,0,-9,-5,-1,-3,7
1499877189021165,-7,-4,-7,-3,-5,-2,1,-21
1499877189021165,-4,1,0,-1,2,4,15,-11
1499877189030117,1,-2,-1,-4,-4,-5,-22,42
1499877189030117,0,-4,2,0,-2,-2,-3,8
1499877189045171,-3,-1,-2,2,2,1,-7,-26
1499877189045171,0,1,3,-2,-2,0,0,7
1499877189046098,-4,0,-2,8,0,2,5,-10
1499877189046098,-1,1,-3,0,-1,-3,-11,4
1499877189067139,2,1,6,3,1,-2,2,7
1499877189067139,-2,-3,2,0,-5,-4,-7,-5
1499877189069095,2,3,2,-4,-1,0,4,2
1499877189069095,1,-1,5,-1,2,1,4,-6
1499877189081160,-5,-5,-3,3,-3,-6,-4,2
1499877189081160,-2,2,3,-4,0,1,3,-19
1499877189090119,-3,0,-5,-9,-1,0,2,-6
1499877189090119,-1,0,-6,-5,0,1,6,8
1499877189105136,-1,1,-3,-1,-3,-3,-3,8
1499877189105136,-2,-1,10,-2,2,-1,-6,6
1499877189106123,-2,-2,-4,0,-3,0,-1,-15
1499877189106123,4,0,1,6,2,-2,-2,-5
1499877189127140,1,-1,0,-1,0,-2,0,10
1499877189127140,-2,0,-1,-4,-1,0,2,8
1499877189129098,-6,-1,3,-2,-1,-3,-9,-25
1499877189129098,-3,-5,-4,0,1,1,-2,0
1499877189141170,5,2,-2,3,4,0,7,-2
1499877189141170,0,-2,2,4,-2,0,0,2
1499877189150123,0,0,-2,-8,-3,-2,1,16
1499877189150123,1,3,-3,0,-2,-1,0,-19
1499877189165137,0,1,-1,-1,0,0,-4,5
1499877189165137,10,1,1,1,-1,1,-1,-9
1499877189166100,-8,-8,-9,-10,-8,-3,-4,17
1499877189166100,-5,-2,-4,-3,2,-1,16,-24
1499877189187146,-2,-1,-1,-3,-5,0,-4,5
1499877189187146,3,3,0,3,-1,-2,1,2
1499877189189101,-1,-3,3,-3,-4,1,-13,-7
1499877189189101,3,1,2,-1,0,-1,8,32
1499877189201153,-6,-9,-11,-11,-3,-4,-25,-57
1499877189201153,-5,-1,-4,-1,-2,-2,6,1
1499877189210104,4,3,0,6,3,-4,-1,9
1499877189210104,-2,-4,-5,-9,-8,-3,-7,-5
1499877189225106,3,-1,12,8,6,4,6,19
1499877189225106,-2,-1,-2,0,1,3,-3,1
1499877189226109,1,0,-5,-4,2,0,1,-14
1499877189226109,0,3,7,6,-3,-6,-3,-1
1499877189247148,-2,-3,3,5,-2,0,4,-1
1499877189247148,-4,-1,-2,-2,-4,0,0,-1
1499877189249105,0,1,-6,-1,0,-2,6,7
1499877189249105,-3,-1,0,-1,0,-1,-8,1
1499877189261157,-4,-1,-4,-5,-3,-1,1,3
1499877189261157,-1,-2,0,0,1,0,-3,-3
1499877189270130,-1,0,1,1,1,1,3,2
1499877189270130,2,-2,1,0,-2,0,-6,10
1499877189285109,0,0,3,3,2,0,4,13
1499877189285109,-2,-1,-8,-9,-6,-5,-5,-14
1499877189286110,-4,-1,6,2,1,1,0,-9
1499877189286110,5,-7,-10,-9,-5,-3,-5,54
1499877189307153,2,-8,-21,-6,-6,-3,5,20
1499877189307153,0,-4,9,-2,-3,-5,-2,-4
1499877189309109,-7,0,2,4,1,1,2,-4
1499877189309109,-2,1,0,1,3,1,-3,-8
1499877189321125,3,4,4,4,0,-1,7,-1
1499877189321125,-1,-6,-5,-5,-3,0,1,25
1499877189330112,-3,-2,-5,-1,-1,-1,-1,-1
1499877189330112,-4,-3,-9,-8,0,-1,-3,-11
1499877189345131,0,2,1,2,2,1,0,-3
1499877189345131,0,-2,-3,-3,-1,-1,-1,-3
1499877189346137,3,-4,-3,-2,-2,-2,-2,15
1499877189346137,-4,1,-4,4,3,-1,0,-9
1499877189367157,-3,1,12,-6,-1,-2,-3,-4
1499877189367157,-2,-1,2,3,3,-1,-4,-1
1499877189369112,-1,2,2,3,1,-1,-2,-3
1499877189369112,1,0,-1,-5,-1,-1,1,-2
1499877189381180,-4,0,-6,-3,-1,0,-2,-17
1499877189381180,-2,0,9,2,-4,-2,-4,8
1499877189390114,0,-3,-3,-3,-2,-3,0,-3
1499877189390114,-3,1,8,5,1,1,2,-14
1499877189405136,-7,-3,-9,-8,1,-1,3,-9
1499877189405136,0,2,1,5,2,1,-6,-11
1499877189406140,-1,4,-2,-3,-4,-1,-1,-13
1499877189406140,4,-2,-1,-4,-1,-1,-2,11
1499877189427163,1,-4,1,2,0,-1,1,16
1499877189427163,2,1,-5,9,1,0,4,4
1499877189429116,5,1,2,3,0,-2,-3,-2
1499877189429116,-10,2,6,1,0,0,-1,-9
1499877189441161,1,3,6,3,1,-2,-6,-4
1499877189441161,1,-4,-9,-4,-3,0,3,7
1499877189450126,-1,-3,-6,-2,0,4,6,1
1499877189450126,0,-5,-4,0,0,-2,-2,-4
1499877189465137,0,-2,0,-3,0,-1,1,4
1499877189465137,-4,-1,-5,-1,2,-1,0,-4
1499877189466147,1,-4,3,1,-3,-2,-6,-18
1499877189466147,-5,1,0,-1,-1,0,-2,-6
1499877189487165,1,-2,-7,-5,-3,-1,-2,16
1499877189487165,-1,4,3,-2,1,0,-1,-31
1499877189489125,-2,0,2,4,3,-3,-2,13
1499877189489125,3,-5,0,-7,-2,-3,3,1
1499877189501186,-5,-3,3,5,1,1,-3,-6
1499877189501186,-1,3,-1,-4,1,-1,2,-18
1499877189510127,-3,0,-1,-4,2,0,-1,7
1499877189510127,1,0,2,-1,-5,-1,4,-4
1499877189525123,-2,-2,-2,-3,0,-1,-7,-24
1499877189525123,-2,-1,-3,3,-3,-2,-4,-2
1499877189526133,-7,-3,4,-5,-3,-1,-1,-12
1499877189526133,4,-2,-3,2,0,0,-3,26
1499877189547127,2,3,-2,0,-2,-1,2,2
1499877189547127,-1,-2,0,-4,-2,-2,-5,6
1499877189549123,-3,2,3,5,-1,-5,-5,2
1499877189549123,0,-4,-7,-9,3,4,4,-2
1499877189561143,2,2,8,2,0,-1,0,5
1499877189561143,2,1,5,3,1,1,0,16
1499877189570126,-7,1,-3,7,0,-2,-1,-22
1499877189570126,8,1,-3,3,-2,0,-1,1
1499877189585136,-3,-4,-1,-3,-2,-1,-1,-7
1499877189585136,-4,-3,-9,-4,0,-3,-3,-11
1499877189586152,0,-2,-2,-4,-2,1,2,17
1499877189586152,-2,4,11,10,0,0,-2,-12
1499877189607172,-1,-4,-3,3,-2,-1,-3,0
1499877189607172,-2,0,1,-9,0,1,6,18
1499877189609126,3,-1,-3,-4,-2,1,1,-11
1499877189609126,-5,0,-4,-2,-3,-1,-6,-6
1499877189630130,0,-1,4,-1,-2,-2,-1,12
1499877189630130,-1,0,5,5,1,0,-5,-27
1499877189631145,0,-12,-16,-8,-3,-3,-1,1
1499877189631145,-4,-3,-4,-4,0,-1,-1,-13
1499877189645136,-3,1,-2,-1,-4,-1,-1,-6
1499877189645136,4,-1,-4,-4,-3,0,2,-10
1499877189646153,3,5,7,2,-1,-1,3,17
1499877189646153,-5,-2,0,-5,-4,-2,-3,1
1499877189675137,0,0,-4,-5,-3,-1,1,3
1499877189675137,3,0,-2,-1,-1,-3,-2,12
1499877189676148,-1,2,9,8,2,-1,-3,-1
1499877189676148,1,-1,-6,2,5,3,8,13
1499877189690145,-4,-2,-3,-4,1,-1,-1,-20
1499877189690145,-8,-1,-4,-2,-1,-1,-13,-15
1499877189691149,0,-1,-5,-4,-2,1,0,0
1499877189691149,-2,-4,0,-6,-2,-2,-1,-6
1499877189705138,3,-2,2,1,0,0,0,6
1499877189705138,1,-1,4,5,0,-2,0,13
1499877189706148,-2,-5,-13,-9,-2,0,-2,-8
1499877189706148,3,7,1,6,1,-1,2,5
1499877189727194,1,0,6,3,1,-1,2,2
1499877189727194,-2,-4,-4,-8,-6,0,1,5
1499877189729137,4,6,-3,5,1,0,0,8
1499877189729137,0,2,7,2,1,-2,1,8
1499877189750169,-3,-3,8,2,-2,-2,7,4
1499877189750169,3,0,1,1,1,0,-3,-1
1499877189751158,-5,-3,2,-4,-2,-2,-5,-17
1499877189751158,0,-1,-6,-1,-2,-4,-4,-18
1499877189764194,-1,1,-3,1,1,2,-2,1
1499877189764194,-1,-2,-6,0,-2,-4,5,2
1499877189771177,3,-3,-12,-5,-2,0,2,7
1499877189771177,-5,-1,5,3,-2,-3,-3,-31
1499877189787206,-3,0,-3,-11,-4,-1,-2,15
1499877189787206,-1,2,5,0,0,1,0,-3
1499877189789138,0,1,6,-1,-1,0,-1,-4
1499877189789138,-3,-2,-3,2,0,0,1,-14
1499877189810150,-1,-1,0,-4,-2,-2,-3,-4
1499877189810150,-3,-1,-1,-2,0,1,-3,8
1499877189811161,-5,-1,1,-2,0,-3,3,1
1499877189811161,-4,-5,0,0,-3,-3,-6,7
1499877189824210,0,-3,-9,-1,-1,-1,-1,-10
1499877189824210,0,-2,-1,-3,-1,-3,-4,11
1499877189831236,0,-1,2,1,-3,-1,2,7
1499877189831236,-2,1,-5,-6,-2,-4,-2,8
1499877189847187,-1,-1,-3,0,-2,-2,-1,-7
1499877189847187,-2,-4,4,7,2,0,3,1
1499877189849148,3,-3,-7,-6,-2,0,-11,-25
1499877189849148,-4,1,4,7,1,1,0,-1
1499877189870143,-1,-3,-1,1,1,1,2,-10
1499877189870143,-1,0,2,-4,1,-2,-2,-3
1499877189871153,-7,-2,-3,-6,-2,-1,1,-5
1499877189871153,3,-2,3,0,1,-1,-4,11
1499877189884208,-1,2,-3,0,0,-2,-3,-1
1499877189884208,3,1,1,4,2,3,4,11
1499877189891192,0,-2,5,4,1,0,-3,-6
1499877189891192,-4,-3,-11,-8,-3,-3,-4,-14
1499877189907190,-2,1,-1,-3,0,-1,-1,4
1499877189907190,-2,0,1,1,0,1,2,-18
1499877189909145,-3,-7,-8,-2,-6,-4,-2,6
1499877189909145,-1,-3,1,0,-2,-1,2,0
1499877189930157,0,1,-2,1,-1,-1,-2,6
1499877189930157,-1,-1,-8,-4,-1,-1,0,-17
1499877189931154,-7,2,1,0,-1,-3,1,-3
1499877189931154,4,2,-2,0,-2,-3,-3,10
1499877189944214,1,-3,5,7,0,1,5,12
1499877189944214,-6,-4,-2,-3,-3,-3,-15,-28
1499877189951194,1,-2,-8,-2,0,0,2,10
1499877189951194,-1,-2,-5,-5,-3,-1,-3,1
1499877189967197,-4,-4,3,0,-2,-2,-3,-3
1499877189967197,3,-1,-2,-6,-1,-1,3,18
1499877189969147,0,-3,-7,-1,-1,-3,0,4
1499877189969147,-2,0,4,-4,0,1,-7,2
1499877189990148,5,2,-1,-3,0,0,3,-17
1499877189990148,-1,0,-3,-1,-3,-1,0,4
1499877189991149,0,0,0,-2,-2,-2,-4,7
1499877189991149,1,-2,1,2,1,1,4,3
1499877190004223,-4,-2,-2,-3,-1,-2,-4,-5
1499877190004223,0,-1,-3,1,0,0,1,11
1499877190011194,-1,2,6,3,0,0,2,-3
1499877190011194,-2,0,3,-1,-1,0,-2,-3
1499877190027193,6,-1,-1,-3,-2,-1,-3,6
1499877190027193,-9,-3,-8,-6,-5,-2,0,-3
1499877190029151,2,0,2,-2,-1,2,2,7
1499877190029151,0,0,3,-1,0,-1,3,4
1499877190050164,-1,-2,3,-1,0,1,4,5
1499877190050164,-5,-1,2,4,-2,-2,-13,-13
1499877190051154,4,3,-2,-1,0,0,-2,-13
1499877190051154,-2,2,6,2,1,-2,-3,9
1499877190064223,0,1,-2,1,-1,2,1,4
1499877190064223,3,1,4,1,2,-2,5,13
1499877190071201,-5,2,0,0,0,1,0,-15
1499877190071201,10,-4,-5,-6,-4,-1,1,27
1499877190087199,-2,-1,1,4,-2,-4,-8,-7
1499877190087199,0,-2,-4,-2,1,3,3,0
1499877190089154,-3,-4,2,-4,1,-1,-2,3
1499877190089154,-3,1,6,5,0,0,-1,-33
1499877190110166,-3,-1,-7,-5,-2,-4,-1,-4
1499877190110166,2,-1,3,0,-4,-1,-1,-1
1499877190111160,-3,2,1,2,0,-3,-1,2
1499877190111160,0,-2,-5,-3,-3,-1,2,-10
1499877190123204,-3,-2,0,0,-1,-1,-1,2
1499877190123204,0,-3,-2,-2,-1,-2,0,-6
1499877190132184,2,-3,2,-1,-1,-1,-2,9
1499877190132184,-3,-1,-5,4,-2,-2,2,-2
1499877190147206,1,-1,-4,-4,-1,1,4,9
1499877190147206,-3,0,-1,-1,0,-1,1,2
1499877190149158,-4,-7,-10,-2,-3,-1,-6,-9
1499877190149158,1,-4,-13,-3,-2,-1,-5,-1
1499877190170172,-1,-1,1,-6,-3,-2,-3,-5
1499877190170172,2,2,5,10,5,3,6,-35
1499877190171158,6,-1,-4,-9,-2,2,2,12
1499877190171158,-9,3,1,-2,1,-1,-1,-9
1499877190183201,-1,-1,-10,-6,-2,0,0,3
1499877190183201,1,-3,0,-3,-1,0,0,7
1499877190192187,-1,-1,4,-2,-2,-2,-1,-3
1499877190192187,9,0,1,1,-3,-3,-2,21
1499877190207203,-2,-1,-3,0,0,0,-1,-8
1499877190207203,-4,-5,-2,0,-5,-5,-5,2
1499877190209161,1,-3,-10,-5,-2,1,0,-9
1499877190209161,-7,-3,-1,-3,-2,-1,0,8
1499877190230169,-7,-1,1,5,-1,-2,-3,-2
1499877190230169,3,1,-9,0,1,2,4,7
1499877190231161,4,-2,4,0,-2,-2,-7,12
1499877190231161,-10,-1,-2,-4,1,0,0,-18
1499877190243176,3,-1,-2,2,0,1,-3,0
1499877190243176,-8,0,-4,-7,-4,-2,0,2
1499877190252190,1,-2,-1,2,2,1,3,3
1499877190252190,0,-3,-4,-1,0,0,1,-9
1499877190267237,-1,-2,0,0,0,-2,0,-1
1499877190267237,2,0,0,3,-1,1,1,20
1499877190269164,-3,0,-3,0,-4,-4,-7,-21
1499877190269164,0,-2,0,-3,0,1,0,2
1499877190290177,0,0,-3,-7,-2,-1,-3,2
1499877190290177,0,-5,-5,-1,-1,-1,-4,6
1499877190291165,-1,2,-1,2,-1,-2,5,19
1499877190291165,4,-1,-5,0,-3,-2,-4,-24
1499877190303217,-3,-1,8,-2,-4,-3,-5,-5
1499877190303217,1,1,2,-4,0,-3,-6,15
1499877190312193,-7,0,1,3,1,3,3,-19
1499877190312193,6,-1,1,-2,-2,-2,1,17
1499877190327242,-2,-2,-2,1,1,-2,-2,4
1499877190327242,-2,-8,-8,-8,-6,-4,-3,-6
1499877190329169,0,2,2,3,0,-1,0,-1
1499877190329169,-3,-1,-2,-5,-3,1,1,3
1499877190350179,-3,1,4,5,2,-1,0,-8
1499877190350179,0,2,3,2,-1,-1,0,-3
1499877190351174,-2,-4,-3,-2,0,-4,-4,-6
1499877190351174,1,-3,-3,2,-1,1,0,17
1499877190363170,-1,-1,-9,-5,-1,-1,0,-11
1499877190363170,7,0,1,-3,0,0,-2,3
1499877190372183,1,2,0,2,0,-2,1,13
1499877190372183,-2,-2,-5,-5,0,-1,-9,-16
1499877190387216,-2,-1,-3,-5,-2,-1,-3,-17
1499877190387216,-3,-7,-11,-6,-7,-2,-1,3
1499877190389172,0,0,-2,-3,-2,-2,-5,-13
1499877190389172,-1,2,4,4,2,0,2,4
1499877190410183,5,0,3,2,-1,0,-1,34
1499877190410183,-1,2,-1,-1,-1,-2,-3,-14
1499877190411178,-3,-4,-5,-3,-4,-4,-1,2
1499877190411178,2,0,4,2,-2,-1,1,18
1499877190423216,-4,-4,-11,-13,-6,-2,-5,-6
1499877190423216,-2,4,5,3,-1,-3,1,19
1499877190432177,-1,-1,2,1,-1,-2,-1,-8
1499877190432177,-2,0,2,0,2,1,5,8
1499877190447221,-13,-2,-3,0,-2,1,-1,-37
1499877190447221,4,0,5,8,0,-3,-8,20
1499877190449175,-3,-4,-11,-7,-3,-1,4,1
1499877190449175,-2,0,-1,-3,0,-1,3,-6
1499877190470186,-2,-1,2,2,1,0,-1,-3
1499877190470186,-6,4,6,8,4,-1,-3,-45
1499877190471175,-6,-3,9,3,0,1,-2,-1
1499877190471175,-2,-1,-2,-1,-2,-2,0,-1
1499877190483219,4,0,-6,2,-2,-2,2,6
1499877190483219,1,4,-3,-4,2,5,2,-5
1499877190492179,1,1,2,3,0,1,-1,9
1499877190492179,-1,1,-4,-3,-1,0,1,-14
1499877190507185,-2,2,16,10,1,-3,0,-6
1499877190507185,-3,-1,-5,-6,0,0,0,-1
1499877190509179,-1,-4,-8,-5,0,-3,2,15
1499877190509179,-4,-1,9,7,1,1,-3,-22
1499877190530190,2,0,-2,-3,-2,0,-2,-2
1499877190530190,-2,-2,2,1,-1,0,3,2
1499877190531181,5,1,-2,1,-1,2,-2,10
1499877190531181,-4,-3,0,0,-4,-6,-6,-1
1499877190552226,6,2,-2,1,1,-1,3,6
1499877190552226,-14,-6,-11,-3,1,1,3,-5
1499877190558232,-2,2,3,-1,-2,-2,0,-8
1499877190558232,5,-12,-18,-6,-2,-1,-8,8
1499877190567212,-4,-2,1,-3,-1,1,1,-3
1499877190567212,1,-2,-2,-6,-2,-1,-2,-11
1499877190569182,0,0,4,3,2,-1,0,6
1499877190569182,-4,-2,-1,-3,0,-1,-1,-2
1499877190590188,-2,-6,-8,-3,-3,-1,-2,-6
1499877190590188,4,1,1,2,0,0,-2,11
1499877190591190,-2,-1,-4,-4,-1,-3,-5,-16
1499877190591190,3,4,6,2,2,2,1,-2
1499877190612233,-1,-1,1,0,-1,-4,-4,7
1499877190612233,1,-1,0,-4,-2,-1,3,11
1499877190614208,-2,-2,-2,0,0,1,-2,-18
1499877190614208,-2,1,-10,-5,-2,0,1,2
1499877190627230,4,2,-3,-3,1,-1,-3,6
1499877190627230,-2,-4,-3,-2,-4,-4,-6,-1
1499877190629192,2,-1,5,1,1,0,6,18
1499877190629192,1,-3,1,1,-3,-5,-8,-12
1499877190650192,0,1,-3,0,0,3,0,13
1499877190650192,3,1,3,-2,-2,0,3,-10
1499877190651186,-8,-6,-8,-8,-6,-2,6,-13
1499877190651186,-3,1,6,4,-1,-1,-5,-9
1499877190672238,-1,-3,-1,1,-1,-3,-2,5
1499877190672238,1,2,0,0,0,2,0,-16
1499877190674196,-4,1,-3,2,-2,-2,-2,30
1499877190674196,-3,-1,-2,-4,-2,0,3,-2
1499877190686252,-1,-1,0,-2,-4,-4,-5,6
1499877190686252,6,-1,3,-2,0,0,0,6
1499877190693231,2,1,2,-1,1,-1,-2,-11
1499877190693231,-2,-2,-3,-4,-1,-1,3,-7
1499877190710202,-5,-4,-2,-2,-1,-2,0,-5
1499877190710202,-5,-5,-2,-2,-3,-4,-3,-3
1499877190711190,0,1,5,-1,-3,1,-1,3
1499877190711190,-1,0,-4,1,0,-4,-4,7
1499877190732236,0,2,4,5,0,2,3,1
1499877190732236,-1,-4,-8,-2,-1,-1,4,14
1499877190734195,-1,-4,-5,-2,-2,-1,-4,-24
1499877190734195,-8,-3,2,2,0,-1,-1,-3
1499877190746207,6,-1,-1,-3,-1,-3,0,-9
1499877190746207,-5,-2,-2,4,-2,-2,-3,2
1499877190753234,8,3,3,-2,3,4,2,30
1499877190753234,3,0,-6,-5,-5,-1,2,0
1499877190770207,0,0,-2,2,1,0,-4,-7
1499877190770207,-1,-1,-4,-3,0,-1,-2,7
1499877190771192,1,-4,-5,2,-1,0,4,-2
1499877190771192,3,-3,-2,-2,1,-3,-6,19
1499877190792238,-1,0,-6,-2,1,0,5,3
1499877190792238,-2,2,8,-1,-1,0,-1,-3
1499877190794195,-2,-4,-9,-4,-2,-2,-8,-10
1499877190794195,12,4,4,-3,-3,-2,0,28
1499877190806258,-11,-2,-9,-8,-4,-1,3,1
1499877190806258,0,1,-1,1,0,-1,0,10
1499877190813220,-2,-3,4,-2,-2,-3,-8,-21
1499877190813220,-4,1,1,2,-2,-1,0,-4
1499877190830198,-2,2,2,-4,1,0,-1,-8
1499877190830198,-1,-2,0,-8,-4,-2,1,-4
1499877190831204,-2,1,7,1,-1,-2,0,13
1499877190831204,-6,-4,-2,-2,1,1,0,-18
1499877190852243,-2,0,1,4,1,1,-1,-5
1499877190852243,-3,-1,-9,0,-4,-4,-4,-8
1499877190854203,1,-2,-4,-1,-1,-1,-2,2
1499877190854203,-1,0,6,-1,-2,0,-2,4
1499877190866258,-1,-3,-4,0,0,0,0,3
1499877190866258,2,-4,-4,-6,-2,-2,-5,20
1499877190873218,-5,-1,-2,-1,-1,-2,-2,-6
1499877190873218,5,0,1,0,0,0,3,16
1499877190890215,1,-8,-11,-11,-4,-2,1,-1
1499877190890215,1,0,-1,3,1,-2,-2,-6
1499877190891210,-3,1,2,0,0,0,-3,-11
1499877190891210,-5,-3,-9,-13,-4,0,2,-10
1499877190912271,5,-2,2,-3,-3,-2,-3,4
1499877190912271,-1,1,-1,-1,0,0,1,2
1499877190914203,0,2,4,-1,0,1,4,-1
1499877190914203,-2,-2,0,5,1,-1,4,-2
1499877190926274,-4,3,-3,-2,0,-1,-3,-10
1499877190926274,-1,-1,11,2,1,1,-1,-8
1499877190933228,-1,1,-2,0,0,-2,-1,-17
1499877190933228,0,7,10,9,-3,-3,-4,-7
1499877190950219,-2,-1,-5,-9,-4,0,3,-2
1499877190950219,-2,-1,-1,3,1,-3,-4,-7
1499877190951210,0,-1,-3,-4,-3,-3,-2,19
1499877190951210,-3,2,5,6,2,1,5,-2
1499877190972265,5,-2,-5,3,-2,-4,-7,0
1499877190972265,0,2,-1,1,1,0,-1,1
1499877190974212,0,-3,-1,-6,-5,-3,2,0
1499877190974212,-7,-2,-5,-1,1,0,-3,-26
1499877190986266,5,-4,2,-4,-4,1,3,11
1499877190986266,-9,-3,-8,-4,-1,-2,0,-3
1499877190993228,-4,2,0,4,1,-2,-9,-38
1499877190993228,-5,-3,-7,6,2,0,1,-3
1499877191010223,3,1,-5,-2,0,0,-2,-5
1499877191010223,3,0,6,3,-3,-1,-2,0
1499877191011227,-2,-2,-8,-4,-3,-1,0,18
1499877191011227,1,1,2,2,0,1,2,5
1499877191032253,-3,-4,2,-1,-1,-2,-5,2
1499877191032253,-7,-7,-4,-6,-5,-5,-9,-30
1499877191034215,0,1,3,4,3,1,2,8
1499877191034215,1,-5,-4,-5,-4,-3,-5,4
1499877191046225,-3,2,3,6,0,0,3,-3
1499877191046225,8,0,-7,-9,-4,-1,-1,19
1499877191055210,0,4,8,12,3,-3,-1,6
1499877191055210,-8,-10,-15,-19,-6,-2,-1,-4
1499877191070224,4,-2,9,4,0,-4,-5,-2
1499877191070224,-1,-2,-5,1,-1,-1,-2,-6
1499877191071228,5,1,0,1,0,3,3,16
1499877191071228,1,-1,7,1,1,-3,-2,6
1499877191092275,-3,-1,-3,5,1,0,-2,1
1499877191092275,0,-2,-4,-4,0,2,4,4
1499877191094214,1,-1,-2,-2,-2,-1,-1,3
1499877191094214,2,2,-1,2,-1,1,3,5
1499877191106265,-8,-1,-3,-4,-1,-2,-4,-40
1499877191106265,-1,1,2,7,-2,-3,-8,-13
1499877191115215,-5,-5,-3,-5,-3,1,1,-19
1499877191115215,0,0,-2,-1,0,-2,-5,-1
1499877191130229,7,3,2,3,3,2,3,33
1499877191130229,-15,-3,-6,-2,-1,-2,1,3
1499877191131228,-3,-4,-4,-2,-1,-3,-4,-11
1499877191131228,2,0,-1,7,0,0,-1,-3
1499877191152259,-3,-1,5,3,3,0,-1,9
1499877191152259,3,0,0,-3,-1,-3,3,-4
1499877191154257,0,-3,2,1,-2,-1,1,8
1499877191154257,-3,-1,-2,-2,0,1,-2,-6
1499877191166284,-2,-1,-7,-3,-3,-1,-2,-4
1499877191166284,-2,0,-2,-4,-2,1,-2,2
1499877191175216,0,2,5,1,-2,-3,0,1
1499877191175216,1,-1,0,-2,-3,-1,-1,-1
1499877191190239,-7,-1,0,-3,-2,0,-2,-4
1499877191190239,12,0,-1,2,0,0,-3,-4
1499877191191247,-9,-4,-5,-3,-1,-2,-1,-1
1499877191191247,0,0,-1,-6,-1,-1,-3,-3
1499877191212263,1,-4,-5,0,0,-3,-1,3
1499877191212263,-4,0,-1,1,0,3,3,9
1499877191214248,0,-3,-13,-5,-3,-1,-1,-1
1499877191214248,-2,-2,-7,-2,-3,-1,0,-5
1499877191226259,-2,1,1,0,-1,-1,-2,-7
1499877191226259,0,-1,0,0,3,0,2,22
1499877191235220,0,-3,-8,-6,-3,1,1,-13
1499877191235220,6,2,-3,-4,-1,-2,-2,4
1499877191250236,8,2,5,-2,0,0,0,9
1499877191250236,-6,-2,10,6,-1,-2,-3,-18
1499877191251250,-1,-3,-3,-10,-1,-2,-2,7
1499877191251250,-3,1,2,0,1,-2,1,-3
1499877191272264,-2,0,-4,-4,-2,-2,0,-4
1499877191272264,6,2,5,4,1,1,2,4
1499877191274262,-6,1,4,0,-2,-3,-8,-28
1499877191274262,-1,-7,-8,-3,-4,-3,-1,5
1499877191286292,-3,-1,2,0,1,-1,0,3
1499877191286292,-4,3,2,4,0,-1,-4,3
1499877191295224,0,-2,-1,-2,-2,1,2,5
1499877191295224,-4,0,-1,1,-1,-1,-6,2
1499877191310240,-1,-7,-7,2,-3,-4,-5,10
1499877191310240,5,-3,-3,-1,1,4,3,-4
1499877191311224,3,-1,-2,-8,-4,-1,3,7
1499877191311224,-2,1,-2,-1,-1,-2,-3,-11
1499877191332266,-5,-2,5,1,-1,-1,1,-12
1499877191332266,2,-5,-2,-3,-4,-4,-7,7
1499877191334229,2,2,2,2,2,1,3,5
1499877191334229,-2,-3,1,0,2,1,5,7
1499877191346238,-4,-2,-5,-8,-3,-1,3,-2
1499877191346238,-2,0,-4,-1,-1,-1,1,-8
1499877191355233,6,-4,-2,0,1,-1,-7,13
1499877191355233,-6,-4,2,3,2,-3,-5,-1
1499877191370247,-6,0,0,-1,1,-1,-3,-58
1499877191370247,7,2,1,-3,-5,-3,0,44
1499877191371231,-3,3,2,3,-2,-1,-2,-17
1499877191371231,24,7,4,6,2,6,14,66
1499877191393239,-31,-5,4,3,-3,-6,-22,-10
1499877191393239,-17,-2,-7,-8,-3,1,8,-32
1499877191394230,-9,-2,0,0,5,1,4,-43
1499877191394230,3,-1,-4,-7,-3,-2,-6,-3
1499877191406232,17,3,10,4,1,2,5,44
1499877191406232,-20,-2,0,0,-1,-3,-3,-62
1499877191415264,-14,-1,2,4,-2,-2,-1,-19
1499877191415264,2,-8,-16,-5,-3,-4,0,-16
1499877191430236,6,-3,-9,-4,-3,1,5,19
1499877191430236,6,2,0,-1,1,-1,-3,2
1499877191431235,9,0,3,3,2,0,2,9
1499877191431235,-14,0,5,-1,-1,-3,-3,-41
1499877191452274,8,-3,-6,-6,-2,-2,-1,16
1499877191452274,-1,-4,-7,-8,-2,-1,-1,-3
1499877191454235,12,4,1,5,2,3,4,3
1499877191454235,-2,-4,-2,-3,-2,-2,-2,24
1499877191475247,-10,-3,-4,-4,-3,-3,-2,-12
1499877191475247,6,1,1,-4,1,1,-1,-6
1499877191476242,6,-1,-3,-2,-3,-3,-4,29
1499877191476242,-6,-5,-3,-7,-3,0,-4,-8
1499877191490254,13,1,-2,0,0,1,9,-11
1499877191490254,-1,-2,1,-1,-1,-3,2,19
1499877191491243,-3,1,-1,-4,-3,-1,-2,-42
1499877191491243,-6,-2,2,-3,-2,-2,-2,-26
1499877191512284,2,2,1,3,1,0,0,9
1499877191512284,2,0,2,4,0,-1,1,4
1499877191514271,-14,-4,-4,-1,-2,-1,-3,-28
1499877191514271,3,-2,-3,-2,0,-1,-4,27
1499877191535259,-3,0,-2,-3,-2,-1,2,-20
1499877191535259,3,-1,1,-2,-2,-3,-1,13
1499877191536249,-3,-5,-5,-4,-2,-1,-5,1
1499877191536249,-4,2,-2,-2,-1,-1,-4,-10
1499877191550260,-2,0,-3,-1,-1,0,-2,7
1499877191550260,-1,-4,1,3,-2,-1,-1,0
1499877191551242,4,-3,-3,-6,-5,-6,-4,29
1499877191551242,-1,2,7,10,0,-1,7,-7
1499877191572256,-7,-2,0,-5,0,0,-1,-18
1499877191572256,4,1,-3,-5,1,0,-1,1
1499877191574275,-8,1,2,2,1,2,0,-5
1499877191574275,-3,-3,-2,-4,-2,-1,-6,5
1499877191595256,-3,2,5,6,0,-1,3,-3
1499877191595256,5,-2,5,1,0,0,0,13
1499877191596243,5,-3,1,-1,0,-1,-3,30
1499877191596243,0,1,5,6,1,1,11,64
1499877191609244,-3,0,0,4,-1,-3,-8,-32
1499877191609244,-5,-1,-2,-4,-1,-2,0,-5
1499877191625246,5,-1,0,2,1,0,3,5
1499877191625246,-1,1,-1,-2,1,2,-2,15
1499877191632292,-3,-5,-9,-3,-2,0,2,-2
1499877191632292,2,1,1,2,-3,-2,0,21
1499877191634245,0,1,-4,-1,1,-1,-7,-3
1499877191634245,0,-3,-8,-5,-1,-3,-2,-23
1499877191655263,-2,-1,13,3,-3,-5,-5,30
1499877191655263,-5,-3,1,0,0,-1,-1,-18
1499877191656249,-4,-2,-2,-1,-1,-1,1,9
1499877191656249,-1,0,-3,-4,-1,-1,-6,-14
1499877191669290,1,0,2,-1,-2,2,2,-7
1499877191669290,-3,0,2,0,-1,-1,-1,-5
1499877191676248,2,-5,-12,-6,-5,-2,0,5
1499877191676248,-1,2,4,-1,1,2,1,-37
1499877191692288,5,-4,-12,-10,-3,-1,0,16
1499877191692288,-3,-3,-6,0,1,-1,0,10
1499877191694282,1,2,10,7,-1,-3,-2,-7
1499877191694282,-7,-4,-8,-5,-3,-2,-2,-13
1499877191715259,-1,2,4,1,0,-1,2,5
1499877191715259,2,-2,-3,-1,-2,-2,-3,3
1499877191716265,-3,-1,-4,-4,-2,-2,-1,-3
1499877191716265,2,0,7,5,1,0,5,-2
1499877191730260,2,-1,-11,3,0,-2,-2,13
1499877191730260,-6,-4,-9,-7,-4,-1,-8,-33
1499877191736294,-1,-2,3,-3,-2,-3,-2,6
1499877191736294,-9,-4,0,0,0,-2,-5,-15
1499877191752254,-1,1,0,3,0,2,2,-7
1499877191752254,1,3,5,4,3,1,2,1
1499877191754253,2,1,-3,2,1,1,0,10
1499877191754253,-5,0,-1,-4,-1,-1,0,-9
1499877191775276,-10,1,-2,-8,-1,-2,0,-15
1499877191775276,-5,0,4,-3,-3,-4,-7,-4
1499877191776256,1,-2,-1,-5,-1,0,-2,2
1499877191776256,6,0,-3,-6,-3,-1,1,-1
1499877191789310,1,-1,5,1,1,-1,1,0
1499877191789310,2,1,-5,-3,-1,-1,0,-7
1499877191796255,-3,0,4,3,-1,-1,2,1
1499877191796255,13,-2,-7,-4,-3,-3,-5,14
1499877191812295,-5,-2,0,-1,2,0,-4,1
1499877191812295,-3,-4,0,-2,-1,1,6,7
1499877191814288,-1,-5,-9,-9,-3,2,2,-2
1499877191814288,0,-1,1,1,-1,-2,-6,-8
1499877191835267,0,-1,-3,-6,-1,0,1,-13
1499877191835267,-4,0,0,4,-1,-3,-3,-17
1499877191836257,-3,-1,-3,0,-2,-3,-1,8
1499877191836257,-4,-2,1,1,-1,-1,-1,-8
1499877191849307,0,-4,-6,-3,-4,-3,1,-8
1499877191849307,-9,1,0,1,-2,-2,0,-10
1499877191856294,-1,-3,-6,-12,-3,-4,-2,2
1499877191856294,1,1,-2,0,1,0,-1,2
1499877191872299,-1,0,-1,0,-4,-2,-4,-8
1499877191872299,11,2,-2,-2,1,3,2,24
1499877191874259,-7,-3,-7,-2,-5,-2,1,-8
1499877191874259,-5,-1,2,-8,-3,-2,-4,-2
1499877191895272,6,-2,-1,-3,0,-2,-1,16
1499877191895272,2,-4,0,-1,-2,-4,-6,-1
1499877191896261,6,0,4,5,1,0,0,5
1499877191896261,-2,-3,-6,1,-1,-1,-1,0
1499877191909271,-1,-2,0,-1,0,0,0,3
1499877191909271,-2,-4,-10,-6,-2,-3,-3,-5
1499877191916272,-6,4,7,4,2,2,1,-11
1499877191916272,3,0,0,-2,-2,-4,-3,25
1499877191932303,0,-2,2,3,-1,-2,-4,-4
1499877191932303,-2,-4,-7,-5,-1,1,-1,-6
1499877191934263,1,0,-1,2,-1,1,0,4
1499877191934263,-2,-1,0,3,1,-1,3,-12
