timestamp,emg1,emg2,emg3,emg4,emg5,emg6,emg7,emg8
1499877162783691,-1,0,-13,-2,-1,-1,-1,-1
1499877162783691,-4,-1,-11,18,1,-2,3,-17
1499877162783691,5,-3,-7,-46,-3,-2,5,41
1499877162783691,-1,-2,-3,-12,-1,-1,-3,-3
1499877162787718,1,2,8,-73,-3,1,-6,1
1499877162787718,0,-2,6,15,1,1,2,0
1499877162790675,-4,-1,-3,-20,-1,-1,-6,-8
1499877162790675,0,1,-1,5,-1,-1,4,-1
1499877162793674,-2,-6,3,26,-4,-3,-2,3
1499877162793674,0,-2,1,-1,0,0,6,1
1499877162805676,2,-1,-7,6,1,-3,-8,-9
1499877162805676,-3,0,-3,-1,0,2,4,7
1499877162817695,-4,-1,1,0,-2,0,-6,-22
1499877162817695,4,1,2,14,2,-1,-7,29
1499877162825657,-4,-3,6,30,1,1,14,-5
1499877162825657,0,-3,-9,-46,-5,-1,-4,-4
1499877162832694,3,-1,-3,50,2,-1,-8,8
1499877162832694,-5,0,8,-7,-3,-1,14,-1
1499877162854721,2,2,3,18,2,-2,-9,-3
1499877162854721,-1,-1,-5,16,2,-2,-7,-7
1499877162855697,-1,2,0,11,4,5,13,1
1499877162855697,-3,-6,-8,-30,-7,-6,-9,-7
1499877162902669,0,-6,-9,45,-6,-3,-14,1
1499877162902669,-2,0,1,22,1,3,43,-1
1499877162902669,5,4,3,16,1,-3,-22,24
1499877162902669,-3,-5,-12,16,-3,0,3,-7
1499877162903662,2,1,4,-17,0,-1,-11,1
1499877162903662,0,-1,3,-4,0,-3,-11,-12
1499877162906702,-5,-4,-4,5,-1,-2,-3,-38
1499877162906702,11,2,0,-16,1,0,11,82
1499877162913725,-15,-1,-6,1,-1,0,-1,-77
1499877162913725,3,-2,-6,-5,-2,0,-1,6
1499877162921734,2,3,11,0,-2,-1,10,7
1499877162921734,-9,1,7,10,0,0,2,-36
1499877162928700,3,-1,4,-4,-2,-2,-7,33
1499877162928700,-1,-3,-3,5,-1,-2,-15,59
1499877162944716,-27,-6,-17,-35,-1,-2,-1,-61
1499877162944716,11,-3,-1,44,-2,1,22,25
1499877162951685,15,10,4,1,2,3,6,-24
1499877162951685,-5,-3,-9,-33,-4,-1,-17,19
1499877162966678,16,-5,-2,14,-2,-5,-20,-28
1499877162966678,-3,2,2,-18,-3,-4,8,-49
1499877162975667,-25,-5,-2,17,4,-5,-47,39
1499877162975667,27,6,3,-4,4,11,60,70
1499877162989731,-36,-8,-12,-4,0,0,-32,36
1499877162989731,0,-4,20,55,3,0,-30,-25
1499877162996680,13,3,-2,-40,-2,-1,20,17
1499877162996680,-46,5,4,-7,-1,-3,1,-99
1499877163012710,37,-5,-2,40,3,7,44,1
1499877163012710,36,1,-9,-84,-2,-9,-42,38
1499877163014671,19,-3,-5,31,8,8,-30,89
1499877163014671,11,-15,-9,-11,-8,-13,6,-101
1499877163034740,-14,1,-3,-11,-9,-4,42,69
1499877163034740,10,10,-3,21,8,8,8,51
1499877163036688,64,-7,0,-19,-8,2,39,64
1499877163036688,-4,16,2,15,2,-4,-61,88
1499877163049684,49,-9,1,13,6,-2,-64,87
1499877163049684,-95,-22,15,-19,-14,-3,69,-118
1499877163051682,-48,21,-56,-9,2,-1,-71,-59
1499877163051682,-15,-1,56,5,-11,-3,54,73
1499877163072673,11,6,17,22,3,-14,-127,-10
1499877163072673,-75,-6,2,-26,1,12,103,-33
1499877163074674,85,13,13,11,7,6,45,58
1499877163074674,22,34,8,17,7,8,-85,-102
1499877163094674,-1,-27,-25,-12,-3,5,68,-24
1499877163094674,57,12,-25,21,9,13,-34,-49
1499877163096675,35,-2,-18,22,-7,-14,0,-16
1499877163096675,-12,-26,-23,-13,0,-20,-105,59
1499877163109719,36,19,69,-26,-10,20,97,76
1499877163109719,12,-5,16,19,8,-9,-128,-1
1499877163116688,51,-4,12,-37,-1,12,-20,98
1499877163116688,-50,4,-20,30,6,11,103,87
1499877163132694,25,-4,-49,2,-7,0,-15,39
1499877163132694,13,6,102,10,-9,-27,-114,5
1499877163134692,57,-4,-69,4,5,14,40,62
1499877163134692,-38,1,-14,8,-1,3,24,-42
1499877163156693,-38,27,-16,-16,-4,0,3,-24
1499877163156693,-15,15,15,-5,-1,0,80,40
1499877163157680,-23,-10,52,11,-2,-8,-48,87
1499877163157680,37,-36,-43,15,6,5,-75,-43
1499877163169728,-38,-9,-50,-68,-15,-25,-14,-22
1499877163169728,111,51,-61,27,10,15,-42,113
1499877163176692,-128,-15,40,-24,-10,-26,-76,-128
1499877163176692,11,11,-2,-9,-8,-15,-18,19
1499877163192688,10,4,51,47,14,22,57,68
1499877163192688,-15,-42,-15,-54,-19,-24,-18,-1
1499877163194691,-57,6,33,19,-2,12,-1,40
1499877163194691,37,-18,-85,19,25,10,94,24
1499877163214732,-10,19,67,90,1,-1,-32,31
1499877163214732,-17,-23,-19,-85,-14,-11,-6,45
1499877163216685,-5,41,-23,48,-11,-12,39,-128
1499877163216685,38,-5,73,-40,-2,5,-25,67
1499877163229697,18,-36,-115,9,-6,-36,-99,-109
1499877163229697,-15,7,18,10,-5,15,4,9
1499877163236693,-4,-28,39,-61,2,-7,50,-4
1499877163236693,1,18,47,13,-5,0,83,-14
1499877163252717,-2,-22,43,-47,-3,-23,-50,-82
1499877163252717,-51,-17,-86,18,3,-11,-33,68
1499877163254684,3,42,-5,18,-5,5,66,11
1499877163254684,14,-24,-10,-43,-14,-10,7,-2
1499877163274730,-21,0,23,52,13,12,45,-17
1499877163274730,-17,0,18,64,12,12,-49,60
1499877163276688,42,-31,-8,39,-2,6,-11,13
1499877163276688,-39,-9,-67,-67,-12,17,32,-62
1499877163288732,-2,31,23,31,0,-12,-11,34
1499877163288732,8,-12,-16,-48,-10,12,58,-89
1499877163297694,9,1,-11,-4,-10,-7,7,48
1499877163297694,-17,-14,-11,-28,14,14,23,22
1499877163312699,-18,7,15,22,11,12,-53,-65
1499877163312699,41,19,59,35,9,46,116,3
1499877163314688,-25,-11,33,-43,8,16,-20,125
1499877163314688,-35,-31,-50,-7,-14,-18,-12,1
1499877163334729,15,25,23,11,10,-2,-49,111
1499877163334729,-1,16,-36,52,-5,-12,75,12
1499877163336689,6,-38,-48,-39,-2,-14,-22,55
1499877163336689,40,4,48,25,3,6,-20,-18
1499877163348700,-19,3,-44,-34,-4,15,88,-18
1499877163348700,-18,-19,6,20,-6,-14,-70,-107
1499877163357690,-36,16,-40,-29,-5,2,40,-85
1499877163357690,-8,22,96,93,12,-24,-121,-57
1499877163372730,4,-15,-39,-58,-2,17,46,-16
1499877163372730,6,9,15,-6,-4,-6,16,-54
1499877163374691,37,-5,-48,-2,10,-1,-30,16
1499877163374691,6,-8,18,-10,-6,-3,-12,57
1499877163394739,7,-13,-51,-63,-51,-14,-14,-41
1499877163394739,-6,9,11,75,17,20,57,75
1499877163394739,4,0,49,-3,3,0,-2,36
1499877163394739,-4,27,18,103,1,4,11,-19
1499877163408733,-7,14,23,-58,24,6,9,78
1499877163408733,-1,-38,-92,-45,-32,-33,-86,78
1499877163416716,-2,18,38,46,-6,15,52,-88
1499877163416716,27,-17,-5,-78,9,12,61,80
1499877163431756,36,-6,14,-2,0,2,48,-62
1499877163431756,18,-10,43,-18,11,26,49,64
1499877163432708,-33,-2,0,24,4,-32,-114,-84
1499877163432708,51,4,-27,-2,-15,13,64,-128
1499877163454703,20,0,-25,15,-1,-4,-9,30
1499877163454703,-7,13,37,-5,7,-11,-16,-16
1499877163455697,-5,-16,20,-18,-3,-16,-34,-16
1499877163455697,10,1,5,54,14,-16,-44,8
1499877163468737,-34,-19,-1,56,-26,1,1,-4
1499877163468737,3,31,42,-111,-3,4,4,13
1499877163476699,-14,10,-79,-17,-20,8,19,-12
1499877163476699,-21,13,41,-39,33,-25,-63,33
1499877163491767,-13,5,-3,-13,-18,-2,31,30
1499877163491767,27,-4,21,29,-1,-14,-87,-22
1499877163492698,11,-14,-15,-48,-1,20,60,10
1499877163492698,-11,-31,-30,1,-8,-2,-6,88
1499877163514717,28,-10,4,-2,13,0,-72,14
1499877163514717,41,16,1,24,3,4,31,6
1499877163515717,5,12,21,53,5,-5,38,-76
1499877163515717,-50,-12,-23,-91,-27,3,-44,36
1499877163528745,-23,9,-17,58,12,32,79,-26
1499877163528745,-1,-25,-72,22,-12,-14,-39,-13
1499877163536712,10,18,97,47,27,-3,-41,38
1499877163536712,-24,24,-18,-4,-23,-6,5,-88
1499877163551767,-22,-6,-13,-40,-11,-17,-13,-31
1499877163551767,-4,36,7,-18,7,-1,23,-58
1499877163558770,-17,-17,15,3,16,13,75,-15
1499877163558770,3,-6,-13,-10,-24,-12,-68,23
1499877163574741,0,2,46,25,10,8,4,0
1499877163574741,-27,-37,-51,-5,-10,-7,45,32
1499877163574741,2,-20,-8,56,-5,-9,-32,19
1499877163574741,15,16,22,-75,-17,-1,4,10
1499877163588754,28,20,-9,15,13,2,27,51
1499877163588754,-56,-25,24,44,-3,-15,-67,-26
1499877163596715,3,-5,15,30,-1,-1,-95,-5
1499877163596715,6,2,-28,0,-1,-2,79,89
1499877163611746,-13,-4,-13,-91,-12,2,-69,45
1499877163611746,19,0,57,-14,18,12,-7,10
1499877163612706,-6,-6,-26,-7,8,-15,-3,33
1499877163612706,-15,1,32,85,-5,-12,-41,-27
1499877163634711,19,21,33,-58,-7,-5,14,-26
1499877163634711,17,29,18,5,8,14,74,-3
1499877163634711,-55,18,19,-1,-3,1,-32,-15
1499877163634711,32,4,39,57,31,19,88,61
1499877163648777,-21,-28,-80,5,-11,-19,-55,4
1499877163648777,-6,-11,-18,-85,-14,-13,-65,-2
1499877163656720,8,-1,-32,-9,-5,-13,11,-25
1499877163656720,-12,19,50,10,-2,4,-8,-68
1499877163671747,-5,-9,19,41,-1,11,-16,14
1499877163671747,11,-1,4,32,1,-10,-19,-43
1499877163672710,1,-28,-63,-111,-6,-5,13,-49
1499877163672710,5,13,-24,10,-30,-12,-61,-43
1499877163694742,-2,-38,44,-34,5,6,51,-25
1499877163694742,11,28,-41,84,14,4,-11,-42
1499877163695715,-2,10,6,-14,1,19,32,58
1499877163695715,-4,9,14,-1,0,-5,3,-29
1499877163716750,-13,-3,3,29,-11,-19,-60,-74
1499877163716750,-13,-14,-47,-20,13,-12,-37,59
1499877163717745,6,-13,-4,13,-7,13,2,25
1499877163717745,17,9,-23,-34,10,1,-10,-4
1499877163731713,-74,-1,14,27,5,-17,-55,71
1499877163731713,-37,12,-15,18,0,15,77,62
1499877163732713,38,20,67,13,-15,-11,10,8
1499877163732713,-21,-29,-43,30,9,2,-21,-9
1499877163754717,30,21,37,-26,-26,-7,75,44
1499877163754717,-5,-28,-18,-45,-22,7,29,-64
1499877163755723,-35,14,-28,-8,21,5,-12,27
1499877163755723,-6,-12,-30,31,11,-2,-55,-22
1499877163776754,12,-8,45,57,3,3,32,-6
1499877163776754,1,15,-23,-103,-53,-19,-60,-68
1499877163777747,-2,-7,-44,21,8,16,74,59
1499877163777747,24,18,20,-4,12,14,2,-73
1499877163791730,0,4,-34,55,23,-9,-64,-16
1499877163791730,7,-3,-35,-66,-12,11,53,12
1499877163792717,-8,-7,-6,60,-5,1,-47,50
1499877163792717,-9,-8,5,-56,0,-7,-51,21
1499877163814787,32,12,2,1,12,10,88,25
1499877163814787,17,-35,-13,-12,11,1,18,-5
1499877163815718,-5,-3,-6,-73,-24,-8,-9,-21
1499877163815718,5,-11,-61,69,14,9,18,76
1499877163836763,-5,10,52,-48,-4,-13,-6,-5
1499877163836763,18,-20,-59,-56,-13,-6,-70,-6
1499877163837719,-1,-11,2,-12,-5,-7,-7,-64
1499877163837719,-15,-9,52,94,22,9,79,1
1499877163851770,26,-5,-46,-89,-13,-6,-96,-128
1499877163851770,-20,5,61,70,9,2,39,24
1499877163852729,17,-30,-2,-9,13,2,-6,1
1499877163852729,3,-6,-11,6,-6,-2,-19,-12
1499877163874747,-26,6,7,53,20,6,10,48
1499877163874747,-18,5,17,62,-6,-17,-67,72
1499877163874747,36,-13,-14,-39,-29,-22,-21,-90
1499877163874747,-6,8,-28,-28,2,6,62,46
1499877163896761,6,-2,-8,9,-1,13,-6,6
1499877163896761,-11,0,40,51,18,9,74,-18
1499877163897724,-37,-22,-32,27,2,0,6,-85
1499877163897724,0,10,-35,-43,-12,-14,-49,-5
1499877163919786,-12,16,59,-28,-3,9,34,-27
1499877163919786,16,13,-10,22,5,-2,-15,-30
1499877163919786,-2,26,3,81,4,0,15,56
1499877163919786,3,-22,-9,-84,-7,6,-17,-82
1499877163934786,8,5,23,27,11,-5,13,36
1499877163934786,-2,17,39,-11,-18,-2,-28,38
1499877163934786,0,3,4,22,49,11,24,10
1499877163934786,5,12,14,4,-17,-6,-25,20
1499877163956766,-11,0,-15,18,4,-14,-21,-23
1499877163956766,14,0,10,-8,12,2,39,19
1499877163957737,13,-16,17,-26,-35,-16,-43,-11
1499877163957737,16,18,22,-3,-4,12,46,22
1499877163979778,-22,-35,-19,5,23,-6,-18,-27
1499877163979778,-1,-9,4,75,5,-2,-13,54
1499877163979778,22,16,-4,-17,-8,23,49,32
1499877163979778,-6,-15,26,-64,-12,-10,-26,40
1499877163994742,15,8,-12,14,-6,8,25,-1
1499877163994742,-8,-7,16,-2,17,-5,-56,11
1499877163994742,-7,-22,-11,34,-9,-19,-49,0
1499877163994742,6,-13,-26,-53,-12,-3,5,-15
1499877164016770,4,-10,-28,-19,-13,2,-27,-43
1499877164016770,-14,10,1,14,10,3,11,-101
1499877164017728,-11,11,50,25,-1,-9,-14,6
1499877164017728,-9,-21,-52,-53,-5,-7,18,-75
1499877164039774,-8,-7,-53,-17,-6,-13,4,-3
1499877164039774,8,9,30,33,-2,3,20,25
1499877164040732,10,2,35,-75,-4,-3,23,14
1499877164040732,-7,-15,-25,43,-14,-1,0,25
1499877164054742,10,11,-23,-11,17,2,16,70
1499877164054742,14,3,-42,-25,-4,0,-22,-27
1499877164054742,-12,-8,2,-10,-5,0,10,42
1499877164054742,4,19,49,43,11,-10,-11,-10
1499877164076772,5,13,11,11,3,14,-16,9
1499877164076772,10,-27,-69,-28,5,-3,26,-10
1499877164077732,-1,20,19,-19,-6,-5,-52,6
1499877164077732,-16,-9,21,79,-2,-3,1,74
1499877164099775,22,13,-56,-52,-7,6,2,37
1499877164099775,-7,3,50,-11,8,10,10,-4
1499877164099775,8,4,-39,12,8,-1,10,-18
1499877164099775,2,1,-11,4,8,1,-14,-5
1499877164113785,-23,4,26,-11,-39,-11,7,59
1499877164113785,10,14,16,5,11,5,-49,75
1499877164121736,0,-8,-14,19,2,11,89,-5
1499877164121736,-21,4,28,-32,1,-4,31,-35
1499877164136736,-3,-7,36,27,18,2,-29,-3
1499877164136736,-10,12,2,-3,-27,-11,-17,-39
1499877164137752,1,1,-38,-2,5,4,-5,13
1499877164137752,15,12,9,2,0,-6,-17,47
1499877164159787,-5,-42,-9,-4,-9,3,23,4
1499877164159787,-10,5,14,-19,12,-9,-6,-15
1499877164159787,12,3,2,-6,-17,-1,18,37
1499877164159787,-8,11,32,35,9,28,70,-10
1499877164173803,1,-2,-45,89,-6,-3,-12,-60
1499877164173803,10,-14,23,-101,-5,0,14,15
1499877164181739,-19,-3,-25,51,6,-12,-42,-21
1499877164181739,-13,21,-17,-16,-8,-17,-90,17
1499877164196751,-10,1,26,-19,-16,15,47,-44
1499877164196751,7,-6,8,37,6,13,46,19
1499877164197745,4,-2,-19,-14,5,-1,-4,-20
1499877164197745,-5,2,-39,48,-5,-2,-5,-69
1499877164219756,-4,21,32,-71,-2,-8,-11,6
1499877164219756,-13,-29,-78,-13,-14,-9,-27,-3
1499877164219756,-6,9,37,-16,-1,10,46,71
1499877164219756,21,-15,-40,19,0,-6,-7,29
1499877164233788,-1,-10,-20,3,19,-8,-10,13
1499877164233788,-5,-4,-9,-11,-22,-31,-80,-6
1499877164241781,13,18,54,3,1,20,24,-23
1499877164241781,19,-14,-17,10,5,3,-6,17
1499877164256781,23,8,20,25,9,0,-7,11
1499877164256781,-18,-18,10,-51,-1,0,-4,99
1499877164257743,-9,-14,3,-35,-19,-14,-89,-22
1499877164257743,13,4,16,-10,4,14,78,-103
1499877164279777,-8,22,48,7,-6,-4,2,73
1499877164279777,11,-3,-2,64,21,12,44,22
1499877164279777,33,-27,-42,-12,-4,-13,-13,-43
1499877164279777,-36,-12,-41,-58,-3,-2,-27,-2
1499877164293790,2,18,14,50,2,-4,3,47
1499877164293790,-7,-4,-33,-21,3,-6,13,-55
1499877164301786,-25,-3,17,-33,-37,-8,-16,38
1499877164301786,-25,5,11,55,28,-7,-29,-68
1499877164316790,-7,-24,-48,-4,-26,9,8,55
1499877164316790,-10,-19,-9,0,12,3,19,64
1499877164317788,-10,2,-16,-56,41,3,-32,-103
1499877164317788,1,6,14,-89,-43,-9,-7,-74
1499877164339786,-6,17,0,98,-15,-5,16,32
1499877164339786,-10,2,62,-77,40,5,16,-7
1499877164339786,17,-4,-4,-24,-52,-8,-36,-15
1499877164339786,-27,12,48,36,25,9,33,103
1499877164353794,0,9,-35,-56,18,14,68,-42
1499877164353794,-13,-28,-6,127,-23,-20,-38,4
1499877164361788,8,3,25,-38,3,1,17,-8
1499877164361788,-37,-9,-11,-19,-11,-8,-16,53
1499877164376788,25,-10,-20,4,9,-11,-32,2
1499877164376788,18,15,-19,25,-13,-3,8,-68
1499877164377784,-3,8,60,13,10,15,54,3
1499877164377784,26,-20,8,34,-12,-2,22,40
1499877164399765,-33,-38,-78,-66,1,-6,-29,-14
1499877164399765,-5,8,-23,62,-5,5,22,32
1499877164399765,-7,9,3,-47,-7,-15,-37,-25
1499877164399765,16,13,31,65,4,2,-27,12
1499877164413791,-19,-10,-9,9,-4,1,28,-93
1499877164413791,4,-1,32,-12,-25,0,-12,9
1499877164429752,-17,-4,-21,31,48,0,-6,50
1499877164429752,-3,9,-29,-2,-6,-4,-1,69
1499877164436791,14,13,9,-51,0,11,-32,48
1499877164436791,12,31,36,99,7,15,34,-30
1499877164437777,-9,-1,26,-45,-10,1,16,40
1499877164437777,-1,-56,-70,-85,-16,-16,-23,-26
1499877164459790,-10,9,49,35,12,-7,13,-23
1499877164459790,-15,8,-12,12,6,1,18,-128
1499877164459790,6,12,-2,45,-12,5,-1,4
1499877164459790,3,15,35,-40,-7,-5,31,57
1499877164482794,-14,-15,-15,-23,-3,-7,-12,39
1499877164482794,-1,-13,14,10,15,7,-14,-2
1499877164483756,5,7,-34,90,-10,-9,9,35
1499877164483756,-6,-4,3,-92,11,7,-5,53
1499877164496824,76,1,36,-9,-17,6,-11,40
1499877164496824,-17,18,-3,-26,-3,-9,-8,30
1499877164497789,-2,-13,-5,119,22,-4,-25,-8
1499877164497789,18,4,-34,-42,-28,6,-1,20
1499877164519777,0,-16,-17,-29,7,-6,-26,66
1499877164519777,0,13,-28,-46,-12,-6,-20,-55
1499877164519777,-14,-4,-19,-16,-3,2,18,17
1499877164519777,3,-10,22,92,-2,-1,-8,-30
1499877164542803,-5,14,55,46,33,-1,-21,-35
1499877164542803,-3,-11,14,33,2,7,25,-32
1499877164543770,-16,-9,-4,-42,-13,0,10,-2
1499877164543770,13,6,10,1,23,5,55,-12
1499877164556806,-8,-6,-68,-52,-24,-17,-51,-37
1499877164556806,18,22,6,-38,-15,6,-29,-50
1499877164557792,0,0,-62,60,25,11,26,-25
1499877164557792,13,-2,40,17,4,-15,-51,-108
1499877164579772,-27,-46,-60,-66,-31,-5,1,-35
1499877164579772,6,5,-11,13,-9,-8,25,91
1499877164579772,15,0,30,-19,29,-5,-25,31
1499877164579772,-6,-3,-11,-5,8,6,-34,11
1499877164602800,-12,-5,19,104,2,3,25,-62
1499877164602800,5,9,-24,-93,-5,-5,-5,-28
1499877164603764,-2,1,29,12,-27,-7,5,-35
1499877164603764,-1,-19,0,-18,14,8,8,56
1499877164616832,13,-5,1,60,29,-1,-5,-12
1499877164616832,-14,-16,13,-54,-35,2,-15,25
1499877164617800,-4,10,14,-53,-8,-6,2,4
1499877164617800,1,-1,11,14,-4,-3,-28,-75
1499877164639786,2,18,42,9,1,1,37,15
1499877164639786,16,-5,15,14,14,-3,-25,64
1499877164639786,-10,-12,-41,-92,-17,-12,-41,-35
1499877164639786,-11,1,30,69,-10,4,6,-15
1499877164662808,-2,1,4,-31,8,1,0,11
1499877164662808,-14,-16,-77,-26,-12,-23,-54,79
1499877164663766,1,19,64,39,8,34,65,50
1499877164663766,28,1,-23,3,0,-6,-1,92
1499877164676808,-3,5,64,26,10,2,2,4
1499877164676808,-8,6,3,22,-15,-4,-1,-27
1499877164677793,-1,-9,-95,-45,4,1,13,42
1499877164677793,1,6,59,-14,-14,-13,-10,-35
1499877164698768,-2,14,-15,-7,7,7,-8,-69
1499877164698768,10,-8,29,30,-2,-1,1,0
1499877164706810,-4,2,-9,88,19,-5,-13,0
1499877164706810,-10,-5,40,-56,-30,0,-11,-5
1499877164722809,2,-22,-22,-3,-6,-11,-6,15
1499877164722809,-6,-12,-7,50,7,1,14,42
1499877164723771,9,9,17,14,16,2,19,57
1499877164723771,-15,14,-13,52,20,6,7,19
1499877164736811,-1,5,22,50,-19,-7,-3,-26
1499877164736811,-1,3,-2,-85,14,-2,-7,-12
1499877164737782,-2,-2,-18,33,-12,-8,-59,13
1499877164737782,-5,-7,-12,-74,-12,-7,-14,0
1499877164759790,-16,-3,-18,31,-1,4,0,21
1499877164759790,5,-3,-22,-64,-4,8,18,-45
1499877164759790,2,7,28,34,6,-5,-22,-57
1499877164759790,-5,1,-10,0,-11,-5,17,16
1499877164789772,-11,9,-29,-27,9,-4,-28,-17
1499877164789772,6,-11,-1,49,1,-12,4,57
1499877164790774,-16,-3,7,-55,-25,-2,-1,-71
1499877164790774,3,1,-6,54,16,11,13,-35
1499877164796820,-12,-10,-49,-38,7,2,20,9
1499877164796820,1,16,30,-26,-25,-8,-21,-3
1499877164797779,3,-12,-3,-47,14,12,44,-1
1499877164797779,-2,-7,1,41,3,0,-10,-36
1499877164819776,12,3,-11,-28,-6,-1,39,-19
1499877164819776,-19,9,25,48,11,4,-14,-24
1499877164819776,-9,-16,-30,-10,-11,0,-22,30
1499877164819776,11,10,-9,14,4,2,18,2
1499877164842806,3,7,20,-15,4,5,-17,13
1499877164842806,1,-23,-1,28,4,-3,1,-54
1499877164843776,-6,-4,-3,-67,-19,-9,36,1
1499877164843776,0,-2,-25,-5,10,8,11,-27
1499877164856779,7,-1,28,-9,-13,0,-17,98
1499877164856779,15,9,-6,26,26,4,16,-14
1499877164857778,-13,9,-1,4,-18,-8,-28,-30
1499877164857778,2,2,-38,10,7,5,17,-1
1499877164879794,-1,-1,-6,-50,3,-9,11,34
1499877164879794,-5,-13,-13,-8,12,19,-2,107
1499877164880779,2,-1,22,93,-3,-5,-9,-19
1499877164880779,0,7,3,-54,-4,-11,-34,18
1499877164902781,9,6,-18,-10,0,0,37,-55
1499877164902781,-1,1,-11,-4,-5,-5,-2,-4
1499877164903781,11,14,8,13,-9,-4,-22,7
1499877164903781,4,-17,24,29,8,7,8,50
1499877164916780,-3,-2,23,83,-12,-8,-24,-3
1499877164916780,7,6,17,-26,3,5,27,-29
1499877164917782,7,-1,15,41,10,1,-3,7
1499877164917782,-7,1,17,-101,-9,0,-2,67
1499877164939787,-54,-4,-15,97,7,5,23,-35
1499877164939787,3,-4,42,-55,-12,12,70,49
1499877164939787,3,4,17,39,3,1,-9,23
1499877164939787,-7,-14,-37,49,8,-3,-7,-78
1499877164962823,13,-12,9,-88,-8,2,9,66
1499877164962823,45,-1,9,51,5,-8,-76,-114
1499877164963781,-28,-5,-48,-66,3,0,15,-7
1499877164963781,16,-5,-18,39,9,-9,-7,-76
1499877164984850,36,-1,41,54,-12,6,2,44
1499877164984850,7,-16,-73,-70,-3,-4,-12,7
1499877164985805,19,1,31,-13,5,-4,1,-24
1499877164985805,-6,12,3,-34,-23,-6,-10,64
1499877164999783,7,3,12,-21,-15,-11,-34,27
1499877164999783,-23,9,51,32,0,3,29,92
1499877164999783,-8,-27,-50,4,3,2,-9,-51
1499877164999783,-3,13,-24,-22,25,-1,11,9
1499877165022815,12,-11,-6,67,8,7,-3,-47
1499877165022815,-34,-3,7,-101,-24,3,8,56
1499877165023785,2,10,-21,27,1,-1,36,16
1499877165023785,-9,5,80,57,-14,-3,5,-49
1499877165044835,1,3,-20,-26,16,0,-14,61
1499877165044835,-23,2,0,36,-15,-11,10,-11
1499877165045787,8,4,-19,-26,-12,0,1,31
1499877165045787,-4,30,-21,-51,7,13,20,-17
1499877165059792,-9,-32,55,50,-2,-13,1,3
1499877165059792,43,-4,-39,-12,7,1,5,8
1499877165059792,0,1,8,-37,-16,4,-18,72
1499877165059792,-25,-14,14,40,5,-4,5,9
1499877165082831,-17,-2,-65,-45,-10,1,-4,-11
1499877165082831,24,1,57,49,11,-19,-63,-21
1499877165083794,14,1,-9,-34,-17,-3,22,-17
1499877165083794,-13,-6,10,-12,1,1,-18,8
1499877165095831,2,11,16,41,16,5,-12,-110
1499877165095831,-18,-8,-35,24,16,1,6,-59
1499877165104793,2,17,61,19,11,-2,-4,48
1499877165104793,8,1,-9,0,-24,0,7,28
1499877165119796,0,-21,-83,-37,-10,-3,8,33
1499877165119796,-6,16,16,14,-11,10,29,-57
1499877165119796,-19,2,41,-48,20,2,-24,-32
1499877165119796,26,-27,-31,28,-9,-11,33,30
1499877165142796,15,12,-15,-19,-13,-9,2,70
1499877165142796,-5,2,12,39,9,7,-11,-15
1499877165143795,4,-13,-38,-2,4,5,-5,62
1499877165143795,2,-1,-16,39,-7,-3,0,87
1499877165155852,-7,-6,22,-117,-3,5,24,-15
1499877165155852,-11,-3,-33,-4,-1,-5,-8,-20
1499877165164805,0,-12,-24,12,1,0,16,-45
1499877165164805,-9,-7,16,7,16,4,-45,-9
1499877165179802,3,14,4,22,-4,-2,-1,-35
1499877165179802,-8,9,50,81,2,2,5,-7
1499877165179802,-10,-5,17,-63,-29,-7,-3,-102
1499877165179802,-4,-10,-54,3,30,-2,-14,-15
1499877165202825,-1,11,59,38,2,1,-7,-52
1499877165202825,-6,3,-37,10,-12,5,6,-29
1499877165203798,3,5,18,-13,-1,-3,-17,5
1499877165203798,9,-6,39,16,-10,-5,22,-122
1499877165215829,-17,13,-20,-71,-4,-8,-64,-68
1499877165215829,-10,-22,7,23,7,-3,45,74
1499877165224803,34,12,29,54,5,-1,15,41
1499877165224803,-9,12,-4,-30,1,0,-12,42
1499877165239804,-4,-7,-29,105,2,0,-20,4
1499877165239804,-14,5,-37,-127,-21,-3,-6,-53
1499877165239804,7,-13,-19,36,16,-1,-25,-34
1499877165239804,-5,11,53,16,-6,-1,19,-29
1499877165262839,-2,-8,31,4,-5,-5,-6,60
1499877165262839,4,-8,-32,3,16,-3,-16,28
1499877165263799,-6,7,-15,28,6,-4,-35,-26
1499877165263799,-10,7,28,-6,-17,5,-1,-105
1499877165275834,1,19,5,-21,18,5,4,-30
1499877165275834,-4,-32,27,-49,-34,0,5,35
1499877165284808,-18,-46,16,17,11,3,8,74
1499877165284808,-4,-33,-3,6,1,-10,-19,16
1499877165299815,13,17,-11,30,-11,-5,-9,43
1499877165299815,11,23,-32,-23,11,5,25,-8
1499877165299815,-19,3,63,9,2,-10,-29,1
1499877165299815,35,16,7,-1,-24,4,14,-19
1499877165322834,0,4,-7,-54,-7,0,19,-36
1499877165322834,-1,-9,-40,37,3,-2,-41,-117
1499877165323820,6,2,-3,30,0,4,-1,-1
1499877165323820,-4,-7,-77,-63,27,5,23,37
1499877165335838,-14,-6,19,-8,-4,-1,19,-6
1499877165335838,4,2,12,23,-5,-5,15,-33
1499877165344815,9,-1,-28,-2,-3,16,32,48
1499877165344815,-3,8,12,13,-1,-7,-23,17
1499877165359821,-1,-15,14,15,3,1,7,1
1499877165359821,-12,6,-12,-34,-7,-5,-7,13
1499877165359821,6,16,15,-28,-5,-6,4,-41
1499877165359821,6,10,8,5,1,1,-3,39
1499877165382813,-3,-9,10,-2,-10,5,-4,-44
1499877165382813,1,-11,4,-32,-6,-9,-45,26
1499877165382813,9,-3,-53,-15,7,2,14,22
1499877165382813,-9,5,31,7,-3,11,4,3
1499877165404837,3,-6,-31,-12,-3,2,18,-16
1499877165404837,5,14,24,53,-13,-13,-35,6
1499877165405807,-8,3,-20,-17,-4,2,17,-34
1499877165405807,-7,3,-2,-41,-17,-9,-2,-72
1499877165418841,5,-10,27,23,16,8,9,20
1499877165418841,2,17,39,25,14,7,-4,2
1499877165419807,-10,-8,50,-25,-15,-6,15,16
1499877165419807,-14,-8,-25,36,-7,-10,-51,-14
1499877165442850,-2,-13,-30,-11,-7,3,29,-104
1499877165442850,4,10,2,28,18,11,12,5
1499877165442850,-7,8,12,-26,2,-3,-17,-17
1499877165442850,3,-7,11,6,-18,-5,11,51
1499877165464860,-6,-8,6,-27,1,-4,-10,23
1499877165464860,2,0,71,28,12,-1,-4,14
1499877165465811,-3,-8,-14,-12,-16,-12,-12,-65
1499877165465811,1,-9,-47,-12,1,-2,-5,-3
1499877165479830,1,6,43,14,2,9,22,-31
1499877165479830,1,6,-14,1,-7,-7,2,1
1499877165479830,-3,-13,-93,-61,17,-2,1,103
1499877165479830,-6,5,42,-17,-10,5,2,-11
1499877165501879,13,2,-40,-6,-15,-3,-6,24
1499877165501879,11,3,-5,-16,-3,-12,-39,69
1499877165502821,-13,17,58,100,-6,-4,-6,-49
1499877165502821,2,-3,11,18,10,3,7,32
1499877165524847,1,-8,-15,-66,6,-7,-12,13
1499877165524847,-5,3,-52,6,-18,-1,17,10
1499877165525814,-6,-4,39,11,8,1,-24,-9
1499877165525814,21,16,-24,5,1,-10,30,-59
1499877165539824,-3,14,-8,19,3,5,6,-18
1499877165539824,-8,-19,3,-19,4,1,-34,18
1499877165539824,13,-4,0,37,-4,-5,-12,-53
1499877165539824,-8,2,14,-17,-2,-11,-3,12
1499877165561883,5,-3,-3,11,18,1,-20,35
1499877165561883,-8,1,2,-30,-5,4,33,-32
1499877165562817,7,9,-25,-3,-13,-2,-5,60
1499877165562817,-4,-30,-3,23,10,11,14,12
1499877165584863,-3,6,-2,-26,-1,-10,-2,-1
1499877165584863,2,-4,14,101,26,1,10,-18
1499877165585827,0,7,-10,-95,-9,-3,-16,-27
1499877165585827,-1,0,2,2,-8,-2,-3,-5
1499877165599822,2,12,40,-5,-20,1,-12,93
1499877165599822,-3,-15,-60,-28,-7,0,-5,-19
1499877165599822,1,-2,8,48,11,3,13,88
1499877165599822,-4,1,-1,-7,12,12,-9,21
1499877165621833,0,-7,-17,41,4,-6,-52,-8
1499877165621833,-6,8,14,-39,-4,-21,17,-11
1499877165622820,-5,-7,5,69,-9,24,66,7
1499877165622820,-2,-1,-60,-44,7,1,0,-4
1499877165644867,1,-1,2,-3,2,-10,11,18
1499877165644867,-6,4,0,30,4,5,35,39
1499877165645821,-10,-9,1,-45,-16,-17,-55,-17
1499877165645821,6,-5,-8,-42,-4,-4,-5,30
1499877165659826,-11,-9,-16,59,11,-4,59,-21
1499877165659826,1,-4,-9,-32,-12,15,26,-1
1499877165659826,-2,-8,-58,-10,-3,-14,-17,-18
1499877165659826,0,4,66,21,-14,6,15,49
1499877165681888,4,5,-25,3,6,-18,-68,-5
1499877165681888,5,-5,-32,42,18,16,13,2
1499877165682833,0,3,-22,-4,-9,6,34,1
1499877165682833,-9,1,-17,-70,-1,-18,-66,67
1499877165704870,6,-9,-1,-28,-38,-5,10,32
1499877165704870,2,-8,43,-31,35,9,-37,-32
1499877165705830,8,-8,0,83,6,1,-70,-63
1499877165705830,5,7,-14,-61,-14,-3,55,34
1499877165719826,9,12,22,25,2,22,49,12
1499877165719826,-8,-5,-36,-31,-28,-10,-11,-14
1499877165719826,24,-9,-4,-62,-11,-23,-75,-96
1499877165719826,-18,-11,6,38,1,11,28,33
1499877165741887,29,5,9,11,-4,-1,30,7
1499877165741887,-16,-7,-2,-62,-11,0,18,-2
1499877165742834,-9,-3,22,35,19,7,47,-56
1499877165742834,-14,13,-10,57,-10,-8,19,-128
1499877165764874,-11,-3,21,-47,3,-4,-16,-29
1499877165764874,-3,10,16,26,12,-6,-8,-47
1499877165765835,10,-10,-27,-14,-20,-3,26,69
1499877165765835,7,-11,-6,67,19,1,-19,-4
1499877165779844,-15,1,-36,-39,-8,6,-19,40
1499877165779844,0,1,45,-81,-18,-9,8,-10
1499877165779844,-15,3,2,-6,9,8,15,35
1499877165779844,2,0,-7,14,-11,-15,-10,1
1499877165801880,-15,5,30,-5,-7,0,17,-125
1499877165801880,-14,-12,45,2,-11,-4,31,24
1499877165802830,-11,4,12,-18,3,-2,-70,-35
1499877165802830,0,1,-21,20,10,12,76,-72
1499877165824876,-10,-9,19,42,9,-8,13,-23
1499877165824876,6,17,12,-43,-12,5,18,83
1499877165825839,1,4,16,23,6,2,19,2
1499877165825839,19,-2,27,-33,4,-13,-44,89
1499877165839843,-6,-2,-71,7,-14,3,-1,59
1499877165839843,15,3,68,99,33,2,-5,-3
1499877165839843,-3,2,16,-74,-17,-2,50,44
1499877165839843,-8,-16,-47,-14,15,-2,-48,29
1499877165861878,9,3,3,29,-17,0,9,87
1499877165861878,1,-12,-45,-24,-2,3,-24,-5
1499877165862857,-9,20,16,22,16,-2,1,-31
1499877165862857,-4,-10,-3,23,-14,-10,-21,-19
1499877165884879,-1,-12,-16,-19,6,3,1,-26
1499877165884879,-4,5,7,48,22,-5,-11,-20
1499877165885842,-10,-6,-1,-2,-22,12,83,23
1499877165885842,3,23,3,-1,-1,-4,-69,-56
1499877165899848,3,-8,32,-8,9,1,51,51
1499877165899848,3,-10,-38,-41,-18,-1,-14,20
1499877165899848,-2,0,-12,10,17,-17,-38,-1
1499877165899848,2,11,39,12,-8,14,0,20
1499877165921900,-8,-7,16,11,-10,-11,-66,28
1499877165921900,11,0,-3,-69,-6,6,44,-27
1499877165922861,1,4,22,53,-3,-9,14,5
1499877165922861,15,1,-2,-5,7,0,-32,-50
1499877165944886,3,-8,-8,-47,-27,-5,-24,-24
1499877165944886,-5,-5,-39,79,13,-4,-23,-1
1499877165945837,-2,-15,31,-50,-18,5,-34,13
1499877165945837,0,-1,3,8,-4,-3,13,-13
1499877165959853,-3,11,36,-92,2,16,31,-29
1499877165959853,4,-1,-32,32,20,-7,-17,-35
1499877165959853,5,4,13,17,33,5,-14,29
1499877165959853,-10,-16,-12,13,-25,-4,19,-2
1499877165981913,2,-4,-43,-15,16,5,-24,38
1499877165981913,-5,-1,-32,14,-29,0,14,-62
1499877165982863,-20,-7,-36,-51,8,5,72,-37
1499877165982863,-5,9,48,-20,-3,16,-50,5
1499877166004889,1,21,5,38,5,0,33,-128
1499877166004889,-1,-8,22,-7,0,-1,-37,18
1499877166005841,4,1,-11,38,-17,-1,30,11
1499877166005841,-8,0,-29,-18,3,-13,-44,-35
1499877166018888,-6,-12,-9,53,11,-3,-21,22
1499877166018888,10,3,-39,-71,-20,-8,-41,2
1499877166026890,2,-5,29,-29,-1,2,7,16
1499877166026890,9,-2,-25,-7,-1,5,45,64
1499877166041894,0,3,23,33,12,-9,-31,-8
1499877166041894,-4,1,8,-1,-3,-4,20,-8
1499877166042844,2,-14,-42,21,-14,-4,-23,-8
1499877166042844,7,17,38,-5,5,-3,3,45
1499877166064890,-22,-11,-28,6,17,4,37,-105
1499877166064890,10,19,9,27,9,3,-15,30
1499877166065846,6,-16,10,-57,-27,-9,-7,15
1499877166065846,-5,-8,-4,36,11,3,13,-7
1499877166078861,-7,2,32,7,-23,-4,28,-23
1499877166078861,-4,-5,27,-16,5,-5,-1,-14
1499877166093911,0,8,-79,20,12,15,13,-15
1499877166093911,-10,-17,2,-29,1,-9,49,-49
1499877166101912,-1,6,19,29,-2,-8,-121,14
1499877166101912,-3,2,18,-19,-4,7,54,-6
1499877166102847,-8,-2,-32,28,5,2,-24,-27
1499877166102847,-1,-2,-6,-10,-3,1,24,8
1499877166124894,-2,15,45,-19,9,-10,-11,46
1499877166124894,-3,-7,-26,41,-13,2,-22,-62
1499877166125854,-4,0,52,-10,-12,-8,-15,20
1499877166125854,5,18,-5,26,32,7,-9,-31
1499877166138892,0,-9,-5,12,-26,-4,-8,-14
1499877166138892,4,-10,-80,16,5,4,9,41
1499877166146896,7,6,31,-67,-23,-7,1,0
1499877166146896,-5,-6,-14,22,-1,-6,-9,-2
1499877166161901,7,7,16,0,10,10,38,33
1499877166161901,-26,0,-8,21,-3,0,7,-56
1499877166162851,0,-4,-4,72,49,5,-10,-15
1499877166162851,-3,12,74,-53,-20,-3,-7,56
1499877166184908,-16,-20,-39,-5,-7,9,43,-78
1499877166184908,9,-3,5,-44,-29,-3,-13,-50
1499877166185871,1,9,-16,35,14,-7,4,10
1499877166185871,1,0,-1,34,9,14,44,69
1499877166198901,3,5,15,-10,5,-7,25,-25
1499877166198901,6,-6,-3,-12,2,-8,-20,41
1499877166206899,-10,-8,-22,-7,-15,0,-23,-39
1499877166206899,1,-6,-55,29,0,-1,18,-24
1499877166221898,-1,2,-14,-32,16,6,-2,8
1499877166221898,-8,-4,35,23,-18,0,3,12
1499877166222855,-16,15,59,2,9,-2,-7,-45
1499877166222855,0,4,-48,-22,-33,-8,-32,-62
1499877166244930,-11,-37,-24,-16,9,-24,-16,37
1499877166244930,3,1,-24,39,-2,42,78,-4
1499877166245856,-5,-5,-22,0,-17,-6,-13,11
1499877166245856,-5,5,49,43,-1,18,34,-73
1499877166258900,7,4,-31,-90,-25,-16,-55,13
1499877166258900,-2,-9,17,-12,16,-18,-56,-68
1499877166266903,17,3,3,6,14,-5,-18,-4
1499877166266903,-2,-1,19,56,7,4,51,0
1499877166281902,-4,5,6,-24,-21,-29,-84,90
1499877166281902,15,1,28,23,-3,10,60,1
1499877166282858,0,-2,-28,-67,-8,9,11,92
1499877166282858,-14,-6,-3,-39,11,-7,-61,-71
1499877166304928,14,10,28,102,20,11,21,25
1499877166304928,-9,0,-25,-46,-2,-14,-76,-8
1499877166305859,0,1,-4,34,-1,3,28,2
1499877166305859,0,-13,-12,-13,16,-4,4,123
1499877166318904,13,4,29,-27,-39,-1,-7,12
1499877166318904,-11,-12,-69,-21,-1,-22,-90,-85
1499877166326905,-1,3,77,31,3,8,77,3
1499877166326905,-2,-16,-42,-37,7,-5,-8,11
1499877166341906,-2,5,-12,39,22,17,-1,-23
1499877166341906,8,0,11,32,-11,-17,-10,57
1499877166342861,-1,9,23,25,0,-5,-49,54
1499877166342861,-3,-3,8,-5,-20,-13,-7,-38
1499877166364913,-9,-7,-34,5,8,10,31,24
1499877166364913,0,10,58,-62,-18,-3,15,23
1499877166365862,6,-2,-26,66,40,10,15,-33
1499877166365862,-1,11,53,9,-27,-25,-83,67
1499877166387898,-12,-3,-53,-24,14,25,45,-83
1499877166387898,-5,-1,6,34,-3,8,23,15
1499877166387898,-3,-9,-33,-51,-17,-7,25,-65
1499877166387898,-27,-13,4,35,20,-18,-70,44
1499877166401911,12,2,1,-90,-46,-6,50,-77
1499877166401911,-8,-4,-30,15,10,-1,-20,22
1499877166402872,1,-3,-9,4,-5,-2,-55,34
1499877166402872,22,9,-5,8,11,8,-44,-12
1499877166424910,-12,-4,15,-7,-5,1,31,-33
1499877166424910,-2,19,19,18,15,9,29,34
1499877166425872,-2,2,26,25,12,1,0,-14
1499877166425872,0,-5,-11,-54,-51,8,32,-36
1499877166447898,1,6,24,37,35,-1,-43,30
1499877166447898,1,-7,-29,-30,-9,-12,-4,9
1499877166447898,-3,-1,-6,28,-2,-5,-51,-9
1499877166447898,7,-6,-1,5,2,8,53,-55
1499877166461869,-1,12,44,26,7,0,-22,-18
1499877166461869,2,-2,-4,14,8,-7,20,24
1499877166462904,6,6,-2,11,18,-2,-29,-1
1499877166462904,6,-7,-34,-32,-21,19,69,-51
1499877166484917,2,-7,12,25,5,-16,-17,-13
1499877166484917,-4,-6,-10,15,16,5,-13,11
1499877166485870,-3,2,8,-13,-13,-4,-21,-33
1499877166485870,1,-1,-32,3,17,-11,-8,-3
1499877166507882,-5,-11,-30,-19,-16,-8,-51,16
1499877166507882,12,4,45,-10,4,7,60,-34
1499877166507882,6,9,-1,-31,-12,3,10,20
1499877166507882,-13,-7,16,37,12,-13,-55,10
1499877166521946,-2,4,-4,36,0,13,79,-24
1499877166521946,0,-7,-2,-29,-12,0,-40,12
1499877166528915,3,6,2,12,-14,-3,21,-2
1499877166528915,-2,-7,64,27,14,2,16,39
1499877166544925,2,-1,-35,-20,-17,-3,-56,64
1499877166544925,-3,6,8,39,23,-3,6,-53
1499877166545874,-1,1,28,25,4,0,-43,73
1499877166545874,4,-9,-84,-49,-20,0,44,2
1499877166567911,2,-1,27,9,3,-1,-28,10
1499877166567911,5,-6,-7,-56,2,10,58,46
1499877166567911,-1,-6,-49,-33,-33,-14,-28,-17
1499877166567911,-4,9,19,21,19,5,-26,-17
1499877166581921,-6,-4,21,6,-15,4,14,58
1499877166581921,-1,-6,-28,28,12,-6,-17,7
1499877166582904,-6,-18,-12,-30,-7,-2,36,-25
1499877166582904,13,4,12,-7,-6,-2,21,49
1499877166604923,4,4,-19,30,10,-1,0,-38
1499877166604923,-2,3,-1,-55,-15,-4,-15,22
1499877166605883,-5,-5,14,14,12,10,35,-39
1499877166605883,-6,7,5,5,5,5,41,-10
1499877166627907,1,-6,-25,-25,-3,-6,5,16
1499877166627907,-16,-8,24,13,-25,-10,-1,-59
1499877166627907,-6,-2,-6,-36,-4,-8,-2,41
1499877166627907,10,7,10,8,-2,4,-25,-32
1499877166641926,1,-10,-27,-7,-6,3,3,62
1499877166641926,0,2,-14,21,9,-1,-4,24
1499877166648925,-3,9,66,-6,-5,-7,-18,-10
1499877166648925,-6,-14,-66,18,14,12,50,76
1499877166664923,-1,-1,28,2,5,-2,-15,-13
1499877166664923,-3,0,-4,-11,-31,-2,-11,24
1499877166665886,7,9,-52,3,17,3,12,2
1499877166665886,4,-4,2,-16,-20,-16,-65,-9
1499877166687900,1,8,26,28,28,13,62,-75
1499877166687900,0,-13,-26,-49,0,-6,-8,1
1499877166687900,4,0,15,6,14,1,5,-5
1499877166687900,7,6,-21,-45,-14,-2,-3,-2
1499877166701928,-3,-9,9,-9,-5,-8,-26,60
1499877166701928,-8,7,62,53,14,5,24,-29
1499877166702923,-5,-4,-27,-15,-6,3,-34,51
1499877166702923,-8,-2,0,-2,2,3,3,-14
1499877166724928,-1,-8,-14,35,-6,-3,73,2
1499877166724928,3,3,1,-56,-11,2,-2,36
1499877166725884,5,-6,-13,-17,-9,2,9,1
1499877166725884,-14,3,3,10,17,-4,-17,-29
1499877166747901,1,5,10,23,7,-6,-17,-79
1499877166747901,11,1,-10,-15,-11,0,0,15
1499877166747901,-3,-2,9,43,16,-3,8,-28
1499877166747901,2,4,42,-40,-29,3,-21,-13
1499877166761950,-5,-1,-86,-56,-5,-6,3,-9
1499877166761950,0,-6,63,38,17,0,-17,29
1499877166762922,2,-2,-12,-4,0,8,25,-24
1499877166762922,-7,-5,13,57,-3,8,19,-34
