timestamp,emg1,emg2,emg3,emg4,emg5,emg6,emg7,emg8
1499877319410380,-17,-7,-7,-6,-7,0,56,-44
1499877319410380,42,1,-1,-2,-4,-18,-80,-67
1499877319411366,35,-5,1,2,-2,14,105,-22
1499877319411366,-15,-6,-5,-5,-4,-9,-29,-61
1499877319412343,-10,20,6,5,4,0,-43,-16
1499877319412343,-8,-3,0,-5,-4,-4,34,34
1499877319415359,-54,2,4,7,-1,-9,-36,-17
1499877319415359,-22,-11,-14,6,1,7,27,-46
1499877319422381,30,-10,12,-7,-6,-7,-44,32
1499877319422381,13,2,-3,-2,1,-2,-23,-17
1499877319430346,-17,-9,-4,-9,-2,-10,-40,14
1499877319430346,7,4,4,-1,1,4,-30,-37
1499877319438361,30,2,-7,2,-3,7,66,84
1499877319438361,-37,-3,-1,-3,-3,-1,27,3
1499877319452382,-15,-3,5,-1,-3,2,11,44
1499877319452382,12,1,-5,-4,-1,-9,-15,-18
1499877319463346,101,9,3,3,3,4,-24,28
1499877319463346,10,6,-3,1,-5,1,-9,-25
1499877319476349,-55,11,-15,4,-2,2,62,65
1499877319476349,22,12,14,9,5,2,-53,-3
1499877319483343,-16,-10,-6,6,5,-2,-51,-9
1499877319483343,48,-9,5,-7,3,14,88,4
1499877319497376,-3,-2,5,2,5,-1,-26,-29
1499877319497376,35,-1,5,1,2,2,22,-52
1499877319538352,-1,2,0,-1,-1,16,94,63
1499877319538352,-6,-2,4,3,-1,-5,25,-63
1499877319539346,10,3,2,5,3,7,1,0
1499877319539346,-3,15,15,1,-1,-1,-31,0
1499877319542384,-29,-1,-4,2,1,-9,-77,-14
1499877319542384,5,-3,-4,-9,-3,4,77,25
1499877319551377,0,3,1,1,-3,-4,5,52
1499877319551377,-1,11,-14,15,-1,2,-16,-43
1499877319552347,-33,-12,8,-10,-4,-2,56,3
1499877319552347,43,9,-7,0,4,8,-20,39
1499877319558347,-46,3,24,-3,-1,-12,-64,-5
1499877319558347,7,-16,-16,-7,-2,-2,63,121
1499877319564395,33,29,-6,1,-6,-1,28,36
1499877319564395,-7,-1,11,-3,0,3,-31,7
1499877319581390,4,-5,-12,0,-4,-3,-51,-71
1499877319581390,50,5,2,-13,-3,5,31,33
1499877319587352,-3,-19,-30,-10,1,-5,-77,-23
1499877319587352,21,-2,5,0,-1,2,41,10
1499877319610393,2,-26,14,10,1,2,102,-57
1499877319610393,-26,-12,4,-3,-1,-5,-42,19
1499877319611354,-5,-3,0,0,2,-2,-48,-128
1499877319611354,2,2,-10,18,-4,1,-4,-11
1499877319625415,-26,-8,-7,-9,-4,-11,-50,-13
1499877319625415,-1,-5,-4,-15,-5,-7,-50,6
1499877319626388,22,-2,4,7,4,3,54,-20
1499877319626388,-10,-2,0,-3,3,2,-9,18
1499877319647419,0,12,-11,10,4,9,59,13
1499877319647419,-44,-6,10,-1,-2,-3,14,-11
1499877319648362,71,7,0,9,0,-3,-26,69
1499877319648362,12,6,5,4,3,-6,-87,48
1499877319671398,-47,-5,-11,-25,-7,8,68,-23
1499877319671398,14,0,8,10,4,7,43,-52
1499877319672364,58,8,8,1,4,-2,-75,81
1499877319672364,-11,6,4,5,-1,10,77,-6
1499877319685401,12,9,7,6,8,6,14,-5
1499877319685401,-3,0,-5,-6,-4,-13,-34,-56
1499877319686391,-25,-13,-7,-2,-4,-16,-67,2
1499877319686391,-20,-10,-22,-7,-1,-3,1,-90
1499877319707425,11,8,11,6,0,-8,-77,6
1499877319707425,0,-8,-13,2,0,5,25,-7
1499877319708357,13,-2,-3,-2,-2,1,-10,13
1499877319708357,-20,-4,-8,-9,-3,-1,11,25
1499877319730394,-35,2,7,-2,-5,-5,-25,8
1499877319730394,27,4,-3,-2,0,3,5,-34
1499877319731360,-26,-1,2,-1,1,-1,7,-91
1499877319731360,-3,-8,-6,-7,-3,-8,-32,11
1499877319745422,30,4,-6,0,2,-2,-12,20
1499877319745422,-25,-6,-3,1,-1,-3,-60,24
1499877319746362,-29,-3,1,-9,-5,4,60,-36
1499877319746362,-12,1,2,3,-1,5,-10,-79
1499877319767408,18,-9,-14,-1,-4,-11,-13,23
1499877319767408,-34,-4,13,-5,-1,-6,5,-7
1499877319768401,-13,-3,-5,6,-2,2,4,-37
1499877319768401,-12,-3,-6,-6,0,-3,-30,0
1499877319790403,18,-3,-1,5,2,3,-37,10
1499877319790403,11,3,-7,-6,0,0,-38,33
1499877319791364,2,3,11,9,7,14,76,68
1499877319791364,13,10,20,3,1,-3,9,19
1499877319805431,23,-1,3,-5,-2,10,62,-40
1499877319805431,14,3,-3,0,-4,-1,-17,-68
1499877319806366,-46,-11,-1,-7,-6,-11,-67,-22
1499877319806366,-17,-5,-5,-9,-5,-2,34,21
1499877319827423,-15,-1,-4,-3,-3,-8,-72,44
1499877319827423,5,-6,-7,2,-2,-5,6,-12
1499877319828375,-14,2,-5,-3,-2,7,82,-58
1499877319828375,-6,-1,1,3,-3,-9,-20,-10
1499877319850405,11,1,-3,-3,-2,0,4,-4
1499877319850405,-1,-6,-1,-3,-3,-8,-27,26
1499877319851371,4,-4,-2,0,0,0,-6,-1
1499877319851371,6,-3,-4,0,-1,-8,-25,68
1499877319865435,15,3,-1,0,1,11,120,45
1499877319865435,-6,0,-3,-4,-1,-5,-19,20
1499877319866368,-14,0,10,-4,-3,-3,3,-15
1499877319866368,12,1,7,-1,-2,4,7,8
1499877319887412,17,0,-13,-9,-3,-7,-19,-20
1499877319887412,8,5,0,8,5,6,28,41
1499877319888405,-7,7,14,3,0,-5,-24,-36
1499877319888405,-48,-18,-16,-15,-11,-6,-23,-61
1499877319910409,14,8,-4,-3,-3,-4,-2,-5
1499877319910409,8,-3,12,7,1,5,30,30
1499877319911372,-11,-3,3,0,-1,-1,-19,-19
1499877319911372,-20,0,0,1,0,-6,-15,23
1499877319924413,11,3,-3,0,0,7,70,29
1499877319924413,73,4,1,1,1,2,-11,-33
1499877319932382,-47,-11,-2,-5,-3,-4,-16,-10
1499877319932382,1,4,1,5,4,2,-3,-35
1499877319947417,0,-4,-5,-7,-3,-14,-53,4
1499877319947417,-10,0,0,-3,1,4,2,-39
1499877319948373,12,0,-1,2,0,1,24,37
1499877319948373,0,0,0,-2,-1,2,-17,-39
1499877319970389,-23,1,-5,1,0,0,-27,-21
1499877319970389,-26,4,16,5,-3,-3,37,-33
1499877319971374,-6,-13,-13,-11,-2,-3,-8,-8
1499877319971374,30,2,-2,3,0,-1,-5,-25
1499877319984425,-9,-1,12,3,1,3,-12,-60
1499877319984425,-5,-3,-6,-2,0,-4,-1,20
1499877319992413,19,3,-2,3,3,2,-49,-16
1499877319992413,48,1,7,7,4,-3,31,57
1499877320007416,-11,-10,-4,-3,-1,6,23,5
1499877320007416,-28,1,-8,-2,-2,-1,-2,16
1499877320008379,23,2,4,-2,-2,1,17,41
1499877320008379,2,-6,-2,-3,-4,-6,-19,14
1499877320030406,15,-1,-5,1,-3,-4,-22,18
1499877320030406,-18,2,7,5,-1,1,-18,-52
1499877320031378,77,1,-8,-9,-7,-5,14,89
1499877320031378,-34,2,-7,-3,0,-2,-8,-17
1499877320044417,-10,-1,17,4,1,6,38,39
1499877320044417,-7,-4,-9,-2,2,1,-20,-34
1499877320052386,0,-1,2,-3,-5,-7,3,-19
1499877320052386,2,-1,-1,-1,1,5,-5,-22
1499877320067450,0,-6,-16,-12,-4,-8,-7,49
1499877320067450,-4,4,-2,1,0,4,27,-46
1499877320068389,2,3,5,2,-1,-1,0,28
1499877320068389,-29,2,-1,2,0,-4,0,-4
1499877320090399,29,0,2,1,-1,0,-11,57
1499877320090399,26,-9,-13,-6,-3,0,15,12
1499877320091381,-27,1,-8,-1,-1,2,8,-46
1499877320091381,22,-3,6,-1,-3,-2,-10,13
1499877320104425,-1,-1,6,8,3,-2,-36,-6
1499877320104425,9,-2,-1,-6,-2,3,29,-7
1499877320112420,-29,-1,-8,1,-2,-5,-8,40
1499877320112420,12,-1,-4,-6,-3,-1,0,4
1499877320127445,25,4,-8,-6,-2,-4,-3,-29
1499877320127445,-53,-1,10,-2,-3,-4,-29,-3
1499877320128383,13,-1,3,1,1,-5,-40,10
1499877320128383,27,-1,5,3,-1,0,-14,74
1499877320150389,-95,-2,-3,-4,-3,3,35,-104
1499877320150389,-6,1,6,5,1,-2,-7,-33
1499877320151387,11,2,-7,-3,-3,-2,11,-9
1499877320151387,-24,-9,-6,-3,-5,-9,-23,-49
1499877320164427,-25,-3,-5,-4,-4,-1,-6,-43
1499877320164427,12,-1,-10,-2,-2,-8,1,59
1499877320172424,-16,-6,1,3,4,5,-3,-56
1499877320172424,0,1,-2,1,1,2,22,15
1499877320187426,10,0,1,1,2,0,-12,8
1499877320187426,12,-3,-7,-2,-3,-3,-2,-14
1499877320188386,19,0,-9,-5,-2,0,10,-35
1499877320188386,-8,-2,1,-3,-1,-1,-19,-25
1499877320210458,0,-1,-1,3,1,0,18,-8
1499877320210458,6,-2,8,0,-1,-1,4,30
1499877320211389,18,-1,-2,1,2,-1,0,30
1499877320211389,-7,8,5,10,5,4,7,-105
1499877320232421,5,-3,-1,-6,-2,-2,-18,-28
1499877320232421,4,-3,3,-3,0,6,24,18
1499877320233390,-40,-3,-1,-1,-1,-1,18,2
1499877320233390,-7,2,-3,-5,-4,-2,17,13
1499877320247455,-1,-7,-5,1,-6,0,-8,16
1499877320247455,24,1,-9,0,2,1,-20,1
1499877320248418,35,-1,4,-4,0,2,28,17
1499877320248418,-9,-1,0,3,0,2,15,10
1499877320270434,-2,1,1,4,1,-2,-9,-27
1499877320270434,-31,-5,0,-1,-1,-8,-21,-44
1499877320271396,-12,1,4,0,-3,-4,-27,-2
1499877320271396,4,-2,-3,-2,0,0,27,4
1499877320284456,-7,-1,-9,-5,-1,-3,-6,18
1499877320284456,9,3,6,6,4,2,-4,31
1499877320292403,-23,0,-1,0,0,0,4,-15
1499877320292403,1,-2,-7,-4,-1,-2,-21,-67
1499877320307403,10,4,15,5,3,0,16,51
1499877320307403,4,-6,-7,-8,-4,-3,5,49
1499877320308404,-14,1,1,0,-1,-1,-4,-16
1499877320308404,7,3,4,-5,-4,-4,-11,48
1499877320330397,-11,-4,0,6,-1,-3,-6,-41
1499877320330397,14,-3,-7,-8,-2,2,9,43
1499877320331394,-6,3,2,0,-1,0,-10,5
1499877320331394,-9,-3,-1,-3,-2,1,18,23
1499877320352399,-27,3,-5,-1,1,0,4,-63
1499877320352399,-12,-2,8,2,-4,0,0,-78
1499877320353404,12,5,-2,2,0,0,-6,74
1499877320353404,-25,-13,-7,-9,-6,-4,-2,-31
1499877320367441,-35,-8,5,-4,-1,1,-6,6
1499877320367441,59,1,-5,-4,2,5,16,-45
1499877320368435,1,-3,-12,-5,-3,-3,-5,13
1499877320368435,65,10,4,5,2,-2,-2,58
1499877320390466,12,-6,-4,-7,-1,-2,-15,25
1499877320390466,-8,-3,-8,-3,-2,-3,-19,22
1499877320391400,-29,-9,-8,-9,-3,-4,-2,-80
1499877320391400,-26,2,4,5,5,7,22,-74
1499877320412409,7,-10,-11,-8,-7,-7,-15,0
1499877320412409,-39,8,5,6,3,1,-3,21
1499877320413400,6,-2,4,2,-1,-1,6,9
1499877320413400,7,-7,-1,-3,-4,-3,-10,69
1499877320427468,21,5,-1,1,1,-1,-3,-15
1499877320427468,-44,-4,2,2,-1,-6,-6,-36
1499877320428433,-8,-3,-2,-1,0,-3,-11,37
1499877320428433,7,-3,4,-3,-5,2,23,-43
1499877320450475,25,-3,-9,-3,-2,-5,-17,47
1499877320450475,57,8,-6,-1,0,3,28,90
1499877320451402,21,3,9,7,3,2,-8,43
1499877320451402,-26,6,7,4,-4,-4,-3,74
1499877320472442,27,14,15,4,3,2,2,57
1499877320472442,-50,-8,-12,-7,-2,-4,-39,-50
1499877320473402,11,-2,-2,0,-3,1,22,35
1499877320473402,5,-2,3,-2,-2,-2,6,10
1499877320487417,3,-5,-3,1,-1,-6,-28,23
1499877320487417,11,0,11,-4,-2,-1,8,56
1499877320488403,-20,3,8,7,5,-1,-16,-20
1499877320488403,-3,1,-5,-5,2,-1,-2,-22
1499877320509470,0,-8,-7,-8,-6,-3,-9,26
1499877320509470,17,2,-5,5,0,-1,7,23
1499877320517464,10,-6,3,-4,-6,-3,-19,54
1499877320517464,14,-3,-7,-4,-1,-2,9,17
1499877320541441,-4,4,13,8,5,5,20,-40
1499877320541441,-47,-2,-3,-3,-3,-1,-12,-58
1499877320541441,-26,6,0,3,1,3,14,-59
1499877320541441,-12,-1,0,1,2,-4,-20,-65
1499877320555475,2,3,-10,0,0,1,19,9
1499877320555475,21,-6,14,0,-1,0,8,18
1499877320556442,22,-1,-9,-5,0,0,10,-44
1499877320556442,7,-10,-10,-7,-4,-8,-13,42
1499877320569452,-10,-1,-7,-5,-5,2,5,-14
1499877320569452,0,2,-4,0,0,0,-6,-46
1499877320577479,-35,-4,2,-2,-4,-6,35,-23
1499877320577479,-24,-4,-4,-2,2,4,-13,-31
1499877320592449,0,-3,6,4,2,-2,1,27
1499877320592449,15,0,-8,0,1,1,13,41
1499877320593409,15,-1,-4,-5,-2,-5,-7,-52
1499877320593409,16,-2,-5,1,-2,-4,-16,-17
1499877320615486,-32,0,-2,-5,-5,-2,7,-28
1499877320615486,-1,-9,9,-1,-3,-2,-7,-33
1499877320616447,40,3,-6,-1,1,3,-8,34
1499877320616447,7,0,-1,-5,-2,3,15,35
1499877320629480,-23,-4,-7,2,1,-3,-45,-52
1499877320629480,9,4,-6,-1,-1,-4,19,-34
1499877320637453,5,-4,7,0,0,1,4,19
1499877320637453,-9,-2,-7,-4,-4,-6,-15,13
1499877320652452,35,7,11,2,1,3,15,54
1499877320652452,-45,0,8,4,-2,-2,-8,-59
1499877320653445,-38,-4,-7,-7,-2,-9,-23,-50
1499877320653445,-7,4,4,3,2,6,10,-99
1499877320675480,9,-3,-2,-1,0,-2,6,14
1499877320675480,-10,0,-2,4,1,0,-1,65
1499877320676450,10,4,10,8,1,5,14,-23
1499877320676450,-7,1,2,-4,0,-1,-11,42
1499877320689415,-25,6,-4,-5,-1,-5,-29,-84
1499877320689415,-12,-4,7,2,-3,-6,-26,-13
1499877320697438,20,2,-1,-7,-1,13,51,53
1499877320697438,-21,0,-2,1,-1,-1,-4,19
1499877320712456,29,-3,14,2,-2,-3,-11,75
1499877320712456,-30,-2,-13,-10,-2,-3,-19,-31
1499877320713416,54,2,-5,1,-1,-3,-11,37
1499877320713416,-8,-10,4,2,-5,-10,-15,38
1499877320735461,21,5,2,-1,-3,-1,-15,-84
1499877320735461,6,-1,1,-4,-2,-2,9,24
1499877320736453,-23,-7,-6,0,-1,-4,-17,-45
1499877320736453,-12,-1,-3,-3,0,0,4,-28
1499877320749447,-11,-5,-2,0,-3,-1,18,3
1499877320749447,9,-1,2,1,-1,3,20,-13
1499877320757420,-6,0,-9,-4,-3,-6,-8,-45
1499877320757420,23,5,1,5,3,1,-16,-40
1499877320772421,1,0,6,-4,2,3,25,-28
1499877320772421,49,2,-6,0,4,8,17,31
1499877320773420,-18,3,1,3,1,0,3,34
1499877320773420,-10,-2,6,3,-1,-6,-34,5
1499877320795467,42,6,-7,-2,-1,2,23,32
1499877320795467,-38,-5,-2,-8,-5,-2,12,-6
1499877320796457,0,1,3,-1,-2,-3,-7,9
1499877320796457,11,-4,-7,-7,-3,0,8,25
1499877320818431,-16,0,-7,5,-1,-3,-14,2
1499877320818431,80,5,6,5,2,-1,23,62
1499877320819424,-28,0,9,3,0,-1,-17,-6
1499877320819424,-63,0,-3,0,-1,2,3,-87
1499877320832466,-26,-9,5,-8,-5,-5,2,-3
1499877320832466,22,-4,-8,-2,-2,-3,-25,18
1499877320833433,2,2,-2,-1,1,-1,11,-39
1499877320833433,40,4,3,3,1,4,22,18
1499877320855491,-33,-8,-11,-2,-2,-6,-1,25
1499877320855491,-20,2,-6,-2,-2,-3,-13,49
1499877320856461,-6,-12,4,-6,-1,-1,-3,-50
1499877320856461,5,-5,-12,-3,-2,-2,-1,29
1499877320878448,25,9,1,2,2,2,1,28
1499877320878448,-48,-8,0,0,-1,-4,-8,-41
1499877320879459,1,-1,-1,-2,-4,-3,-7,4
1499877320879459,49,6,2,-2,-2,4,4,39
1499877320892467,-14,-5,1,-2,-3,-4,-9,46
1499877320892467,10,-2,-4,0,-1,-1,-5,33
1499877320893427,-4,-9,3,2,-2,0,1,53
1499877320893427,16,-3,-8,-2,1,1,20,8
1499877320915472,-62,2,-5,0,2,-4,-15,-84
1499877320915472,-10,6,11,5,1,2,12,-42
1499877320916445,7,0,-4,-6,0,-1,-33,-36
1499877320916445,-10,-9,-10,-8,-5,-6,-8,19
1499877320938434,-3,2,-4,2,-1,-2,-5,-8
1499877320938434,0,3,1,0,-1,1,0,-26
1499877320939430,-19,1,-3,0,-2,-2,5,-30
1499877320939430,-6,-2,9,-1,-1,2,2,12
1499877320952441,18,-4,3,2,0,4,8,-2
1499877320952441,-4,-6,2,-9,-4,-9,-14,-31
1499877320953432,12,0,-13,-1,-1,-2,10,33
1499877320953432,-12,0,-3,-1,2,1,5,-59
1499877320975453,19,-3,2,0,-2,3,11,54
1499877320975453,-10,2,-2,5,1,-1,-6,-60
1499877320976430,-8,2,-2,-4,-3,-2,1,-10
1499877320976430,11,4,-4,0,-1,-1,2,-10
1499877320998455,0,-2,6,1,3,8,-1,-36
1499877320998455,35,-11,-9,-8,-3,1,-3,-12
1499877320999434,-1,1,0,0,-1,-4,4,-12
1499877320999434,-5,1,8,8,4,-1,-12,17
1499877321012455,-19,-8,-11,-9,-5,1,20,-49
1499877321012455,-16,0,-3,-1,0,0,-21,8
1499877321013436,54,0,-7,-5,-3,-2,-4,60
1499877321013436,25,4,13,4,0,-1,-8,18
1499877321035498,-25,-5,-3,1,-1,-4,25,-37
1499877321035498,-7,3,6,5,3,3,13,5
1499877321036467,-30,-4,-6,-3,-3,0,-8,4
1499877321036467,-11,2,9,2,1,6,22,-55
1499877321058450,-6,-3,-8,-3,0,0,-14,6
1499877321058450,17,8,2,0,-4,-5,3,18
1499877321059438,-25,-1,-4,6,4,-2,-5,-11
1499877321059438,27,-5,-10,-6,-2,0,0,46
1499877321072449,16,0,12,0,0,-1,2,9
1499877321072449,-16,0,-4,-2,-1,3,12,-20
1499877321073445,2,1,1,3,1,5,3,20
1499877321073445,-37,-4,-2,-6,-4,-7,-11,49
1499877321096478,-3,8,2,2,0,-2,-14,-65
1499877321096478,-22,-5,-7,0,-1,1,-11,-23
1499877321097476,27,0,4,-2,-2,0,20,51
1499877321097476,-13,1,-4,-6,0,2,5,-43
1499877321118480,22,0,0,24,-2,-6,-8,22
1499877321118480,5,-1,-6,-25,-1,-1,12,21
1499877321119441,-22,0,6,18,0,-1,-5,-58
1499877321119441,7,-7,-2,-11,1,4,10,-37
1499877321132481,28,-11,-10,-4,-6,-1,7,58
1499877321132481,-20,0,-7,-42,-6,-4,-2,-25
1499877321133474,5,-3,-1,-15,-1,0,-16,5
1499877321133474,-4,0,5,2,3,6,5,-7
1499877321155516,-22,-4,0,8,-2,-6,-25,-70
1499877321155516,8,-2,7,48,-3,-3,-5,20
1499877321156483,-4,1,1,-6,-5,0,18,-71
1499877321156483,-26,1,4,-6,1,-5,-21,-26
1499877321178487,-25,8,-3,3,3,1,-1,-94
1499877321178487,17,-3,-4,-1,2,3,15,8
1499877321179444,-7,-6,8,-8,-3,-8,-19,-3
1499877321179444,2,5,5,64,1,-2,-27,-61
1499877321192484,7,2,-2,-32,3,6,27,32
1499877321192484,-7,-1,-3,3,0,-6,-12,15
1499877321193448,20,-8,-14,-15,1,6,9,43
1499877321193448,-24,-1,-9,-9,-1,-4,-4,-32
1499877321215488,3,-1,2,-8,-2,-4,-15,0
1499877321215488,-18,0,3,9,-4,-1,14,-13
1499877321216478,-2,-5,-1,15,0,0,-34,-30
1499877321216478,27,-1,3,-8,-4,-2,12,58
1499877321238491,-18,3,-7,36,2,-1,9,-24
1499877321238491,-4,-1,-5,-44,-3,-4,0,-15
1499877321239448,-18,2,0,35,1,-2,0,-20
1499877321239448,-8,-10,-9,-59,-9,-9,-19,-12
1499877321252487,-12,1,6,-9,-4,6,3,51
1499877321252487,19,-2,4,17,2,-1,-4,63
1499877321253451,-34,-4,-4,-6,-1,1,0,4
1499877321253451,32,3,3,7,2,2,25,37
1499877321275490,-8,-9,-8,-11,-3,-8,-8,-52
1499877321275490,6,-3,-3,4,-1,-1,-3,10
1499877321276477,20,2,7,-11,0,1,-9,-6
1499877321276477,3,3,4,8,0,-5,-19,56
1499877321298488,21,-3,1,17,-2,1,29,28
1499877321298488,-24,-2,-5,-21,0,-2,-7,-14
1499877321299461,23,5,-6,-13,-2,-1,6,23
1499877321299461,-14,1,-4,-1,-3,0,0,-8
1499877321312491,11,-2,11,2,0,3,-4,76
1499877321312491,-6,-1,-4,9,-4,-6,-23,-38
1499877321313463,15,1,-3,-12,-2,1,11,5
1499877321313463,-18,-8,-9,18,-3,-6,-13,-29
1499877321335465,-4,-1,-3,-49,-1,-1,-22,-20
1499877321335465,8,1,0,16,0,0,-20,-5
1499877321335465,-7,0,0,-1,-6,-4,10,11
1499877321335465,0,-3,-7,3,-1,-2,-1,-24
1499877321358495,31,4,0,2,0,-3,-11,59
1499877321358495,-10,-3,9,6,0,-3,-12,-17
1499877321359471,-12,-2,-7,3,4,0,-2,36
1499877321359471,3,-1,0,-2,-3,1,23,13
1499877321372468,-4,-5,-1,3,3,3,0,-15
1499877321372468,-19,-3,-9,-4,-2,2,6,-97
1499877321380498,-19,-10,13,3,-6,-10,-22,15
1499877321380498,-2,2,1,-3,-2,1,9,34
1499877321395521,3,6,-5,-9,-3,-3,-10,-31
1499877321395521,39,0,6,7,1,0,0,73
1499877321396457,-10,3,-3,-2,2,-1,4,-42
1499877321396457,20,3,3,-5,1,0,-1,21
1499877321418513,-6,-8,3,27,-3,-4,3,7
1499877321418513,-6,2,-6,-43,0,2,10,-30
1499877321419459,7,-1,-4,-2,-1,0,24,12
1499877321419459,8,-4,-2,-4,-3,-6,-26,20
1499877321432459,-30,-2,3,7,0,-5,-33,-79
1499877321432459,-16,-6,-10,8,-1,5,30,15
1499877321440458,-3,4,4,3,3,3,4,-3
1499877321440458,-21,-3,-7,-3,-4,-4,-19,-49
1499877321455500,13,-3,2,-9,-3,0,17,51
1499877321455500,-1,2,-1,5,0,1,8,-9
1499877321455500,-19,2,-2,-3,-4,-6,-25,-38
1499877321455500,8,-1,-2,3,0,2,13,35
1499877321478502,13,0,-5,-4,-1,1,21,41
1499877321478502,1,5,6,7,0,-1,-3,17
1499877321479461,21,-3,-15,0,1,4,18,70
1499877321479461,-19,-1,-4,-4,0,-3,-8,-72
1499877321492486,2,2,-9,-4,0,0,1,22
1499877321492486,-5,1,16,10,1,-3,6,-51
1499877321500526,-18,-4,6,-1,-2,-5,-19,-28
1499877321500526,-3,-7,-2,0,1,1,9,-42
1499877321515527,-10,-6,-8,-9,-3,-3,-27,-21
1499877321515527,14,-5,-8,3,-2,0,10,34
1499877321515527,-18,-2,-4,0,1,0,0,-49
1499877321515527,-2,3,3,3,2,1,-5,-26
1499877321538477,-1,0,3,4,-2,1,1,-2
1499877321538477,18,-4,-16,-1,0,-1,10,69
1499877321539465,-5,0,4,3,-1,1,4,-5
1499877321539465,-2,4,4,4,1,1,-3,15
1499877321552478,2,-4,12,-5,-4,-4,1,15
1499877321552478,-35,-4,-2,-7,-1,0,-9,-21
1499877321560509,12,0,-9,-3,-3,-2,1,-3
1499877321560509,-5,0,1,-2,0,-1,6,13
1499877321575466,15,3,1,1,-1,-2,-2,71
1499877321575466,13,0,1,1,0,0,9,8
1499877321575466,-6,-1,3,5,1,0,-1,-10
1499877321575466,14,0,6,19,-1,1,-4,25
1499877321598531,10,-9,-7,-31,-5,-5,-12,-73
1499877321598531,-14,-2,-2,-5,-2,-2,3,-5
1499877321599469,15,-1,-3,-6,-3,-4,1,-38
1499877321599469,-11,-3,5,3,-1,2,2,1
1499877321611530,7,3,-8,6,0,1,2,28
1499877321611530,-15,2,-6,-2,-4,-2,-30,-27
1499877321620517,11,2,3,3,-1,-1,14,43
1499877321620517,-7,-13,-16,-12,-4,-2,7,-2
1499877321635477,-11,3,7,9,1,0,7,10
1499877321635477,7,3,-2,-3,0,1,-4,1
1499877321635477,-21,3,9,5,4,0,-6,-14
1499877321635477,0,-2,-8,-9,-2,-1,-4,-1
1499877321658511,-8,2,-2,-1,1,1,4,-48
1499877321658511,13,-8,-13,2,-1,0,6,23
1499877321659490,-4,-2,1,-5,-3,-2,-10,-41
1499877321659490,2,3,-1,-7,0,-2,7,24
1499877321672506,17,3,-1,6,5,4,9,-26
1499877321672506,-11,11,14,10,2,1,-10,-44
1499877321680487,7,-10,-6,-7,-5,-1,-2,23
1499877321680487,-3,-2,4,-2,0,-2,-10,-8
1499877321695533,-3,-5,-7,-2,-3,-1,-5,7
1499877321695533,10,-3,-14,-6,-2,0,3,-4
1499877321696474,7,2,4,3,1,4,14,7
1499877321696474,9,2,4,3,0,-1,-14,17
1499877321718540,-14,-2,-3,-1,-1,-3,12,-3
1499877321718540,5,0,10,1,2,0,2,-4
1499877321719475,18,0,-8,2,-1,2,0,54
1499877321719475,-40,2,-5,-8,-1,4,12,-38
1499877321732488,-7,6,-2,4,0,-3,-9,-45
1499877321732488,-1,-3,9,0,-2,-1,1,6
1499877321740509,19,-6,-15,-9,-3,-4,-5,24
1499877321740509,-10,-4,-2,-3,-1,-4,-9,-1
1499877321755477,-13,-5,-2,-4,-3,-5,-12,25
1499877321755477,-10,3,3,9,3,3,7,6
1499877321756479,7,-3,4,-2,-1,-1,-16,-17
1499877321756479,8,-3,-3,-4,-4,-4,3,9
1499877321778511,8,1,-13,-6,-2,1,-3,-4
1499877321778511,-33,0,2,3,-1,-2,-11,-71
1499877321779516,-14,6,10,-1,0,-3,3,-37
1499877321779516,20,-4,-3,-3,-1,-2,4,31
1499877321800480,-8,2,7,-2,-2,-2,-5,-6
1499877321800480,7,-2,0,-4,-1,-4,1,41
1499877321801481,-3,0,-4,-1,-3,-3,-7,-23
1499877321801481,-2,4,6,3,3,3,3,-14
1499877321815486,6,-5,-6,0,-1,-4,-30,30
1499877321815486,9,-4,-7,-5,-3,2,17,14
1499877321815486,-20,1,0,0,-1,3,53,-37
1499877321815486,11,0,3,-1,-2,-1,-4,30
1499877321838547,12,3,-3,2,3,6,-6,42
1499877321838547,0,-4,16,1,-1,-8,-12,27
1499877321839494,2,3,2,10,0,-3,-14,36
1499877321839494,-8,-2,-8,-7,-2,3,16,-21
1499877321860537,8,2,3,-1,-2,-2,11,-8
1499877321860537,14,2,-9,-6,-2,0,-3,-10
1499877321861493,-7,-1,2,-4,2,0,2,-8
1499877321861493,-7,-4,3,-4,-4,-6,-26,1
1499877321875510,-17,-9,-7,-5,-5,-9,-16,-12
1499877321875510,7,1,0,3,1,4,12,32
1499877321875510,2,-5,-1,-8,-3,-2,-4,-38
1499877321875510,-2,-1,-6,-3,-2,-1,-6,-56
1499877321898534,11,2,5,3,0,1,3,0
1499877321898534,8,2,-5,0,-1,0,-5,-21
1499877321899486,-7,1,-11,0,-1,-1,7,1
1499877321899486,-9,-8,2,-8,-1,0,-3,-1
1499877321920548,-9,-2,2,3,-1,-2,16,-1
1499877321920548,2,-1,-7,2,-2,-1,5,22
1499877321921486,1,0,6,1,-1,0,-10,16
1499877321921486,8,4,-3,-1,-4,-5,-11,-5
1499877321935512,0,-8,-10,-4,-1,3,15,-4
1499877321935512,-4,0,-9,-8,-4,-1,-4,-10
1499877321935512,-55,-9,3,-3,-7,-5,-17,-74
1499877321935512,-47,-7,-2,2,-4,-7,-4,6
1499877321958555,-1,-3,0,-2,1,3,4,9
1499877321958555,6,-6,-6,-5,-4,-5,-2,44
1499877321959499,-22,-2,2,5,1,-2,-26,29
1499877321959499,-17,2,-6,-1,-1,-3,1,18
1499877321980533,-19,-7,-5,-9,-6,-8,-3,-25
1499877321980533,8,2,2,3,1,2,3,-42
1499877321981489,45,4,-3,0,-2,-4,8,113
1499877321981489,6,-3,14,2,2,2,1,-5
1499877321995517,3,0,-7,-1,-2,1,3,-3
1499877321995517,11,2,-6,0,0,-1,-6,-40
1499877321995517,-12,3,1,-1,0,-1,4,-46
1499877321995517,9,5,12,-1,1,1,7,-4
1499877322018535,-5,3,15,3,3,-1,-8,-31
1499877322018535,-10,-5,-7,-6,-4,-3,-11,-6
1499877322019492,12,1,-4,5,2,2,-1,-28
1499877322019492,40,1,-10,-2,-3,-1,8,60
1499877322040504,12,-1,21,3,-1,1,-8,16
1499877322040504,13,-1,1,-1,-1,-4,-16,13
1499877322041493,-3,1,-9,-6,-2,0,22,-56
1499877322041493,2,4,-1,-1,0,-1,1,9
1499877322055503,-2,-4,-2,-6,-3,-2,2,-17
1499877322055503,-5,0,4,5,1,-2,3,19
1499877322055503,5,-5,1,-1,3,2,-4,34
1499877322055503,10,0,-7,2,0,-2,-6,-10
1499877322078554,16,0,-8,-4,-4,-1,18,36
1499877322078554,-21,-1,0,-2,-1,-1,-15,-16
1499877322079497,2,1,8,-1,0,0,10,-29
1499877322079497,-6,1,-5,5,-2,0,-6,-7
1499877322100530,-6,-3,8,4,1,0,-5,-9
1499877322100530,-10,-3,-8,-5,-2,-3,-8,4
1499877322101506,10,-5,-8,-6,-4,-2,0,64
1499877322101506,-8,1,2,8,3,-2,5,-19
1499877322115506,2,-3,-3,-3,-2,3,18,69
1499877322115506,-18,-1,1,-2,0,-6,-42,-86
1499877322115506,-6,4,-4,-1,-1,4,29,-15
1499877322115506,9,1,0,-4,1,1,3,-43
1499877322138545,6,3,-2,3,1,-4,-10,8
1499877322138545,-8,4,-3,-4,-1,1,9,-53
1499877322139500,2,-10,7,-6,-3,-5,-24,20
1499877322139500,33,1,-3,0,-3,0,-1,27
1499877322160548,3,4,6,0,0,0,16,-11
1499877322160548,-6,-2,2,3,2,0,-8,60
1499877322161545,-6,-8,-3,-1,-5,-4,11,1
1499877322161545,62,1,-9,-6,-3,-3,5,68
1499877322175539,-24,-3,-5,-1,-2,-3,-26,-2
1499877322175539,6,-4,14,2,0,0,5,42
1499877322175539,2,3,-4,1,2,3,-12,1
1499877322175539,-17,-6,4,1,0,-1,-13,-2
1499877322198567,-1,3,-15,0,1,-1,3,-7
1499877322198567,-28,-8,3,2,0,2,34,-19
1499877322199520,11,4,-2,0,0,-1,-10,31
1499877322199520,-21,0,-9,6,2,4,7,-36
1499877322220576,0,0,-6,-3,-1,0,2,-11
1499877322220576,10,-8,-3,-3,-3,0,0,66
1499877322221503,-8,-6,-1,-4,-1,-4,-18,-9
1499877322221503,-9,0,2,-2,2,0,7,-2
1499877322235542,3,4,-5,5,-1,-1,-14,-6
1499877322235542,29,0,3,-1,-1,0,11,22
1499877322235542,-7,4,2,8,2,2,-7,-36
1499877322235542,-13,-3,-4,-8,-3,-3,-8,-16
1499877322258548,2,-4,4,-2,2,1,-2,-7
1499877322258548,-28,1,-8,-4,-7,-5,-9,-15
1499877322259508,3,-4,-6,-8,-3,0,2,17
1499877322259508,-17,-4,-5,-5,-3,-1,1,-16
1499877322280547,4,3,1,1,-2,3,10,6
1499877322280547,-9,1,3,0,-1,2,30,-66
1499877322282508,14,-2,-5,-1,0,-2,-16,49
1499877322282508,6,-4,1,-5,-2,-4,-12,-9
1499877322294552,-6,-1,-3,3,2,0,11,-16
1499877322294552,7,2,1,-5,-1,2,-4,41
1499877322303541,2,5,-4,-2,1,3,0,-47
1499877322303541,-7,-1,1,-1,1,0,4,-12
1499877322318582,-9,-13,-15,-4,-5,-5,-11,-26
1499877322318582,20,3,2,2,1,6,26,82
1499877322319520,1,0,1,-2,0,1,-7,-47
1499877322319520,-7,-1,-6,0,-1,-2,-4,22
1499877322340559,-14,-5,-3,-2,-2,-3,-5,-73
1499877322340559,23,-3,-5,2,-4,-4,6,56
1499877322342510,-19,-2,1,0,-2,-4,-12,-1
1499877322342510,-22,-10,-11,-6,-4,-4,6,-23
1499877322354557,-20,7,-2,-2,-1,1,6,19
1499877322354557,12,-2,10,-4,-2,-3,-13,-19
1499877322363545,4,-2,0,2,-1,-1,-3,14
1499877322363545,2,3,6,9,3,4,3,19
1499877322378581,19,4,-2,-6,-3,-1,3,18
1499877322378581,-9,-4,1,0,-2,-7,-9,6
1499877322379514,-12,1,-6,-2,-2,-2,13,-44
1499877322379514,-14,-2,1,-4,-2,0,-6,-24
1499877322400554,31,-4,-4,-2,-2,-1,-9,29
1499877322400554,-7,7,-3,10,5,3,-17,-51
1499877322402522,33,-3,9,-5,-2,1,24,66
1499877322402522,4,2,3,3,0,-1,3,-7
1499877322414582,-7,-2,0,-2,-1,-2,-1,8
1499877322414582,21,0,0,-2,0,-2,-14,50
1499877322423526,9,7,-2,3,1,-2,1,22
1499877322423526,0,5,-1,1,0,1,-3,4
1499877322438564,-19,-11,23,0,-3,-2,-6,39
1499877322438564,0,-4,-17,-6,-4,-1,1,15
1499877322439527,2,0,0,3,1,2,9,24
1499877322439527,-11,-4,1,-3,-2,-4,-16,-57
1499877322460518,-2,2,1,3,0,0,4,-57
1499877322460518,8,4,4,0,-1,0,4,19
1499877322462518,-12,-3,-6,-2,-3,-2,-5,-19
1499877322462518,1,-2,9,-2,-2,-2,-12,-36
1499877322474524,8,2,-6,-1,1,2,6,-23
1499877322474524,20,-2,4,3,-3,0,-4,-44
1499877322483552,-6,-3,-10,-10,-4,-2,-6,-31
1499877322483552,9,9,12,16,1,1,14,57
1499877322498591,-13,-17,-24,-20,-10,-7,-11,15
1499877322498591,-1,2,-13,-6,0,0,4,-24
1499877322499531,-12,-5,7,6,1,-3,3,73
1499877322499531,-1,-2,-8,-6,-1,1,2,-39
1499877322520585,10,7,4,8,5,5,-5,5
1499877322520585,-4,2,2,-8,-2,-1,-5,-26
1499877322522524,-24,-8,-12,2,-4,-2,-2,-24
1499877322522524,21,-1,-1,-3,-4,-2,2,66
1499877322534544,-2,5,9,2,1,-2,4,-4
1499877322534544,-16,-5,-3,-4,-1,-1,3,6
1499877322543555,14,0,5,1,-1,-2,-5,1
1499877322543555,1,3,-2,5,-1,0,-3,-44
1499877322558571,-8,-5,5,-6,-5,-2,-13,-17
1499877322558571,1,1,-8,7,5,4,7,9
1499877322559525,19,3,0,-6,-2,-2,-8,14
1499877322559525,-8,-9,-6,-2,-4,0,6,19
1499877322580572,9,7,-3,-1,1,2,21,-23
1499877322580572,-23,-9,3,-9,-5,-7,-10,-16
1499877322582527,-22,-5,6,6,4,6,3,-73
1499877322582527,-7,-1,-4,-5,-2,-3,12,14
1499877322594567,0,3,2,-1,1,3,9,3
1499877322594567,-17,2,2,6,-1,-5,-10,-27
1499877322603559,18,5,-5,-4,-3,-2,-5,4
1499877322603559,5,3,4,0,2,1,30,-12
1499877322618571,-13,-3,7,1,-1,0,-14,-30
1499877322618571,-6,0,-12,-8,-3,3,4,-1
1499877322619528,-11,-5,1,-5,-3,-2,-4,-11
1499877322619528,-9,1,-4,-1,1,1,0,-56
1499877322640567,10,-1,7,3,-1,-5,-18,27
1499877322640567,-8,1,10,7,3,1,32,-55
1499877322642531,-28,-1,0,-5,-1,-4,-27,21
1499877322642531,-6,-2,-7,-5,-2,1,9,15
1499877322663579,10,3,-4,1,-1,0,7,17
1499877322663579,3,-2,-8,-5,-1,1,-8,12
1499877322664533,7,3,5,4,1,1,4,-1
1499877322664533,8,-5,5,-3,-3,-2,-14,33
1499877322678580,-17,-4,-8,2,3,1,-4,-29
1499877322678580,12,-5,-2,-2,-4,-7,-11,13
1499877322679533,13,-3,-7,-4,1,-1,-2,-26
1499877322679533,-7,-5,-1,-5,-4,-1,-13,10
1499877322700573,1,4,4,5,-1,-2,-1,20
1499877322700573,-1,-9,6,-8,-3,-1,-4,17
1499877322702532,6,0,0,10,0,1,5,-8
1499877322702532,-18,1,-4,0,2,1,0,-36
1499877322723572,-6,-5,4,-2,-1,-3,5,33
1499877322723572,-2,1,-7,1,-1,1,16,-12
1499877322724534,-8,-3,1,-5,-2,-4,-21,-14
1499877322724534,9,-2,-5,-5,-2,0,14,17
1499877322738576,9,1,0,-1,-2,-1,11,22
1499877322738576,-2,-1,2,3,1,-1,-12,1
1499877322739535,17,-3,-2,-1,0,-4,-1,54
1499877322739535,-15,3,-3,4,3,2,-9,28
1499877322760579,20,-3,-1,1,-2,-3,21,24
1499877322760579,-35,-4,-3,-12,-7,-9,-27,-57
1499877322762535,3,3,-5,-2,1,6,11,32
1499877322762535,-1,-3,4,-1,-1,-4,-37,-32
1499877322782576,-5,-1,-7,-2,-1,-1,12,3
1499877322782576,11,-3,4,2,2,4,12,-4
1499877322790537,-6,-2,-2,-1,-3,-2,1,-14
1499877322790537,7,2,6,3,1,0,4,-1
1499877322797576,-10,-1,-6,-3,-1,-3,-17,-32
1499877322797576,14,4,-5,2,2,3,-7,22
1499877322804542,-14,-2,-11,-5,-2,-2,11,-52
1499877322804542,-3,0,2,-1,-2,-5,-17,57
1499877322820577,9,-4,6,-3,-2,-1,0,-33
1499877322820577,-2,1,-5,2,0,0,-5,31
1499877322822549,4,-1,0,-2,-1,0,8,18
1499877322822549,-3,-3,0,-4,-1,0,-2,-3
1499877322843538,29,4,-7,0,0,3,-2,4
1499877322843538,-5,-2,4,4,-1,-4,4,2
1499877322845540,1,2,-1,-3,-1,-3,-33,28
1499877322845540,-4,0,-7,1,1,0,13,-36
1499877322857617,-12,-6,-3,-8,-3,-3,-7,-19
1499877322857617,1,-1,5,2,1,-1,-5,-12
1499877322864580,-4,2,5,6,1,1,1,-8
1499877322864580,1,-9,-9,-7,-7,-5,3,-13
1499877322880557,8,6,-1,3,1,2,-8,19
1499877322880557,3,4,3,2,1,2,-3,6
1499877322882544,-6,-3,-1,0,-2,-1,8,-17
1499877322882544,-7,-3,13,0,0,0,1,-6
1499877322903583,-10,-3,-4,-1,-1,-3,-3,0
1499877322903583,1,-2,-9,-3,-1,0,6,10
1499877322904543,9,2,-7,1,0,-1,-3,4
1499877322904543,9,0,-2,-2,0,0,7,-18
1499877322917562,-10,2,-9,-5,0,1,3,53
1499877322917562,-13,-1,-3,-4,-1,-3,-13,-56
1499877322924584,-1,-8,3,-8,-7,0,24,10
1499877322924584,0,-2,-5,-1,-3,-2,-7,-13
1499877322940588,-6,-3,3,-2,-2,0,6,1
1499877322940588,-13,-1,-15,-9,-4,0,-3,-18
1499877322942546,0,-1,1,1,1,-4,0,-10
1499877322942546,-17,3,2,0,0,-2,-15,-45
1499877322963595,-1,0,-1,0,-1,0,27,19
1499877322963595,10,-4,2,6,1,0,-15,-8
1499877322964546,12,0,-2,-1,-1,0,-1,24
1499877322964546,-4,0,-6,-1,2,2,0,13
1499877322977617,7,-11,-8,-7,-8,-6,-29,59
1499877322977617,-4,3,3,-1,-2,-3,13,-51
1499877322984593,-11,-6,7,-2,-3,-2,-15,0
1499877322984593,7,-3,-7,0,1,0,9,10
1499877323000597,-9,-3,2,-4,-3,-1,-9,-9
1499877323000597,5,0,3,-2,-3,-7,-2,9
1499877323002550,2,1,-7,-2,0,1,-1,40
1499877323002550,10,4,3,1,1,2,0,61
1499877323023613,-11,-4,10,1,0,-2,4,-33
1499877323023613,3,1,-2,3,1,0,2,12
1499877323024570,-1,5,-3,1,-1,0,-10,-12
1499877323024570,3,-5,2,1,-1,-3,-8,20
1499877323037618,-12,4,4,5,3,1,-1,-37
1499877323037618,4,-3,-7,-9,-4,-4,-4,58
1499877323044594,-3,-1,4,4,2,1,12,-7
1499877323044594,-10,1,-5,-2,-1,-2,1,-23
1499877323060595,6,1,0,0,-1,-3,-7,-22
1499877323060595,6,2,-1,-4,0,0,-2,-17
1499877323062554,-5,-1,2,1,-5,-5,1,-4
1499877323062554,3,-4,-9,-4,-2,-1,5,-21
1499877323083595,22,4,6,4,0,3,-3,20
1499877323083595,-23,-3,-12,-5,-2,1,7,-61
1499877323084568,2,-1,2,-1,-1,-1,1,-13
1499877323084568,-5,-10,-4,-5,-4,-2,-21,-62
1499877323097621,-6,-2,-3,-1,-1,0,-8,-23
1499877323097621,-2,1,1,4,0,4,10,10
1499877323104600,3,0,-2,1,1,-1,-1,-14
1499877323104600,2,1,-1,-3,-2,-1,10,19
1499877323120621,-10,-1,-11,-2,-1,0,0,-23
1499877323120621,-3,-4,6,0,-2,0,2,34
1499877323122557,4,-2,-7,-7,2,-1,-14,-10
1499877323122557,5,-2,3,1,-2,-2,0,-4
1499877323143626,0,-2,-4,-5,-1,0,0,3
1499877323143626,9,2,1,3,0,-1,-4,20
1499877323144568,-3,-1,4,-3,-4,-1,9,15
1499877323144568,21,1,1,2,-1,-2,3,-10
1499877323158624,-12,4,0,1,2,5,4,22
1499877323158624,-9,-1,-4,-3,-2,-2,1,-50
1499877323164559,-6,-4,-2,-2,0,-6,-9,-5
1499877323164559,21,1,6,2,4,-1,-36,32
1499877323180569,-13,-4,-4,1,-2,1,65,-2
1499877323180569,3,-2,0,-6,-3,-3,1,21
1499877323182573,-2,2,-3,-1,0,-1,7,-12
1499877323182573,1,3,-1,1,1,3,24,23
1499877323203624,10,0,5,2,-2,-1,-19,-19
1499877323203624,7,-4,-6,1,-2,-3,-9,17
1499877323204563,-20,0,-3,-3,-1,2,12,-22
1499877323204563,-13,3,-4,-2,-2,-1,-5,-12
1499877323216606,0,-6,7,-4,-5,-5,-19,16
1499877323216606,-2,-2,-2,1,1,-2,3,-21
1499877323225603,2,-2,2,-1,-4,-3,-7,1
1499877323225603,-7,-6,1,-2,-2,-1,3,7
1499877323240603,-1,0,0,1,4,1,-3,-1
1499877323240603,2,-2,9,-1,1,0,-7,1
1499877323242570,-4,-7,-8,-1,-1,0,-4,21
1499877323242570,-9,2,-4,3,0,1,11,-12
1499877323263634,9,4,-5,-8,-5,-6,-13,1
1499877323263634,1,-7,-5,-6,-2,-3,12,52
1499877323264566,-6,-3,-3,2,0,0,-4,-30
1499877323264566,-7,4,-3,-4,-6,-4,-4,16
1499877323276576,3,-6,5,-1,0,-5,-20,12
1499877323276576,4,-4,-6,-2,-2,1,27,46
1499877323285608,-1,4,1,3,2,1,-9,17
1499877323285608,-13,-7,-4,-5,-2,-2,19,-36
1499877323300569,-12,0,-9,1,1,-2,9,1
1499877323300569,4,7,6,2,1,1,-16,4
1499877323302568,-3,-5,-1,-6,-3,-5,-5,-62
1499877323302568,5,-2,-2,0,0,-2,-12,54
1499877323323588,-6,-3,-12,-7,-2,0,3,13
1499877323323588,-21,1,-1,0,-2,1,-2,-55
1499877323324570,4,0,-2,1,-2,-1,-6,0
1499877323324570,0,-7,-2,-5,-3,1,-6,-6
1499877323336615,2,1,-4,-1,-1,-1,-5,4
1499877323336615,2,-2,-2,3,0,0,-5,13
1499877323345606,10,5,-1,-1,0,2,11,15
1499877323345606,4,0,9,0,-1,0,-6,7
1499877323360614,-12,-1,2,4,1,-4,-8,-11
1499877323360614,-5,0,4,-1,0,2,10,-12
1499877323362571,1,-4,-2,2,-2,-5,-9,-4
1499877323362571,-11,1,-13,-6,-3,5,0,-3
1499877323383575,-1,-6,3,-3,-3,-3,1,-16
1499877323383575,3,-2,-1,1,0,1,-10,-4
1499877323384571,0,1,4,5,2,0,12,-16
1499877323384571,6,1,-4,0,0,-3,-10,37
1499877323396622,-6,3,-4,3,4,3,0,-12
1499877323396622,9,-5,2,1,-1,-2,-16,-36
1499877323405583,13,-8,-5,-5,-5,0,15,6
1499877323405583,-29,1,-1,0,-2,-6,20,-17
1499877323420608,1,2,-8,0,0,0,-8,-21
1499877323420608,-4,3,10,5,0,1,-13,58
1499877323422574,-5,-2,-2,-2,0,-3,-7,5
1499877323422574,5,-3,6,0,-1,-2,-6,-21
1499877323443574,4,2,-5,2,1,0,5,2
1499877323443574,-11,0,-2,-5,-1,0,-9,-10
1499877323444574,0,-1,4,-2,-2,-1,-1,10
1499877323444574,5,1,2,3,1,5,6,6
1499877323456616,3,-1,4,-3,-1,-1,-2,-4
1499877323456616,6,1,-4,5,1,-3,11,50
1499877323465602,-7,0,1,-6,-2,1,-1,-13
1499877323465602,17,1,1,-1,0,-1,-1,1
1499877323480620,-15,-2,0,1,-2,-2,-6,-13
1499877323480620,9,2,2,-1,-3,-2,18,-10
1499877323482610,-2,-8,-18,-7,-1,0,-15,22
1499877323482610,0,-2,3,2,0,-1,-14,34
1499877323503584,15,-1,-4,0,-2,-2,-5,11
1499877323503584,-13,0,3,-4,-1,-2,10,-22
1499877323504578,15,-1,3,1,-1,-1,-6,-14
1499877323504578,-9,-2,3,-2,-1,0,-1,-34
1499877323516625,-5,0,-3,0,0,-2,-7,-14
1499877323516625,-4,-4,-14,-4,-2,-2,0,-8
1499877323525610,7,0,-2,1,1,-3,-5,60
1499877323525610,2,-5,0,-4,-3,-1,6,1
1499877323540624,-5,0,3,3,0,-2,15,6
1499877323540624,13,2,-4,-3,-4,0,10,-41
1499877323542581,1,1,-2,0,-1,-1,-16,-43
1499877323542581,-5,1,4,3,1,0,-4,7
1499877323563620,-4,-1,-4,-3,1,-2,-10,1
1499877323563620,3,-1,7,-1,-2,-1,2,11
1499877323564591,-4,-1,-8,0,0,0,11,17
1499877323564591,0,-7,-5,-4,-4,-2,-2,-13
1499877323576622,8,-2,-3,-3,-2,-2,-12,10
1499877323576622,-10,-1,-1,-2,-2,-1,-1,-14
1499877323585605,-5,1,7,1,-1,0,7,-2
1499877323585605,1,1,0,0,-1,-1,-1,6
1499877323600584,-3,-3,-4,-4,-4,1,5,26
1499877323600584,-3,-1,-7,1,0,-1,-18,-13
1499877323602586,-2,-6,3,-7,-5,1,4,-1
1499877323602586,-14,-2,-1,2,2,0,-6,21
1499877323623635,-3,-2,-9,-3,-3,-3,4,4
1499877323623635,-6,-1,5,0,2,-2,-14,9
1499877323624587,-4,-4,-3,0,-2,1,1,-8
1499877323624587,-1,-1,-2,2,4,2,-8,-57
1499877323636624,6,0,3,-2,0,0,5,-8
1499877323636624,12,0,-5,-2,2,-2,3,12
1499877323645650,-13,2,-4,0,0,0,2,32
1499877323645650,10,2,6,-1,-3,-8,-26,-6
1499877323660620,-9,-1,8,5,1,4,21,32
1499877323660620,3,0,-2,-1,-1,-3,-4,-21
1499877323662590,-18,-2,8,4,0,-2,-17,-50
1499877323662590,4,2,-14,-10,-3,1,24,12
1499877323683589,-4,-1,8,4,2,1,-10,-10
1499877323683589,-7,-4,0,-1,-2,-3,-5,10
1499877323684590,5,1,-2,-2,1,-2,7,9
1499877323684590,-3,0,0,2,-1,2,3,0
1499877323705660,1,-1,1,-3,0,-2,1,-6
1499877323705660,0,-3,2,1,0,1,-1,-4
1499877323711589,2,1,-5,-2,0,-1,-6,-12
1499877323711589,6,-3,-2,-5,-4,-1,7,21
1499877323720650,2,-4,-8,-7,-3,-1,-7,-6
1499877323720650,-6,-1,-6,3,-1,-2,-6,-14
1499877323722591,16,-4,1,-5,-2,-2,6,30
1499877323722591,2,-4,6,-5,-2,-7,-21,57
1499877323743663,-10,-6,-13,-11,-5,-2,2,-37
1499877323743663,-10,-1,2,2,0,-2,-25,-12
1499877323744596,4,2,3,0,-1,-3,13,-6
1499877323744596,-3,-2,-5,-1,-2,2,2,-15
1499877323765651,-1,1,8,4,1,-6,-9,-17
1499877323765651,0,0,-5,-4,-1,1,35,25
1499877323767629,13,0,0,3,-3,-5,-20,3
1499877323767629,-2,-3,2,-2,0,-2,1,-7
1499877323780637,1,2,-2,0,-1,0,-3,-3
1499877323780637,-1,-1,-5,-4,0,0,-3,-1
1499877323782594,-6,1,0,0,-1,-1,9,-6
1499877323782594,-5,-5,-2,1,-1,-1,-3,-9
1499877323803646,3,1,3,-1,1,3,2,6
1499877323803646,3,0,3,2,0,1,-1,13
1499877323804597,-6,-4,-9,-10,-4,-1,-11,-1
1499877323804597,3,-2,-7,4,-1,6,42,9
1499877323825667,2,-2,0,-3,-2,-3,-18,-2
1499877323825667,1,-2,-2,2,-2,1,2,4
1499877323827633,1,3,0,0,0,3,14,25
1499877323827633,-4,2,-5,-2,0,-5,-27,-70
1499877323840629,-4,-5,7,1,-3,-2,-9,-5
1499877323840629,-5,-4,-1,-4,-4,-2,2,-8
1499877323846644,-8,-3,-2,0,-1,-1,-15,-4
1499877323846644,3,-2,2,1,-2,0,21,30
1499877323863656,-1,2,-1,2,2,4,16,-6
1499877323863656,1,1,2,-3,-2,-8,-60,-16
1499877323864599,-2,-1,-3,-1,0,4,28,17
1499877323864599,-3,-1,3,-1,-2,-3,-3,-4
1499877323885640,-14,3,-5,4,-1,1,-3,-32
1499877323885640,12,-4,7,-2,-3,-1,8,23
1499877323887620,-7,-3,-7,-2,1,-1,-20,-22
1499877323887620,4,4,-3,1,2,1,6,10
1499877323900636,1,0,0,0,-3,-2,10,17
1499877323900636,-3,-2,0,-2,-1,3,18,0
1499877323906646,-4,-1,-3,-8,-8,-4,-6,-6
1499877323906646,0,-1,-4,1,3,-1,-16,-7
1499877323923667,3,-1,3,-1,-1,0,22,8
1499877323923667,-4,0,-3,1,2,3,2,-8
1499877323924604,6,2,4,0,1,0,8,2
1499877323924604,1,0,4,1,-4,-2,-8,6
1499877323945671,0,-3,-6,-8,-1,-4,-6,-2
1499877323945671,-1,-1,-5,0,1,1,15,8
1499877323947615,-3,-4,1,-2,-3,-2,6,-4
1499877323947615,-6,2,-8,-1,0,3,-4,-10
1499877323960623,4,-1,8,4,3,-1,-6,23
1499877323960623,2,-1,-9,-4,-2,-4,-17,-19
1499877323966645,-6,3,9,1,1,-2,3,-35
1499877323966645,1,3,9,9,1,0,-23,1
1499877323983608,6,-2,0,-1,-1,3,18,26
1499877323983608,0,-1,-8,-1,-2,-3,2,3
1499877323984608,-5,4,-2,3,2,2,-12,-4
1499877323984608,-4,-5,0,-6,-2,-4,-10,-3
1499877324005620,-3,-3,-3,1,-1,-1,-11,-22
1499877324005620,-2,-3,-1,-2,1,-2,-21,1
1499877324007608,6,2,-3,5,3,6,32,29
1499877324007608,-4,-2,-1,3,-1,-2,17,-3
1499877324020619,-3,-7,-16,-9,-4,-3,-18,-11
1499877324020619,21,-2,-2,-5,-2,-3,-8,76
1499877324026648,-7,1,3,3,2,0,-17,-9
1499877324026648,-5,-7,-4,-2,-1,-3,15,29
1499877324043658,-2,1,0,-3,-2,-1,0,5
1499877324043658,-18,3,0,4,-1,-2,-10,-42
1499877324044647,2,-1,-1,0,-1,-4,5,2
1499877324044647,4,-3,-8,-2,-2,-1,-6,-4
1499877324065671,1,0,1,1,1,-2,-5,9
1499877324065671,-4,-3,-3,-6,-1,2,15,-10
1499877324067610,-4,-4,-3,-3,-3,-3,-2,-5
1499877324067610,-1,3,2,-2,0,2,-4,-11
1499877324080637,-4,-2,-6,-6,-5,-1,11,-8
1499877324080637,-4,-1,-2,-1,-3,1,14,-4
1499877324086657,4,-5,2,-2,-2,-5,-26,-3
1499877324086657,-1,3,3,5,0,2,13,-6
1499877324103652,5,1,0,-6,0,0,-1,0
1499877324103652,-8,-2,-1,3,2,0,-3,-10
1499877324104621,1,-3,8,-1,-4,-1,18,16
1499877324104621,0,0,3,-5,-1,1,-1,16
1499877324125688,-8,-4,2,4,-2,-8,-26,10
1499877324125688,-4,0,-5,-3,-1,-3,12,-21
1499877324127615,-1,2,-2,1,1,3,12,-4
1499877324127615,-2,-1,2,-3,-3,0,24,7
1499877324139685,-1,2,2,8,3,0,-4,-28
1499877324139685,3,-4,-5,-6,-1,3,-6,25
1499877324148616,1,-6,-6,-3,-5,-1,2,5
1499877324148616,1,0,-3,-2,-2,-2,-11,-11
1499877324163685,0,1,-1,8,0,-2,-8,8
1499877324163685,-5,-3,4,-4,-3,-4,2,-13
1499877324164617,2,-1,1,0,3,2,7,-3
1499877324164617,0,-3,-4,-6,-2,-3,-14,-1
1499877324185658,4,3,-1,-2,0,1,-4,12
1499877324185658,-4,6,16,5,1,2,19,-14
1499877324187620,0,-5,-2,-7,0,-5,-38,-12
1499877324187620,13,0,1,0,-1,1,18,60
1499877324199685,-3,-1,-4,-1,-1,-2,-40,-28
1499877324199685,7,2,2,0,0,-3,4,17
1499877324208619,-5,-1,-11,-6,-2,-1,-3,-8
1499877324208619,-2,-4,5,0,-2,-4,-26,-15
1499877324223669,-4,-3,0,-4,-4,-3,-9,-17
1499877324223669,3,3,2,4,0,1,8,-36
1499877324224620,-7,2,-1,-3,-2,-2,-2,3
1499877324224620,-5,0,-5,1,3,0,-2,-2
1499877324245693,-3,-2,-4,-5,-2,0,10,-8
1499877324245693,5,-3,1,1,-1,-4,-26,4
1499877324247656,-4,0,7,2,-1,-2,33,7
1499877324247656,0,1,-3,-4,0,-3,-8,-34
1499877324259685,-3,-2,-1,-2,-1,-3,-9,16
1499877324259685,-3,3,-9,3,-1,0,17,5
1499877324268632,4,-3,11,0,-1,3,-4,10
1499877324268632,-4,-5,-6,-1,-3,-1,11,1
1499877324283625,-4,-1,-1,-3,-3,-1,11,-6
1499877324283625,0,-2,-5,-5,-1,2,-7,2
1499877324284653,-1,-1,-5,-1,-2,-4,-15,-6
1499877324284653,0,1,-1,-1,-2,2,6,-7
1499877324305695,-3,1,1,-1,2,1,17,15
1499877324305695,2,-1,3,0,-3,-5,-28,-2
1499877324307657,-3,1,-4,-2,-1,-3,-31,-5
1499877324307657,6,-1,-8,-8,-5,-1,27,36
1499877324319694,2,1,-3,1,0,-3,8,-13
1499877324319694,-1,-5,2,-2,-2,1,4,27
1499877324328659,-8,-1,-1,0,1,-2,-27,-50
1499877324328659,-8,-2,-2,4,-1,-4,-19,-45
1499877324343696,-5,-2,-2,-5,-1,1,3,9
1499877324343696,-6,0,-5,-1,0,-1,12,-2
1499877324344636,2,-3,0,-3,-3,-3,8,-2
1499877324344636,0,-2,1,-1,0,0,3,1
1499877324365670,0,0,0,-2,-3,1,8,-3
1499877324365670,2,-1,-3,0,-1,-2,-26,-19
1499877324367629,1,4,-3,3,1,0,-5,14
1499877324367629,-3,-6,4,-2,-2,-2,2,-7
1499877324379671,1,0,0,-1,-1,2,10,2
1499877324379671,-2,-2,-2,0,0,0,3,18
1499877324388631,4,6,-1,4,1,1,-9,11
1499877324388631,-4,2,-4,-2,-1,-4,-11,-11
1499877324403700,1,0,11,2,-1,-2,6,-8
1499877324403700,1,-8,-15,-5,-4,-5,3,30
1499877324404642,-5,-3,-1,0,-1,1,8,-21
1499877324404642,-1,1,-3,-1,-2,-2,-26,4
1499877324425690,-1,-5,-11,-5,-2,0,12,10
1499877324425690,-10,-2,7,-4,-2,-6,-18,-47
1499877324427664,-3,-4,-2,2,-2,-1,5,8
1499877324427664,2,0,-2,-4,-2,-4,-12,30
1499877324439701,3,-1,-2,2,0,-1,-8,-1
1499877324439701,-2,3,0,0,1,3,21,4
1499877324448634,0,-1,-2,-3,1,-3,-16,13
1499877324448634,-6,-2,2,4,0,2,-4,-31
1499877324463684,0,0,-3,-4,-2,1,0,-44
1499877324463684,0,-3,2,-1,1,-1,-20,7
1499877324464637,2,0,-2,-1,-1,0,14,-12
1499877324464637,2,-1,-4,2,0,-5,2,-6
1499877324485678,1,-2,2,-1,0,2,7,16
1499877324485678,2,0,5,5,2,2,-1,-10
1499877324487635,-4,-2,-7,-7,-2,-5,-12,3
1499877324487635,-1,-3,-1,-2,-1,3,5,10
1499877324499681,0,-1,-5,-4,-2,-3,-5,6
1499877324499681,2,2,5,0,-1,2,-1,4
1499877324508669,-2,1,1,1,-1,0,15,5
1499877324508669,7,1,-2,-2,-1,-1,-6,15
1499877324523686,2,-4,-3,1,-3,-3,10,-1
1499877324523686,-2,-1,2,-2,-4,-3,1,-13
1499877324524642,-1,-1,-7,-3,-1,1,-3,5
1499877324524642,-5,-1,1,6,-1,-1,24,0
1499877324545703,4,-5,-9,0,-1,1,5,27
1499877324545703,-7,-5,-4,-4,-4,-6,-29,-6
1499877324547674,-1,0,3,3,-1,-1,18,10
1499877324547674,-2,-2,1,-4,2,2,-16,-5
1499877324559685,-5,1,2,0,1,-1,12,26
1499877324559685,-14,-1,0,-2,-2,0,2,-53
1499877324568673,7,0,4,5,1,-1,6,30
1499877324568673,-12,3,-7,-7,-3,-2,-11,-73
1499877324583680,-4,2,-1,2,-1,-3,-1,-4
1499877324583680,2,-2,11,1,0,0,7,18
1499877324584642,1,0,-1,3,2,4,0,1
1499877324584642,1,1,3,-4,0,1,9,-4
1499877324605714,6,5,4,1,1,0,6,-14
1499877324605714,-8,-5,-15,-8,-1,-2,22,18
1499877324607654,7,0,-6,-3,-4,-3,-10,-25
1499877324607654,3,-2,-4,1,-1,1,-5,26
1499877324628709,-4,-3,8,0,-1,-3,-18,-9
1499877324628709,6,0,-6,-3,2,3,0,19
1499877324629650,-7,-4,-1,-2,0,-3,-11,4
1499877324629650,-5,4,-8,1,2,4,35,-16
1499877324643697,1,0,11,5,-2,0,7,-43
1499877324643697,2,0,-3,0,1,1,-2,9
1499877324644646,3,-4,-1,-4,-2,-3,-16,7
1499877324644646,-1,0,6,2,-1,3,26,-14
1499877324665691,-5,-3,-8,-5,0,0,-3,10
1499877324665691,7,2,5,1,-1,-1,6,15
1499877324667657,-1,-2,-3,-3,-2,4,4,36
1499877324667657,-11,0,7,1,2,-7,-25,-71
1499877324688695,-4,-3,-6,-2,-1,0,-8,-2
1499877324688695,8,3,0,1,-2,3,28,16
1499877324689646,-4,0,3,-1,-1,-7,-20,-8
1499877324689646,1,-8,-10,-5,-6,-6,5,-7
1499877324702647,-10,-4,-3,-5,-3,2,4,8
1499877324702647,-8,-1,-8,-2,-1,-6,-25,-17
1499877324709719,-18,-2,2,2,0,-1,-13,-55
1499877324709719,9,3,3,3,2,6,43,-4
1499877324725690,16,2,-6,-10,1,0,-1,65
1499877324725690,-10,-1,5,3,-1,-2,11,15
1499877324727653,15,-4,-3,3,1,-3,3,-2
1499877324727653,-10,-2,2,-3,1,2,3,3
1499877324748691,32,-3,4,0,-1,-2,-11,33
1499877324748691,1,5,5,3,0,2,43,-27
1499877324749651,-10,1,-1,-1,2,2,7,-7
1499877324749651,2,-3,1,-1,-3,-5,-29,13
1499877324762649,-30,-3,-3,3,-2,-4,-30,-51
1499877324762649,8,-3,-3,-9,-1,1,28,12
1499877324769701,-6,-4,-3,-1,-1,-3,-17,-39
1499877324769701,-11,-1,-4,-1,-2,0,0,16
1499877324785675,5,1,-1,0,0,1,11,54
1499877324785675,-10,-1,-13,0,-2,-6,-44,-54
1499877324787685,18,-2,-15,2,-4,0,23,92
1499877324787685,-1,-2,1,-2,1,2,-13,17
1499877324808699,-19,5,12,5,4,-3,2,-51
1499877324808699,6,-5,5,-9,-4,2,-2,46
1499877324809655,4,0,-3,-7,-1,-1,15,-5
1499877324809655,7,-1,-3,-1,-3,-4,-9,63
1499877324822678,-5,1,5,1,-2,-4,-11,-23
1499877324822678,-5,-1,-1,6,0,-2,-4,-9
1499877324829722,1,2,7,-1,1,1,-11,7
1499877324829722,10,-1,0,-3,-1,-1,17,33
1499877324845700,1,-3,0,-2,-2,0,7,16
1499877324845700,2,-1,3,3,1,-6,-39,-43
1499877324847665,6,-10,-9,-4,-7,-1,16,68
1499877324847665,24,-1,-7,-9,-2,-2,-8,9
1499877324868732,-13,0,-5,-4,-3,-2,-6,-1
1499877324868732,-7,-3,4,0,-2,-2,-2,12
1499877324869668,-11,0,4,-4,-1,-2,7,-56
1499877324869668,-2,-2,3,2,-1,-1,-15,3
1499877324882668,25,0,-2,5,-1,0,-3,46
1499877324882668,12,-3,-4,-5,1,3,-2,6
1499877324889734,-26,2,1,4,1,-4,-25,-50
1499877324889734,6,-1,0,-3,-3,-2,2,20
1499877324905709,3,1,-4,-4,-3,-2,-10,-7
1499877324905709,-3,-4,-7,2,-1,1,-2,3
1499877324907670,3,1,1,2,1,2,14,-20
1499877324907670,-11,-1,1,2,-2,-1,-32,-32
